ecg
-14.306858930342566
-12.158388647287708
-5.71297779812314
-1.7090104524299992
-3.2715342946517127
-5.517662317845426
-8.05676356145571
-10.693522545204852
-14.209201190203707
-18.310826276035705
-21.43587396047913
-24.756237125200276
-25.732814526588847
-25.63515678644999
-27.295338368810558
-29.150835431448844
-29.63912413214313
-25.830472266727703
-20.752269779507134
-17.041275654230564
-12.45136186770428
-7.373159380483711
-0.7324330510414282
6.39658197909514
14.11154345006485
24.17029068436713
35.596246280613414
48.291752498664835
55.81139848935683
53.07698176546884
45.26436255436027
38.525978484779124
35.20561532005799
29.346150911726557
17.13893339436942
1.9043259327077133
-14.795147631036851
-28.564888990615703
-37.35408560311284
-40.38147554741741
-38.03768978408484
-35.49858854047456
-34.32669565880827
-34.131380178530556
-29.9320973525597
-13.232623788815136
20.752269779507134
75.73357747768368
139.11345082780193
177.29762722209506
152.59021896696422
52.002746623941405
-83.15556572823682
-184.32898451209277
-207.57152666514077
-161.67238879987792
-92.92133974212253
-37.4517433432517
-7.275501640344854
2.0996414129854277
1.8066681925688564
-1.416037232013428
-1.8066681925688564
0.34180209048599985
3.662165255207141
8.349736781872283
10.986495765621424
13.720912489509422
18.799114976729992
25.537499046311133
31.885252155336843
33.05714503700313
30.22507057297627
25.830472266727703
24.560921644922562
29.736781872281988
35.79156176089113
39.600213626306555
40.57679102769512
40.57679102769512
43.50652323186084
47.60814831769284
51.31914244296941
51.123826962691695
45.55733577477684
37.74471656366827
27.97894254978256
18.21316853589685
7.959105821316854
-1.8066681925688564
-7.861448081177996
-12.060730907148852
-16.45532921339742
-24.560921644922562
-36.768139162279695
-48.584725719081405
-57.471580071717405
-58.350499732967116
-52.19806210421912
-43.99481193255512
-35.49858854047456
-28.369573510337986
-21.14290074006256
-15.576409552147707
-12.549019607843137
-10.10757610437171
-9.130998702983138
-7.568474860761425
-5.420004577706569
-4.248111696040284
-3.2715342946517127
-2.9785610742351416
-1.2207217517357138
0.04882887006942855
-0.537117570763714
-1.513694972152285
-3.076218814373999
-2.490272373540856
-1.0254062714579995
-1.2207217517357138
-2.197299153124285
-3.7598229953459983
-2.8809033340962844
0.34180209048599985
6.005951018539712
15.381094071869994
25.24452582589456
36.57282368200198
48.78004119935912
57.95986877241169
60.108339055466544
50.83085374227512
34.131380178530556
15.967040512703136
0.43945983062485694
-10.595864805065995
-19.775692378118563
-25.24452582589456
-29.541466392004274
-37.35408560311284
-48.78004119935912
-61.37788967727169
-67.92095826657511
-66.74906538490883
-60.108339055466544
-51.416800183108265
-46.43625543602655
-41.16273746852827
-26.61173418783856
7.666132600900283
67.23735408560312
136.57434958419165
179.2507820248722
149.95345998321508
35.98687724116884
-111.47631036850538
-209.3293659876402
-207.9621576256962
-133.35164415960938
-47.90112153810941
6.787212939650568
22.314793621728846
15.381094071869994
3.662165255207141
-2.783245593957427
-1.3183794918745708
2.5879301136797133
8.252079041733426
15.283436331731137
21.533531700617992
27.1976806286717
30.22507057297627
31.9829098954757
31.592278934920273
28.857862211032273
26.514076447699704
23.58434424353399
23.291371023117417
26.123445487144274
29.346150911726557
32.471198596169984
34.424353398947126
38.03768978408484
42.72526131074998
45.85030899519341
47.51049057755398
46.33859769588769
43.21355001144427
36.475165941863125
26.318760967421987
17.724879835202564
10.79118028534371
5.71297779812314
0.8300907911802854
-5.908293278400855
-14.892805371175708
-27.100022888532845
-37.84237430380713
-45.26436255436027
-50.83085374227512
-53.17463950560769
-52.97932402532997
-48.584725719081405
-41.45571068894484
-34.0337224383917
-27.002365148393988
-23.19371328297856
-19.18974593728542
-12.84199282825971
-5.908293278400855
0.24414435034714274
2.2949568932631417
2.197299153124285
1.9043259327077133
2.490272373540856
5.517662317845426
8.154421301594567
11.279468986037996
13.916227969787137
14.013885709925994
12.646677347981994
9.130998702983138
6.201266498817426
3.662165255207141
1.416037232013428
1.1230640115968566
1.0254062714579995
3.2715342946517127
7.666132600900283
11.572442206454566
15.674067292286564
19.385061417563133
24.756237125200276
31.00633249408713
37.64705882352941
45.85030899519341
50.635538261997404
49.56130312046998
41.065079728389414
27.881284809643702
15.576409552147707
3.8574807354848555
-7.373159380483711
-20.45929655909056
-35.98687724116884
-50.928511482413974
-63.819333180743115
-69.48348210879682
-67.43266956588083
-61.08491645685512
-52.19806210421912
-45.362020294499125
-40.67444876783398
-35.303273060196844
-19.287403677424276
22.90074006256199
93.8979171435111
170.65690089265277
199.36827649347677
135.59777218280308
-4.541084916456855
-147.90264744029906
-214.1145952544442
-183.8406958113985
-101.90585183489738
-25.439841306172273
14.404516670481422
23.87731746395056
20.752269779507134
17.334248874647134
18.60379949645228
20.654612039368278
21.826504921034562
21.14290074006256
19.678034637979707
20.947585259784848
22.90074006256199
26.123445487144274
29.150835431448844
29.443808651865414
27.100022888532845
22.119478141451133
19.18974593728542
20.654612039368278
24.95155260547799
31.396963454642556
36.37750820172427
40.57679102769512
43.018234531166556
43.21355001144427
43.70183871213855
42.62760357061112
40.772106507972836
37.4517433432517
31.201647974364842
23.389028763256274
14.404516670481422
7.568474860761425
1.1230640115968566
-7.275501640344854
-15.771725032425422
-25.049210345616846
-33.545433737697415
-41.065079728389414
-47.31517509727627
-50.24490730144198
-50.83085374227512
-46.43625543602655
-38.818951705195694
-32.764171816586554
-29.346150911726557
-29.346150911726557
-29.053177691309987
-26.416418707560844
-20.361638818951704
-10.595864805065995
-2.5879301136797133
2.392614633401999
5.517662317845426
7.373159380483711
8.642710002288853
6.103608758678568
1.513694972152285
-2.392614633401999
-2.8809033340962844
2.0019836728465705
7.373159380483711
10.888838025482567
10.302891584649425
4.443427176317998
-3.2715342946517127
-11.377126726176853
-14.404516670481422
-10.498207064927138
-1.2207217517357138
12.256046387426567
26.123445487144274
39.11192492561227
45.75265125505455
40.772106507972836
27.392996108949415
10.986495765621424
-1.9043259327077133
-11.963073167009995
-22.803082322423133
-35.69390402075227
-50.928511482413974
-60.694285496299685
-59.71770809491112
-49.56130312046998
-35.98687724116884
-29.053177691309987
-29.9320973525597
-32.95948729686427
-30.615701533531702
-17.236591134508277
6.494239719233997
45.75265125505455
104.8355840390631
169.28969253070878
195.36430914778362
132.47272449835967
-10.79118028534371
-155.1293202105745
-216.45838101777676
-179.2507820248722
-98.39017318989853
-30.22507057297627
4.834058136873426
16.260013733119706
19.58037689784085
18.506141756313422
14.892805371175708
9.619287403677424
7.177843900205997
12.060730907148852
17.920195315480278
20.55695429922942
20.947585259784848
21.533531700617992
23.87731746395056
24.4632639047837
25.146868085755703
27.002365148393988
29.443808651865414
32.178225375753414
32.6665140764477
33.74074921797513
36.768139162279695
39.40489814602884
41.065079728389414
40.28381780727855
41.065079728389414
45.16670481422141
49.073014419775696
49.658960860608836
43.70183871213855
34.61966887922484
24.756237125200276
15.576409552147707
7.666132600900283
-4.931715877012284
-22.119478141451133
-38.91660944533455
-50.83085374227512
-56.39734493018997
-58.350499732967116
-55.32310978866255
-49.26832990005341
-44.19012741283284
-39.99084458686198
-36.86579690241855
-31.885252155336843
-25.732814526588847
-20.45929655909056
-16.650644693675137
-16.357671473258563
-14.697489890897993
-9.42397192339971
-4.248111696040284
-1.513694972152285
-2.783245593957427
-4.052796215762569
-4.541084916456855
-4.541084916456855
-2.0019836728465705
1.0254062714579995
4.931715877012284
7.959105821316854
7.470817120622568
4.931715877012284
2.197299153124285
3.2715342946517127
5.615320057984283
5.322346837567712
6.6895551995117115
14.697489890897993
31.592278934920273
48.68238345922026
54.7371633478294
48.291752498664835
31.592278934920273
11.767757686732281
-6.005951018539712
-19.775692378118563
-29.053177691309987
-38.72129396505684
-47.90112153810941
-55.127794308384836
-59.13176165407798
-56.20202944991226
-48.78004119935912
-40.772106507972836
-37.4517433432517
-39.014267185473415
-38.03768978408484
-28.467231250476843
0.34180209048599985
56.006713969634546
130.22659647516593
188.43060959792479
180.32501716639965
89.30800335698481
-46.92454413672083
-160.40283817807278
-200.6378271152819
-168.60608834973678
-100.0503547722591
-38.42832074464027
-5.615320057984283
4.248111696040284
2.68558785381857
-0.34180209048599985
-2.392614633401999
-2.783245593957427
0.8300907911802854
6.298924238956283
13.330281528953995
19.678034637979707
23.48668650339513
27.881284809643702
32.27588311589227
35.69390402075227
35.69390402075227
32.08056763561456
29.2484931715877
27.881284809643702
30.615701533531702
37.256427862973986
43.21355001144427
45.16670481422141
39.893186846723125
31.787594415197987
24.560921644922562
19.385061417563133
17.82253757534142
18.40848401617456
21.43587396047913
23.291371023117417
21.045242999923705
16.16235599298085
6.884870679789426
-5.420004577706569
-19.092088197146563
-32.08056763561456
-41.16273746852827
-46.63157091630426
-45.75265125505455
-40.67444876783398
-37.06111238269627
-35.20561532005799
-35.4009308003357
-34.32669565880827
-31.787594415197987
-28.369573510337986
-22.510109102006563
-15.47875181200885
-5.0293736171511405
6.494239719233997
13.037308308537423
12.158388647287708
3.662165255207141
-5.517662317845426
-10.10757610437171
-9.521629663538567
-4.931715877012284
-1.8066681925688564
-0.24414435034714274
0.04882887006942855
-1.1230640115968566
-0.7324330510414282
-0.14648661020828566
0.6347753109025711
0.34180209048599985
-2.783245593957427
-6.39658197909514
-9.81460288395514
-9.619287403677424
-6.201266498817426
-2.197299153124285
2.9785610742351416
7.275501640344854
12.060730907148852
17.52956435492485
22.510109102006563
28.564888990615703
34.22903791866941
39.99084458686198
42.33463035019455
38.23300526436255
29.541466392004274
14.892805371175708
-3.1738765545128556
-20.84992751964599
-35.69390402075227
-47.0222018768597
-57.27626459143969
-62.9404135194934
-62.45212481879911
-57.86221103227283
-49.365987640192266
-41.74868390936141
-35.98687724116884
-29.9320973525597
-18.506141756313422
6.982528419928283
50.635538261997404
110.20675974670024
164.11383230334937
175.73510337987335
118.41000991836424
-1.0254062714579995
-127.29686427100023
-194.9736781872282
-180.32501716639965
-110.69504844739453
-36.37750820172427
13.13496604867628
33.05714503700313
32.95948729686427
27.97894254978256
24.560921644922562
24.853894865339132
25.537499046311133
23.682001983672848
22.021820401312276
21.14290074006256
23.87731746395056
29.346150911726557
32.95948729686427
34.22903791866941
31.68993667505913
27.783627069504846
24.756237125200276
24.365606164644845
28.760204470893417
33.252460517280845
35.303273060196844
34.0337224383917
30.71335927367056
30.22507057297627
31.00633249408713
33.15480277714199
35.596246280613414
35.20561532005799
32.27588311589227
27.1976806286717
24.560921644922562
23.58434424353399
20.45929655909056
15.185778591592278
5.420004577706569
-6.884870679789426
-18.506141756313422
-27.49065384908827
-33.252460517280845
-38.818951705195694
-41.74868390936141
-41.26039520866713
-38.91660944533455
-33.838406958113985
-27.881284809643702
-20.84992751964599
-14.306858930342566
-10.400549324788281
-8.154421301594567
-8.154421301594567
-5.517662317845426
1.7090104524299992
9.71694514381628
14.990463111314565
13.81857022964828
8.838025482566568
2.783245593957427
-2.9785610742351416
-6.6895551995117115
-10.009918364232853
-10.302891584649425
-7.373159380483711
-5.224689097428855
-5.127031357289998
-7.177843900205997
-6.103608758678568
0.14648661020828566
9.912260624093996
21.826504921034562
31.9829098954757
40.38147554741741
44.97138933394369
43.21355001144427
37.549401083390556
28.076600289921416
16.650644693675137
3.8574807354848555
-10.009918364232853
-22.412451361867703
-33.93606469825284
-41.943999389639124
-45.75265125505455
-47.412832837415124
-47.31517509727627
-48.38941023880369
-48.877698939497975
-48.09643701838712
-47.80346379797055
-44.19012741283284
-28.857862211032273
14.11154345006485
89.99160753795681
173.5866330968185
210.59891660944533
147.6096742198825
-4.052796215762569
-162.35599298084992
-240.57984283207446
-216.1654077973602
-136.86732280460822
-59.91302357518883
-14.795147631036851
0.04882887006942855
1.2207217517357138
-0.8300907911802854
-0.7324330510414282
0.34180209048599985
-0.24414435034714274
-0.9277485313191425
-1.416037232013428
2.490272373540856
10.205233844510566
15.869382772564279
17.236591134508277
13.81857022964828
11.670099946593423
14.209201190203707
19.87335011825742
26.514076447699704
29.736781872281988
31.00633249408713
32.471198596169984
34.717326619363696
40.08850232700084
46.33859769588769
52.295719844357976
55.713740749217976
54.053559166857404
49.658960860608836
43.89715419241627
39.69787136644541
35.596246280613414
27.588311589227132
16.260013733119706
-0.04882887006942855
-17.920195315480278
-32.178225375753414
-41.26039520866713
-44.97138933394369
-47.51049057755398
-47.80346379797055
-45.654993514915695
-42.62760357061112
-37.64705882352941
-32.08056763561456
-25.146868085755703
-17.52956435492485
-11.08415350576028
-5.810635538261997
-5.127031357289998
-6.298924238956283
-5.810635538261997
-3.466849774929427
1.8066681925688564
6.298924238956283
7.861448081177996
5.322346837567712
-0.7324330510414282
-5.127031357289998
-6.494239719233997
-2.392614633401999
6.201266498817426
16.55298695353628
29.346150911726557
42.13931486991684
54.44419012741283
63.6240177004654
65.77248798352025
60.108339055466544
47.21751735713741
32.95948729686427
17.82253757534142
-1.416037232013428
-23.58434424353399
-46.826886396581976
-65.47951476310368
-74.85465781643397
-74.26871137560083
-65.77248798352025
-56.690318150606544
-47.31517509727627
-37.06111238269627
-30.22507057297627
-28.857862211032273
-31.592278934920273
-24.267948424505988
9.228656443121995
74.07339589532312
152.98084992751964
195.75494010833904
154.25040054932478
28.174258030060273
-115.0896467536431
-189.79781795986878
-171.7311360341802
-101.02693217364767
-34.81498435950255
-1.3183794918745708
6.201266498817426
2.2949568932631417
-0.43945983062485694
1.6113527122911422
6.005951018539712
13.330281528953995
22.21713588158999
31.494621194781413
36.86579690241855
35.010299839780274
29.834439612420844
24.267948424505988
23.389028763256274
27.783627069504846
32.471198596169984
35.79156176089113
35.69390402075227
35.010299839780274
35.98687724116884
38.42832074464027
43.11589227130541
47.11985961699855
51.31914244296941
56.006713969634546
59.32707713435569
61.182574196993976
56.59266041046769
45.75265125505455
31.201647974364842
13.720912489509422
-3.466849774929427
-18.799114976729992
-28.467231250476843
-34.131380178530556
-41.065079728389414
-49.56130312046998
-60.59662775616083
-70.16708628976883
-73.78042267490653
-69.9717708094911
-59.32707713435569
-48.38941023880369
-37.06111238269627
-24.560921644922562
-15.674067292286564
-12.353704127565424
-13.623254749370565
-12.549019607843137
-7.080186160067139
-0.43945983062485694
5.322346837567712
6.884870679789426
6.884870679789426
7.080186160067139
6.298924238956283
6.103608758678568
7.177843900205997
11.47478446631571
15.771725032425422
14.50217441062028
8.838025482566568
0.9277485313191425
-3.466849774929427
-1.8066681925688564
5.0293736171511405
17.627222095063708
31.592278934920273
45.26436255436027
56.7879758907454
61.768520637827116
57.471580071717405
41.74868390936141
20.45929655909056
-2.197299153124285
-26.90470740825513
-50.53788052185855
-70.65537499046312
-81.49538414587624
-81.00709544518196
-72.21789883268482
-59.62005035477226
-50.83085374227512
-44.873731593804834
-39.307240405889985
-36.182192721446555
-33.3501182574197
-22.803082322423133
12.256046387426567
79.15159838254368
152.10193026626993
178.46952010376134
115.0896467536431
-16.748302433813993
-142.14084077210651
-193.21583886472877
-159.42626077668422
-87.25719081406882
-25.830472266727703
3.36919203479057
6.787212939650568
3.2715342946517127
1.0254062714579995
2.8809033340962844
8.154421301594567
14.599832150759136
22.412451361867703
27.49065384908827
27.881284809643702
23.389028763256274
16.260013733119706
12.939650568398566
12.939650568398566
15.576409552147707
19.18974593728542
22.21713588158999
27.49065384908827
32.471198596169984
35.889219501029984
37.94003204394598
40.479133287556266
45.654993514915695
48.68238345922026
47.0222018768597
40.479133287556266
31.494621194781413
25.24452582589456
19.18974593728542
12.158388647287708
5.517662317845426
0.14648661020828566
-3.7598229953459983
-10.498207064927138
-20.16632333867399
-32.86182955672541
-47.80346379797055
-57.27626459143969
-58.8387884336614
-53.85824368657969
-48.38941023880369
-47.0222018768597
-46.826886396581976
-45.26436255436027
-37.4517433432517
-25.146868085755703
-17.13893339436942
-14.11154345006485
-12.646677347981994
-7.666132600900283
-1.8066681925688564
-0.04882887006942855
1.2207217517357138
3.662165255207141
6.591897459372854
5.615320057984283
-0.9277485313191425
-6.103608758678568
-6.494239719233997
-2.0996414129854277
2.5879301136797133
4.345769436179141
5.322346837567712
4.052796215762569
2.8809033340962844
5.908293278400855
16.260013733119706
35.4009308003357
54.24887464713512
64.9912260624094
66.55374990463112
61.28023193713283
52.6863508049134
38.525978484779124
18.017853055619135
-8.642710002288853
-37.549401083390556
-58.44815747310597
-70.55771725032426
-77.88204776073853
-83.4485389486534
-84.91340505073624
-75.63591973754482
-58.8387884336614
-40.28381780727855
-27.588311589227132
-24.17029068436713
-20.16632333867399
-2.783245593957427
39.600213626306555
103.27306019684139
159.52391851682307
170.55924315251391
110.89036392767224
-2.0019836728465705
-114.99198901350424
-173.97726405737393
-159.13328755626765
-101.6128786144808
-44.38544289311055
-9.228656443121995
5.71297779812314
12.45136186770428
13.720912489509422
13.13496604867628
15.088120851453422
19.87335011825742
26.61173418783856
29.443808651865414
28.369573510337986
26.90470740825513
26.318760967421987
26.90470740825513
25.63515678644999
25.439841306172273
28.076600289921416
30.127412832837415
32.08056763561456
32.86182955672541
33.252460517280845
32.95948729686427
32.56885633630884
35.98687724116884
41.065079728389414
46.33859769588769
49.951934081025406
49.26832990005341
45.75265125505455
37.84237430380713
27.881284809643702
18.310826276035705
8.838025482566568
0.7324330510414282
-8.154421301594567
-16.943617914091707
-26.318760967421987
-36.67048142214084
-43.50652323186084
-46.72922865644312
-46.43625543602655
-43.79949645227741
-40.86976424811169
-36.37750820172427
-31.885252155336843
-24.267948424505988
-13.13496604867628
-3.662165255207141
2.68558785381857
5.0293736171511405
6.201266498817426
7.470817120622568
6.39658197909514
2.9785610742351416
-4.150453955901427
-11.181811245899137
-14.209201190203707
-13.525597009231708
-8.349736781872283
-3.9551384756237127
-2.9785610742351416
-5.0293736171511405
-7.959105821316854
-7.177843900205997
-3.9551384756237127
1.1230640115968566
6.6895551995117115
11.572442206454566
20.263981078812847
33.15480277714199
48.584725719081405
61.96383611810483
67.13969634546426
63.6240177004654
51.31914244296941
34.32669565880827
13.427939269092851
-12.45136186770428
-37.74471656366827
-57.86221103227283
-69.0928511482414
-71.43663691157397
-68.11627374685283
-60.01068131532769
-51.31914244296941
-41.651026169222554
-31.396963454642556
-24.65857938506142
-20.55695429922942
-15.771725032425422
1.2207217517357138
41.065079728389414
100.0503547722591
152.88319218738079
156.00823987182423
86.1829556725414
-32.6665140764477
-137.25795376516365
-168.9967193102922
-126.9062333104448
-53.95590142671855
4.248111696040284
28.174258030060273
26.61173418783856
13.916227969787137
5.224689097428855
6.494239719233997
12.060730907148852
18.21316853589685
21.826504921034562
23.48668650339513
22.90074006256199
19.385061417563133
16.064698252841993
13.720912489509422
16.16235599298085
23.779659723811704
30.518043793392845
34.424353398947126
33.64309147783627
30.71335927367056
27.783627069504846
23.87731746395056
21.24055848020142
20.654612039368278
25.63515678644999
35.10795757991913
41.74868390936141
42.92057679102769
36.67048142214084
26.416418707560844
15.967040512703136
5.0293736171511405
-4.541084916456855
-13.720912489509422
-21.533531700617992
-29.346150911726557
-38.03768978408484
-41.45571068894484
-39.69787136644541
-35.303273060196844
-31.396963454642556
-30.029755092698558
-29.346150911726557
-30.322728313115128
-29.150835431448844
-23.974975204089418
-18.994430457007706
-15.381094071869994
-14.50217441062028
-14.404516670481422
-12.84199282825971
-9.912260624093996
-4.541084916456855
-0.8300907911802854
0.537117570763714
0.9277485313191425
-0.24414435034714274
0.14648661020828566
1.2207217517357138
2.392614633401999
2.490272373540856
0.24414435034714274
-0.9277485313191425
-1.1230640115968566
1.513694972152285
7.373159380483711
14.404516670481422
25.439841306172273
39.40489814602884
54.639505607690545
66.94438086518655
69.48348210879682
62.15915159838254
46.43625543602655
26.416418707560844
2.9785610742351416
-23.48668650339513
-45.75265125505455
-61.67086289768826
-71.8272678721294
-77.97970550087739
-81.20241092545967
-78.27267872129397
-69.87411306935225
-55.22545204852369
-38.03768978408484
-27.295338368810558
-23.096055542839704
-18.310826276035705
4.052796215762569
56.39734493018997
127.98046845197223
182.6688029297322
170.07095445181963
70.55771725032426
-76.02655069810025
-189.40718699931335
-210.2082856488899
-152.49256122682536
-72.41321431296254
-14.209201190203707
10.986495765621424
17.13893339436942
15.47875181200885
14.599832150759136
17.724879835202564
21.14290074006256
24.756237125200276
27.1976806286717
29.150835431448844
30.322728313115128
29.63912413214313
29.541466392004274
28.760204470893417
29.150835431448844
31.396963454642556
32.27588311589227
32.56885633630884
31.494621194781413
29.736781872281988
28.27191577019913
26.807049668116274
28.564888990615703
32.56885633630884
39.5025558861677
47.60814831769284
52.39337758449683
53.36995498588541
48.291752498664835
39.11192492561227
28.760204470893417
16.357671473258563
2.9785610742351416
-10.498207064927138
-21.43587396047913
-30.615701533531702
-40.57679102769512
-47.705806057831694
-52.19806210421912
-55.713740749217976
-59.42473487449455
-62.54978255893797
-60.401312275883114
-54.053559166857404
-44.19012741283284
-33.3501182574197
-26.123445487144274
-20.45929655909056
-15.576409552147707
-10.009918364232853
-4.248111696040284
-0.6347753109025711
2.0996414129854277
2.5879301136797133
2.783245593957427
3.9551384756237127
4.248111696040284
5.420004577706569
5.908293278400855
5.224689097428855
3.662165255207141
1.3183794918745708
1.7090104524299992
3.9551384756237127
8.642710002288853
16.260013733119706
25.146868085755703
37.256427862973986
49.46364538033112
60.30365453574426
67.13969634546426
64.79591058213168
52.6863508049134
31.592278934920273
6.494239719233997
-19.58037689784085
-45.85030899519341
-65.96780346379796
-79.54222934309911
-87.06187533379111
-88.33142595559625
-83.74151216906996
-72.90150301365682
-60.401312275883114
-47.90112153810941
-36.768139162279695
-30.71335927367056
-25.24452582589456
-12.74433508812085
20.263981078812847
80.81177996490425
151.32066834515908
189.60250247959107
149.75814450293737
32.764171816586554
-100.7339589532311
-176.41870756084535
-163.13725490196077
-96.92530708781567
-31.396963454642556
4.443427176317998
12.353704127565424
9.912260624093996
6.982528419928283
8.252079041733426
14.11154345006485
20.068665598535134
25.92813000686656
29.053177691309987
27.588311589227132
21.826504921034562
14.795147631036851
14.013885709925994
18.21316853589685
23.974975204089418
27.588311589227132
26.416418707560844
25.342183566033416
25.732814526588847
28.076600289921416
31.787594415197987
35.20561532005799
40.772106507972836
46.826886396581976
52.6863508049134
56.59266041046769
55.90905622949569
52.6863508049134
44.28778515297169
31.2993057145037
17.627222095063708
4.638742656595713
-5.127031357289998
-13.720912489509422
-22.021820401312276
-31.885252155336843
-43.40886549172198
-48.877698939497975
-48.09643701838712
-45.85030899519341
-47.705806057831694
-54.639505607690545
-59.815365835049974
-59.91302357518883
-51.709773403524835
-36.96345464255741
-24.267948424505988
-15.47875181200885
-10.302891584649425
-6.005951018539712
-2.9785610742351416
-3.5645075150682843
-4.150453955901427
-3.8574807354848555
-1.8066681925688564
1.3183794918745708
3.5645075150682843
6.298924238956283
5.908293278400855
1.416037232013428
-3.662165255207141
-5.322346837567712
-0.43945983062485694
5.224689097428855
9.130998702983138
13.623254749370565
20.068665598535134
30.71335927367056
41.74868390936141
50.24490730144198
54.44419012741283
51.22148470283055
43.11589227130541
29.736781872281988
11.08415350576028
-13.330281528953995
-40.772106507972836
-62.061493858243686
-75.14763103685054
-80.03051804379339
-76.41718165865568
-66.3584344243534
-52.78400854505226
-43.311207751583126
-37.94003204394598
-33.93606469825284
-31.396963454642556
-24.853894865339132
-5.71297779812314
38.525978484779124
107.17936980239567
167.23887998779279
169.4850080109865
86.28061341268025
-47.60814831769284
-156.59418631265737
-187.84466315709162
-145.46120393682764
-77.88204776073853
-25.24452582589456
1.3183794918745708
8.935683222705425
10.693522545204852
10.986495765621424
11.963073167009995
13.525597009231708
12.646677347981994
12.353704127565424
13.427939269092851
16.260013733119706
18.89677271686885
18.799114976729992
19.58037689784085
20.84992751964599
23.096055542839704
26.90470740825513
29.736781872281988
31.787594415197987
31.201647974364842
30.322728313115128
31.2993057145037
32.471198596169984
35.69390402075227
40.57679102769512
46.43625543602655
49.365987640192266
46.533913176165406
42.92057679102769
38.62363622491798
33.3501182574197
26.514076447699704
14.306858930342566
-3.662165255207141
-25.049210345616846
-40.57679102769512
-45.654993514915695
-45.947966735332265
-45.654993514915695
-49.17067215991455
-53.467612726024264
-52.39337758449683
-44.580758373388264
-33.44777599755856
-27.881284809643702
-27.100022888532845
-24.17029068436713
-17.920195315480278
-10.10757610437171
-5.420004577706569
-2.68558785381857
0.34180209048599985
1.3183794918745708
-0.24414435034714274
-4.541084916456855
-5.810635538261997
-1.416037232013428
2.68558785381857
3.36919203479057
-1.2207217517357138
-7.666132600900283
-10.79118028534371
-9.912260624093996
-4.248111696040284
1.9043259327077133
7.177843900205997
12.549019607843137
18.506141756313422
27.881284809643702
38.1353475242237
48.09643701838712
57.08094911116198
61.475547417410546
60.79194323643854
52.19806210421912
34.52201113908598
7.177843900205997
-26.807049668116274
-55.420767528801406
-72.41321431296254
-77.00312809948882
-74.07339589532312
-72.02258335240711
-71.63195239185168
-70.16708628976883
-62.061493858243686
-49.17067215991455
-38.525978484779124
-27.100022888532845
-7.959105821316854
27.295338368810558
81.30006866559853
140.3830014496071
177.59060044251163
158.3520256351568
71.92492561226825
-49.75661860074769
-148.29327840085452
-176.5163653009842
-139.01579308766307
-75.04997329671168
-22.314793621728846
2.5879301136797133
7.861448081177996
5.71297779812314
6.494239719233997
12.45136186770428
17.43190661478599
19.87335011825742
19.58037689784085
19.678034637979707
21.338216220340275
20.947585259784848
19.775692378118563
18.310826276035705
20.068665598535134
25.342183566033416
29.346150911726557
32.178225375753414
32.86182955672541
32.86182955672541
34.0337224383917
36.182192721446555
41.358052948805984
47.51049057755398
53.85824368657969
59.03410391393912
59.522392614633404
55.61608300907912
45.654993514915695
32.6665140764477
21.24055848020142
10.693522545204852
1.8066681925688564
-6.6895551995117115
-13.720912489509422
-19.775692378118563
-27.588311589227132
-35.20561532005799
-42.529945830472265
-47.31517509727627
-47.31517509727627
-44.67841611352712
-40.86976424811169
-38.42832074464027
-34.81498435950255
-28.174258030060273
-21.728847180895706
-14.990463111314565
-9.033340962844282
-3.2715342946517127
2.490272373540856
5.908293278400855
7.861448081177996
6.591897459372854
3.36919203479057
0.04882887006942855
-4.052796215762569
-6.298924238956283
-7.861448081177996
-7.861448081177996
-5.517662317845426
-3.076218814373999
-0.04882887006942855
1.8066681925688564
5.420004577706569
12.84199282825971
21.24055848020142
30.71335927367056
39.79552910658427
50.14724956130312
61.768520637827116
69.48348210879682
70.4600595101854
62.45212481879911
47.21751735713741
26.709391927977418
0.8300907911802854
-25.146868085755703
-49.56130312046998
-69.58113984893568
-81.78835736629281
-85.49935149156939
-79.83520256351568
-69.58113984893568
-57.471580071717405
-45.26436255436027
-36.86579690241855
-30.029755092698558
-21.728847180895706
-3.5645075150682843
33.93606469825284
90.08926527809568
146.63309681849393
160.5981536583505
97.12062256809338
-29.053177691309987
-150.63706416418708
-195.65728236820019
-155.22697795071335
-75.14763103685054
-7.470817120622568
22.314793621728846
23.682001983672848
13.623254749370565
6.6895551995117115
6.884870679789426
9.130998702983138
12.353704127565424
15.381094071869994
18.701457236591136
22.21713588158999
23.87731746395056
25.146868085755703
24.95155260547799
25.342183566033416
28.564888990615703
32.27588311589227
36.768139162279695
39.99084458686198
42.236972610055695
44.67841611352712
46.33859769588769
48.68238345922026
49.85427634088655
49.75661860074769
49.85427634088655
49.26832990005341
48.68238345922026
42.33463035019455
30.029755092698558
16.943617914091707
5.127031357289998
-3.8574807354848555
-11.767757686732281
-18.11551079575799
-23.19371328297856
-29.541466392004274
-34.52201113908598
-39.307240405889985
-44.67841611352712
-50.04959182116426
-55.420767528801406
-57.178606851300835
-54.639505607690545
-46.43625543602655
-34.52201113908598
-26.123445487144274
-21.63118944075685
-19.58037689784085
-16.55298695353628
-11.572442206454566
-7.666132600900283
-4.150453955901427
-2.5879301136797133
-1.3183794918745708
1.416037232013428
3.5645075150682843
6.6895551995117115
9.619287403677424
11.08415350576028
10.302891584649425
5.517662317845426
1.0254062714579995
-1.7090104524299992
-0.537117570763714
5.224689097428855
11.767757686732281
19.678034637979707
27.97894254978256
37.35408560311284
47.21751735713741
52.588693064774546
52.588693064774546
46.72922865644312
37.256427862973986
23.974975204089418
3.662165255207141
-20.16632333867399
-44.38544289311055
-63.233386739909974
-72.5108720531014
-74.36636911573969
-70.36240177004655
-64.40527962157626
-56.49500267032883
-46.533913176165406
-39.20958266575113
-34.0337224383917
-29.541466392004274
-16.357671473258563
18.60379949645228
80.2258335240711
152.78553444724193
187.35637445639733
135.50011444266423
2.197299153124285
-139.30876630807964
-202.29800869764247
-169.19203479056992
-89.1126878767071
-20.361638818951704
10.400549324788281
13.81857022964828
6.982528419928283
2.9785610742351416
6.884870679789426
14.599832150759136
23.87731746395056
30.71335927367056
32.95948729686427
31.201647974364842
26.318760967421987
23.389028763256274
22.90074006256199
25.439841306172273
30.71335927367056
34.61966887922484
37.84237430380713
39.307240405889985
40.479133287556266
42.33463035019455
42.33463035019455
41.5533684290837
39.79552910658427
39.600213626306555
42.43228809033341
45.947966735332265
49.365987640192266
47.60814831769284
39.893186846723125
29.541466392004274
16.064698252841993
1.3183794918745708
-12.45136186770428
-22.21713588158999
-28.467231250476843
-35.303273060196844
-41.943999389639124
-49.75661860074769
-58.44815747310597
-65.8701457236591
-70.65537499046312
-69.77645532921339
-64.50293736171511
-54.54184786755169
-41.358052948805984
-31.00633249408713
-23.48668650339513
-18.701457236591136
-14.795147631036851
-11.08415350576028
-9.912260624093996
-9.130998702983138
-8.349736781872283
-5.127031357289998
1.9043259327077133
7.959105821316854
11.377126726176853
10.009918364232853
6.591897459372854
5.71297779812314
7.080186160067139
10.302891584649425
11.377126726176853
10.888838025482567
12.549019607843137
16.748302433813993
26.709391927977418
39.99084458686198
52.881666285191116
60.79194323643854
58.643472953383686
50.14724956130312
39.79552910658427
30.518043793392845
19.48271915770199
1.0254062714579995
-21.826504921034562
-45.75265125505455
-64.79591058213168
-74.26871137560083
-74.75700007629511
-67.23735408560312
-57.56923781185626
-48.09643701838712
-39.20958266575113
-34.22903791866941
-31.885252155336843
-30.127412832837415
-20.654612039368278
8.545052262149996
63.03807125963226
132.66803997863738
174.2702372777905
137.45326924544136
17.236591134508277
-123.29289692530709
-196.8291752498665
-175.1491569390402
-98.39017318989853
-23.974975204089418
16.84596017395285
28.467231250476843
23.58434424353399
14.892805371175708
10.79118028534371
10.79118028534371
15.185778591592278
21.338216220340275
26.61173418783856
27.97894254978256
22.803082322423133
16.650644693675137
13.13496604867628
16.357671473258563
26.22110322728313
35.69390402075227
41.45571068894484
41.74868390936141
38.818951705195694
34.61966887922484
27.783627069504846
23.48668650339513
26.318760967421987
38.62363622491798
53.760585946440834
60.108339055466544
56.49500267032883
46.04562447547112
33.545433737697415
22.021820401312276
11.377126726176853
4.248111696040284
-2.68558785381857
-13.623254749370565
-27.588311589227132
-40.08850232700084
-45.069047074082555
-47.11985961699855
-51.31914244296941
-56.7879758907454
-60.59662775616083
-59.42473487449455
-54.83482108796826
-45.16670481422141
-30.322728313115128
-18.60379949645228
-14.306858930342566
-16.16235599298085
-17.43190661478599
-13.525597009231708
-7.959105821316854
-3.8574807354848555
-5.517662317845426
-10.10757610437171
-11.279468986037996
-9.228656443121995
-6.005951018539712
-6.103608758678568
-8.642710002288853
-9.521629663538567
-7.861448081177996
-2.197299153124285
3.1738765545128556
5.517662317845426
6.201266498817426
8.05676356145571
17.13893339436942
30.322728313115128
41.651026169222554
49.951934081025406
54.83482108796826
56.690318150606544
51.22148470283055
38.33066300450141
20.068665598535134
-2.9785610742351416
-26.318760967421987
-47.998779278248264
-66.16311894407569
-79.05394064240483
-86.1829556725414
-83.93682764934768
-73.97573815518425
-58.1551842526894
-38.72129396505684
-22.510109102006563
-13.427939269092851
-13.623254749370565
-12.060730907148852
10.986495765621424
65.18654154268711
134.81651026169223
171.0475318532082
129.8359655146105
14.697489890897993
-115.9685664148928
-188.03997863736936
-175.34447241931792
-107.37468528267338
-35.4009308003357
5.908293278400855
17.82253757534142
14.11154345006485
8.05676356145571
5.71297779812314
5.908293278400855
8.838025482566568
11.47478446631571
13.427939269092851
15.674067292286564
16.45532921339742
17.334248874647134
17.920195315480278
21.045242999923705
27.002365148393988
29.834439612420844
30.71335927367056
31.494621194781413
33.252460517280845
34.22903791866941
30.811017013809415
26.709391927977418
23.19371328297856
22.314793621728846
25.049210345616846
28.95551995117113
35.10795757991913
40.772106507972836
42.43228809033341
37.64705882352941
24.65857938506142
9.912260624093996
-2.2949568932631417
-11.572442206454566
-20.263981078812847
-30.22507057297627
-35.10795757991913
-35.49858854047456
-36.0845349813077
-40.67444876783398
-49.951934081025406
-56.690318150606544
-56.7879758907454
-48.38941023880369
-35.010299839780274
-25.830472266727703
-20.45929655909056
-15.869382772564279
-8.252079041733426
1.2207217517357138
5.71297779812314
5.127031357289998
2.197299153124285
2.5879301136797133
7.861448081177996
12.45136186770428
15.088120851453422
14.990463111314565
13.330281528953995
10.595864805065995
3.8574807354848555
-3.9551384756237127
-10.595864805065995
-11.767757686732281
-6.201266498817426
0.8300907911802854
8.642710002288853
14.306858930342566
16.55298695353628
15.185778591592278
9.619287403677424
4.541084916456855
1.1230640115968566
-0.14648661020828566
0.24414435034714274
-0.43945983062485694
-0.7324330510414282
-1.1230640115968566
-0.537117570763714
2.2949568932631417
5.517662317845426
9.912260624093996
13.427939269092851
16.45532921339742
20.654612039368278
24.4632639047837
30.029755092698558
35.4009308003357
39.014267185473415
40.08850232700084
35.303273060196844
25.830472266727703
13.037308308537423
0.7324330510414282
-9.81460288395514
-22.705424582284277
-36.86579690241855
-51.22148470283055
-60.694285496299685
-60.49897001602197
-53.27229724574655
-41.84634164950027
-32.27588311589227
-26.025787747005417
-19.48271915770199
-7.568474860761425
21.14290074006256
71.53429465171283
133.64461738002595
174.4655527580682
148.48859388113223
45.45967803463798
-89.89394979781795
-183.1570916304265
-191.94628824292363
-134.13290608072023
-56.1043717097734
1.1230640115968566
25.63515678644999
27.002365148393988
17.627222095063708
10.10757610437171
7.666132600900283
10.205233844510566
15.381094071869994
18.017853055619135
19.18974593728542
18.701457236591136
18.017853055619135
18.60379949645228
19.287403677424276
21.24055848020142
21.92416266117342
20.947585259784848
20.45929655909056
19.678034637979707
22.119478141451133
27.002365148393988
32.95948729686427
38.72129396505684
41.26039520866713
43.11589227130541
44.38544289311055
44.38544289311055
42.72526131074998
38.33066300450141
33.74074921797513
26.709391927977418
16.943617914091707
6.982528419928283
-3.2715342946517127
-11.572442206454566
-17.627222095063708
-21.63118944075685
-25.63515678644999
-32.27588311589227
-37.35408560311284
-39.5025558861677
-39.014267185473415
-36.475165941863125
-34.91264209964141
-33.252460517280845
-32.27588311589227
-30.518043793392845
-26.514076447699704
-22.314793621728846
-15.771725032425422
-8.545052262149996
-3.466849774929427
-1.416037232013428
-2.2949568932631417
-1.7090104524299992
-0.34180209048599985
0.14648661020828566
-0.34180209048599985
-3.662165255207141
-5.127031357289998
-4.052796215762569
-1.3183794918745708
1.513694972152285
1.6113527122911422
1.1230640115968566
-0.24414435034714274
-1.7090104524299992
-1.8066681925688564
-2.783245593957427
-2.2949568932631417
0.6347753109025711
7.470817120622568
18.310826276035705
28.66254673075456
37.94003204394598
45.55733577477684
51.80743114366369
55.81139848935683
52.19806210421912
41.358052948805984
23.974975204089418
5.322346837567712
-8.74036774242771
-20.752269779507134
-32.471198596169984
-46.533913176165406
-58.936446173800256
-64.20996414129854
-63.13572899977112
-56.006713969634546
-47.0222018768597
-38.525978484779124
-30.908674753948272
-26.025787747005417
-17.920195315480278
1.416037232013428
43.50652323186084
111.28099488822767
177.8835736629282
190.8720531013962
105.90981918059052
-52.6863508049134
-194.09475852597848
-241.1657892729076
-188.43060959792479
-94.09323262378882
-16.55298695353628
22.705424582284277
30.420386053253985
26.025787747005417
20.84992751964599
18.994430457007706
19.18974593728542
18.21316853589685
18.506141756313422
19.971007858396277
22.90074006256199
27.100022888532845
28.760204470893417
29.9320973525597
32.37354085603113
36.27985046158541
38.818951705195694
35.79156176089113
30.322728313115128
25.24452582589456
23.682001983672848
27.588311589227132
33.545433737697415
40.67444876783398
46.33859769588769
50.73319600213626
54.44419012741283
53.66292820630198
49.658960860608836
43.89715419241627
37.4517433432517
29.541466392004274
18.799114976729992
7.666132600900283
-5.517662317845426
-20.263981078812847
-33.252460517280845
-44.97138933394369
-54.44419012741283
-61.67086289768826
-64.20996414129854
-60.8896009765774
-56.20202944991226
-50.34256504158083
-44.873731593804834
-39.893186846723125
-34.52201113908598
-29.443808651865414
-21.92416266117342
-14.990463111314565
-10.693522545204852
-8.642710002288853
-9.619287403677424
-9.619287403677424
-8.154421301594567
-6.103608758678568
-5.224689097428855
-8.154421301594567
-10.595864805065995
-10.498207064927138
-6.005951018539712
2.392614633401999
10.009918364232853
16.064698252841993
18.994430457007706
18.017853055619135
13.720912489509422
5.71297779812314
-1.1230640115968566
-5.322346837567712
-4.541084916456855
2.0019836728465705
10.10757610437171
19.58037689784085
30.029755092698558
41.651026169222554
52.49103532463569
56.20202944991226
53.66292820630198
46.63157091630426
37.256427862973986
25.342183566033416
7.861448081177996
-12.353704127565424
-34.131380178530556
-53.760585946440834
-66.55374990463112
-72.5108720531014
-71.1436636911574
-66.06546120393683
-58.54581521324483
-48.78004119935912
-40.38147554741741
-32.95948729686427
-27.588311589227132
-21.045242999923705
-2.783245593957427
37.94003204394598
105.51918822003509
172.0241092545968
181.9851987487602
97.3159380483711
-53.760585946440834
-180.9109636072328
-214.70054169527734
-159.32860303654536
-72.31555657282368
-9.619287403677424
15.576409552147707
15.967040512703136
10.205233844510566
9.619287403677424
13.13496604867628
18.89677271686885
22.90074006256199
24.4632639047837
25.24452582589456
25.92813000686656
30.22507057297627
35.303273060196844
37.256427862973986
35.79156176089113
31.00633249408713
27.49065384908827
26.22110322728313
27.49065384908827
29.9320973525597
30.322728313115128
31.201647974364842
33.05714503700313
35.20561532005799
36.67048142214084
37.549401083390556
42.62760357061112
49.365987640192266
52.295719844357976
48.19409475852598
34.22903791866941
16.55298695353628
1.8066681925688564
-6.494239719233997
-11.865415426871138
-20.16632333867399
-28.760204470893417
-35.596246280613414
-40.96742198825055
-47.998779278248264
-60.108339055466544
-71.1436636911574
-74.75700007629511
-67.62798504615854
-53.66292820630198
-43.018234531166556
-36.57282368200198
-31.494621194781413
-24.853894865339132
-16.357671473258563
-10.498207064927138
-7.470817120622568
-8.642710002288853
-10.009918364232853
-5.224689097428855
2.9785610742351416
10.498207064927138
12.256046387426567
10.205233844510566
8.545052262149996
6.494239719233997
4.052796215762569
-0.24414435034714274
-3.466849774929427
-0.7324330510414282
4.931715877012284
11.47478446631571
15.771725032425422
18.310826276035705
19.775692378118563
18.21316853589685
17.82253757534142
20.361638818951704
25.342183566033416
28.760204470893417
24.4632639047837
14.404516670481422
1.3183794918745708
-11.08415350576028
-20.16632333867399
-27.295338368810558
-31.396963454642556
-36.0845349813077
-42.236972610055695
-46.63157091630426
-47.51049057755398
-41.5533684290837
-33.05714503700313
-28.369573510337986
-29.443808651865414
-33.252460517280845
-25.439841306172273
6.39658197909514
68.4092469672694
147.8049897001602
202.59098191805904
183.8406958113985
73.19447623407339
-81.00709544518196
-193.41115434500648
-215.77477683680476
-161.77004654001678
-84.62043183031967
-25.830472266727703
4.638742656595713
15.576409552147707
21.24055848020142
25.537499046311133
26.025787747005417
21.63118944075685
13.13496604867628
7.568474860761425
6.591897459372854
9.71694514381628
16.064698252841993
21.728847180895706
27.295338368810558
31.68993667505913
33.252460517280845
29.834439612420844
21.826504921034562
17.43190661478599
19.48271915770199
25.830472266727703
32.6665140764477
36.37750820172427
39.600213626306555
41.358052948805984
40.28381780727855
37.84237430380713
33.545433737697415
29.346150911726557
24.4632639047837
19.971007858396277
17.041275654230564
11.670099946593423
4.443427176317998
-4.052796215762569
-12.84199282825971
-23.974975204089418
-40.186160067139696
-54.24887464713512
-61.37788967727169
-61.475547417410546
-58.25284199282826
-55.61608300907912
-50.04959182116426
-41.651026169222554
-33.05714503700313
-26.025787747005417
-22.314793621728846
-18.60379949645228
-15.283436331731137
-11.181811245899137
-4.834058136873426
0.537117570763714
5.420004577706569
8.05676356145571
8.349736781872283
6.6895551995117115
2.68558785381857
0.537117570763714
-0.14648661020828566
0.04882887006942855
2.68558785381857
5.0293736171511405
6.591897459372854
4.443427176317998
-0.9277485313191425
-6.103608758678568
-10.400549324788281
-11.181811245899137
-10.79118028534371
-9.912260624093996
-7.275501640344854
-5.810635538261997
-3.9551384756237127
-0.537117570763714
6.884870679789426
17.43190661478599
25.732814526588847
32.178225375753414
37.06111238269627
40.186160067139696
41.065079728389414
37.549401083390556
33.15480277714199
26.90470740825513
17.724879835202564
5.0293736171511405
-12.549019607843137
-30.811017013809415
-47.998779278248264
-60.401312275883114
-64.60059510185397
-61.475547417410546
-50.83085374227512
-38.72129396505684
-30.71335927367056
-27.100022888532845
-23.58434424353399
-6.201266498817426
34.32669565880827
97.21828030823224
162.55130846112763
189.3095292591745
143.21507591363394
24.4632639047837
-112.45288776989395
-195.07133592736704
-193.6064698252842
-130.91020065613793
-56.7879758907454
-6.298924238956283
14.013885709925994
13.037308308537423
7.666132600900283
6.103608758678568
9.130998702983138
13.81857022964828
15.674067292286564
16.45532921339742
15.576409552147707
15.381094071869994
19.092088197146563
23.974975204089418
28.857862211032273
31.201647974364842
31.00633249408713
29.346150911726557
25.146868085755703
21.533531700617992
18.506141756313422
17.236591134508277
18.60379949645228
20.947585259784848
26.416418707560844
33.3501182574197
39.79552910658427
43.70183871213855
41.26039520866713
35.20561532005799
28.27191577019913
23.291371023117417
20.068665598535134
15.185778591592278
9.521629663538567
1.9043259327077133
-7.568474860761425
-18.21316853589685
-30.811017013809415
-41.84634164950027
-49.26832990005341
-51.123826962691695
-47.80346379797055
-44.38544289311055
-40.28381780727855
-35.4009308003357
-29.346150911726557
-22.314793621728846
-17.724879835202564
-14.209201190203707
-12.158388647287708
-10.498207064927138
-7.470817120622568
-4.638742656595713
0.04882887006942855
5.420004577706569
10.205233844510566
13.623254749370565
13.427939269092851
11.963073167009995
9.326314183260854
6.201266498817426
4.541084916456855
2.2949568932631417
0.14648661020828566
-2.490272373540856
-3.7598229953459983
0.04882887006942855
7.470817120622568
19.18974593728542
31.103990234225986
41.065079728389414
48.38941023880369
50.04959182116426
45.75265125505455
34.32669565880827
19.48271915770199
6.6895551995117115
-5.0293736171511405
-15.47875181200885
-25.732814526588847
-34.32669565880827
-40.86976424811169
-47.998779278248264
-51.416800183108265
-48.291752498664835
-39.5025558861677
-29.443808651865414
-25.732814526588847
-27.783627069504846
-30.811017013809415
-21.338216220340275
15.967040512703136
82.56961928740368
157.57076371404594
191.75097276264592
141.55489433127337
11.670099946593423
-136.76966506446936
-221.6342412451362
-209.3293659876402
-130.91020065613793
-43.99481193255512
10.10757610437171
28.564888990615703
24.95155260547799
16.064698252841993
11.08415350576028
8.642710002288853
9.228656443121995
11.572442206454566
16.16235599298085
23.19371328297856
27.783627069504846
29.443808651865414
27.49065384908827
24.4632639047837
24.560921644922562
27.783627069504846
34.91264209964141
41.26039520866713
44.19012741283284
45.16670481422141
44.580758373388264
45.26436255436027
45.75265125505455
45.45967803463798
44.38544289311055
40.186160067139696
36.37750820172427
34.717326619363696
33.44777599755856
28.66254673075456
17.52956435492485
5.0293736171511405
-7.177843900205997
-18.017853055619135
-26.025787747005417
-34.22903791866941
-41.943999389639124
-49.75661860074769
-55.713740749217976
-58.8387884336614
-61.37788967727169
-60.49897001602197
-56.20202944991226
-49.658960860608836
-41.84634164950027
-34.91264209964141
-26.123445487144274
-17.041275654230564
-9.228656443121995
-2.8809033340962844
-0.43945983062485694
1.0254062714579995
2.68558785381857
5.71297779812314
9.42397192339971
10.302891584649425
10.302891584649425
8.935683222705425
7.080186160067139
6.982528419928283
7.568474860761425
11.181811245899137
16.748302433813993
23.389028763256274
29.63912413214313
33.05714503700313
38.33066300450141
46.14328221560998
52.881666285191116
52.97932402532997
42.43228809033341
25.537499046311133
4.150453955901427
-18.89677271686885
-41.065079728389414
-61.86617837796597
-77.19844357976653
-84.91340505073624
-83.35088120851454
-74.07339589532312
-63.42870222018769
-52.39337758449683
-43.018234531166556
-36.0845349813077
-30.908674753948272
-25.146868085755703
-5.71297779812314
39.20958266575113
107.96063172350652
170.26626993209734
174.4655527580682
92.82368200198367
-45.85030899519341
-162.74662394140535
-194.09475852597848
-146.2424658579385
-70.26474402990769
-14.306858930342566
8.74036774242771
12.549019607843137
10.595864805065995
13.037308308537423
19.092088197146563
24.756237125200276
27.68596932936599
27.68596932936599
29.9320973525597
33.44777599755856
36.475165941863125
39.11192492561227
39.40489814602884
40.479133287556266
42.529945830472265
44.09246967269398
43.311207751583126
38.23300526436255
34.131380178530556
34.424353398947126
40.86976424811169
51.416800183108265
58.350499732967116
59.42473487449455
54.053559166857404
46.33859769588769
39.600213626306555
30.615701533531702
20.45929655909056
10.888838025482567
3.7598229953459983
-1.513694972152285
-7.861448081177996
-13.232623788815136
-18.994430457007706
-25.732814526588847
-33.838406958113985
-45.069047074082555
-56.1043717097734
-65.18654154268711
-68.89753566796368
-65.57717250324254
-59.32707713435569
-50.73319600213626
-42.43228809033341
-35.889219501029984
-31.592278934920273
-31.00633249408713
-29.736781872281988
-25.830472266727703
-17.236591134508277
-4.052796215762569
7.763790341039139
16.16235599298085
18.799114976729992
16.357671473258563
11.279468986037996
4.150453955901427
-0.04882887006942855
-1.7090104524299992
-1.0254062714579995
1.513694972152285
2.9785610742351416
4.541084916456855
6.591897459372854
11.670099946593423
22.803082322423133
36.37750820172427
49.85427634088655
58.44815747310597
60.2059967956054
55.90905622949569
44.48310063324941
29.2484931715877
10.10757610437171
-11.865415426871138
-33.252460517280845
-52.881666285191116
-67.62798504615854
-77.58907454032196
-79.24925612268254
-69.87411306935225
-55.420767528801406
-41.16273746852827
-31.494621194781413
-25.830472266727703
-21.728847180895706
-17.52956435492485
-1.9043259327077133
37.35408560311284
101.02693217364767
159.2309452964065
157.8637369344625
71.53429465171283
-63.13572899977112
-165.1880674448768
-181.49691004806593
-130.12893873502708
-60.2059967956054
-9.228656443121995
14.404516670481422
18.89677271686885
13.13496604867628
8.838025482566568
11.08415350576028
18.506141756313422
25.439841306172273
23.974975204089418
16.064698252841993
7.763790341039139
7.861448081177996
18.11551079575799
29.150835431448844
36.96345464255741
40.67444876783398
41.943999389639124
42.236972610055695
40.86976424811169
41.84634164950027
43.89715419241627
44.77607385366598
44.19012741283284
41.065079728389414
37.549401083390556
33.05714503700313
30.420386053253985
31.00633249408713
29.2484931715877
24.072632944228275
17.236591134508277
11.963073167009995
8.252079041733426
1.3183794918745708
-8.935683222705425
-23.58434424353399
-40.38147554741741
-55.51842526894026
-67.82330052643626
-74.07339589532312
-74.85465781643397
-69.58113984893568
-58.8387884336614
-47.998779278248264
-38.42832074464027
-30.811017013809415
-23.974975204089418
-16.45532921339742
-9.521629663538567
-1.9043259327077133
2.9785610742351416
5.322346837567712
8.05676356145571
10.10757610437171
11.377126726176853
10.498207064927138
9.81460288395514
10.693522545204852
9.228656443121995
6.591897459372854
3.076218814373999
1.0254062714579995
2.2949568932631417
4.931715877012284
10.10757610437171
14.795147631036851
17.236591134508277
18.40848401617456
19.385061417563133
25.439841306172273
33.15480277714199
36.27985046158541
32.471198596169984
23.19371328297856
13.81857022964828
2.392614633401999
-14.404516670481422
-35.98687724116884
-58.8387884336614
-73.3897917143511
-75.44060425726711
-66.3584344243534
-52.881666285191116
-44.19012741283284
-39.99084458686198
-37.94003204394598
-34.22903791866941
-25.830472266727703
-11.377126726176853
17.334248874647134
65.96780346379796
127.39452201113909
171.43816281376363
155.8129243915465
68.70222018768597
-55.713740749217976
-153.85976958876935
-181.1062790875105
-143.70336461432822
-78.6633096818494
-24.853894865339132
4.052796215762569
15.674067292286564
17.52956435492485
17.43190661478599
19.092088197146563
24.365606164644845
28.857862211032273
25.146868085755703
17.627222095063708
11.963073167009995
12.353704127565424
18.310826276035705
22.803082322423133
25.146868085755703
26.807049668116274
30.518043793392845
34.32669565880827
32.56885633630884
28.369573510337986
25.63515678644999
27.002365148393988
32.471198596169984
38.42832074464027
44.580758373388264
46.533913176165406
42.822919050888835
35.98687724116884
27.295338368810558
20.84992751964599
16.45532921339742
12.74433508812085
7.666132600900283
-1.6113527122911422
-12.256046387426567
-23.682001983672848
-33.74074921797513
-39.79552910658427
-42.92057679102769
-42.92057679102769
-43.11589227130541
-43.21355001144427
-40.08850232700084
-34.91264209964141
-27.881284809643702
-22.412451361867703
-18.310826276035705
-13.037308308537423
-7.080186160067139
0.14648661020828566
4.541084916456855
4.541084916456855
2.9785610742351416
0.14648661020828566
-0.9277485313191425
-1.3183794918745708
-0.34180209048599985
1.8066681925688564
2.490272373540856
3.7598229953459983
4.345769436179141
3.8574807354848555
2.68558785381857
-0.14648661020828566
-1.2207217517357138
-0.14648661020828566
2.5879301136797133
4.150453955901427
-0.04882887006942855
-6.39658197909514
-10.986495765621424
-11.08415350576028
-6.982528419928283
-3.9551384756237127
-2.0019836728465705
-1.416037232013428
-0.6347753109025711
1.0254062714579995
1.7090104524299992
3.36919203479057
4.736400396734569
6.298924238956283
10.498207064927138
16.260013733119706
24.267948424505988
31.787594415197987
38.33066300450141
42.43228809033341
39.11192492561227
31.00633249408713
21.045242999923705
11.47478446631571
2.197299153124285
-8.74036774242771
-18.89677271686885
-28.857862211032273
-38.33066300450141
-45.85030899519341
-51.80743114366369
-52.19806210421912
-47.51049057755398
-39.40489814602884
-30.615701533531702
-24.17029068436713
-13.623254749370565
9.619287403677424
53.17463950560769
110.49973296711681
149.95345998321508
135.20714122224766
51.31914244296941
-69.38582436865796
-165.09040970473794
-192.33691920347906
-151.32066834515908
-82.0813305867094
-23.779659723811704
7.568474860761425
15.088120851453422
14.013885709925994
12.74433508812085
13.81857022964828
17.82253757534142
21.43587396047913
25.342183566033416
27.881284809643702
28.174258030060273
25.92813000686656
19.87335011825742
15.674067292286564
14.404516670481422
16.16235599298085
21.533531700617992
28.076600289921416
34.91264209964141
37.64705882352941
35.889219501029984
32.471198596169984
28.95551995117113
29.150835431448844
31.885252155336843
35.010299839780274
38.33066300450141
40.28381780727855
41.45571068894484
37.84237430380713
29.834439612420844
21.533531700617992
12.646677347981994
4.541084916456855
-3.7598229953459983
-11.865415426871138
-18.701457236591136
-25.146868085755703
-28.369573510337986
-30.420386053253985
-33.64309147783627
-39.5025558861677
-48.291752498664835
-53.95590142671855
-54.346532387273975
-47.51049057755398
-33.93606469825284
-20.16632333867399
-10.009918364232853
-6.884870679789426
-8.154421301594567
-9.619287403677424
-10.595864805065995
-8.154421301594567
-4.638742656595713
-1.2207217517357138
2.392614633401999
4.345769436179141
5.71297779812314
5.615320057984283
4.931715877012284
3.662165255207141
-0.7324330510414282
-5.127031357289998
-8.642710002288853
-9.619287403677424
-6.39658197909514
-0.6347753109025711
8.154421301594567
16.943617914091707
24.365606164644845
31.396963454642556
37.84237430380713
45.362020294499125
49.365987640192266
46.92454413672083
39.5025558861677
27.881284809643702
15.283436331731137
2.197299153124285
-9.42397192339971
-21.045242999923705
-36.96345464255741
-53.27229724574655
-66.06546120393683
-70.36240177004655
-63.819333180743115
-51.90508888380255
-38.818951705195694
-29.834439612420844
-25.537499046311133
-23.096055542839704
-14.599832150759136
17.43190661478599
79.83520256351568
152.10193026626993
185.69619287403677
135.1094834821088
7.080186160067139
-135.69542992294194
-214.01693751430534
-197.21980621042192
-122.6092927443351
-44.67841611352712
2.490272373540856
18.506141756313422
18.506141756313422
14.013885709925994
12.158388647287708
12.74433508812085
14.599832150759136
16.357671473258563
16.260013733119706
18.506141756313422
22.314793621728846
27.100022888532845
32.471198596169984
35.20561532005799
36.27985046158541
35.303273060196844
33.93606469825284
32.95948729686427
31.201647974364842
31.494621194781413
33.545433737697415
37.94003204394598
43.99481193255512
47.60814831769284
48.78004119935912
46.533913176165406
43.50652323186084
41.065079728389414
35.79156176089113
28.95551995117113
21.43587396047913
13.623254749370565
4.736400396734569
-6.494239719233997
-17.82253757534142
-30.615701533531702
-43.604180971999696
-54.44419012741283
-63.526359960326545
-68.70222018768597
-71.33897917143511
-71.24132143129626
-68.31158922713054
-64.69825284199283
-57.86221103227283
-48.09643701838712
-35.596246280613414
-21.533531700617992
-10.498207064927138
-2.0996414129854277
2.0019836728465705
3.8574807354848555
6.982528419928283
10.693522545204852
15.185778591592278
17.52956435492485
16.943617914091707
13.623254749370565
6.39658197909514
-1.3183794918745708
-9.130998702983138
-13.330281528953995
-10.693522545204852
-5.420004577706569
-0.24414435034714274
1.6113527122911422
2.392614633401999
4.052796215762569
4.248111696040284
4.541084916456855
3.8574807354848555
3.5645075150682843
6.787212939650568
11.767757686732281
18.11551079575799
23.58434424353399
30.22507057297627
39.307240405889985
45.26436255436027
45.654993514915695
38.818951705195694
27.392996108949415
14.892805371175708
1.513694972152285
-10.400549324788281
-23.291371023117417
-36.96345464255741
-48.68238345922026
-56.20202944991226
-55.420767528801406
-48.78004119935912
-38.72129396505684
-27.68596932936599
-21.045242999923705
-18.60379949645228
-15.674067292286564
0.14648661020828566
40.479133287556266
102.00350957503625
162.74662394140535
175.6374456397345
103.66369115739681
-34.424353398947126
-163.13725490196077
-207.18089570458534
-160.50049591821164
-73.78042267490653
-2.9785610742351416
25.146868085755703
22.119478141451133
9.228656443121995
2.783245593957427
5.322346837567712
7.763790341039139
8.935683222705425
10.79118028534371
15.576409552147707
20.55695429922942
20.55695429922942
18.11551079575799
13.81857022964828
10.302891584649425
10.302891584649425
11.963073167009995
16.16235599298085
20.84992751964599
26.416418707560844
32.56885633630884
36.67048142214084
40.86976424811169
43.99481193255512
46.72922865644312
49.951934081025406
52.19806210421912
53.36995498588541
50.34256504158083
45.16670481422141
40.28381780727855
32.471198596169984
21.338216220340275
6.884870679789426
-8.642710002288853
-23.779659723811704
-37.84237430380713
-46.63157091630426
-51.416800183108265
-53.95590142671855
-54.44419012741283
-54.24887464713512
-53.07698176546884
-54.24887464713512
-54.54184786755169
-49.365987640192266
-40.772106507972836
-30.420386053253985
-20.752269779507134
-11.377126726176853
-3.36919203479057
0.43945983062485694
3.36919203479057
5.908293278400855
10.009918364232853
15.47875181200885
17.041275654230564
14.11154345006485
8.935683222705425
6.494239719233997
7.275501640344854
7.666132600900283
9.619287403677424
13.13496604867628
19.87335011825742
32.37354085603113
46.92454413672083
57.764553292133975
56.690318150606544
44.38544289311055
26.90470740825513
6.298924238956283
-14.795147631036851
-36.86579690241855
-56.20202944991226
-68.31158922713054
-72.70618753337911
-68.11627374685283
-58.936446173800256
-49.56130312046998
-43.604180971999696
-43.40886549172198
-44.28778515297169
-43.70183871213855
-37.74471656366827
-20.45929655909056
13.525597009231708
69.87411306935225
135.40245670252537
173.00068665598536
138.7228198672465
24.65857938506142
-110.40207522697796
-189.89547570000764
-182.08285648889907
-117.04280155642023
-47.31517509727627
-0.7324330510414282
18.60379949645228
21.92416266117342
19.971007858396277
17.041275654230564
17.041275654230564
16.650644693675137
14.795147631036851
14.013885709925994
15.185778591592278
20.361638818951704
26.807049668116274
32.178225375753414
34.424353398947126
31.68993667505913
28.95551995117113
27.68596932936599
28.564888990615703
29.63912413214313
26.90470740825513
23.779659723811704
22.803082322423133
26.90470740825513
34.22903791866941
38.33066300450141
38.525978484779124
34.717326619363696
29.834439612420844
26.416418707560844
23.682001983672848
22.021820401312276
17.334248874647134
8.252079041733426
-3.1738765545128556
-17.13893339436942
-30.908674753948272
-44.77607385366598
-55.61608300907912
-60.694285496299685
-62.35446707866026
-59.42473487449455
-53.95590142671855
-47.51049057755398
-42.236972610055695
-40.57679102769512
-38.1353475242237
-33.74074921797513
-26.61173418783856
-17.334248874647134
-9.326314183260854
-0.7324330510414282
8.05676356145571
16.748302433813993
21.14290074006256
16.260013733119706
7.666132600900283
0.14648661020828566
-3.466849774929427
-3.2715342946517127
-1.1230640115968566
4.736400396734569
10.595864805065995
12.939650568398566
11.181811245899137
6.39658197909514
2.68558785381857
-0.7324330510414282
-2.2949568932631417
0.04882887006942855
2.392614633401999
3.36919203479057
1.416037232013428
-0.7324330510414282
-1.2207217517357138
-1.8066681925688564
-1.1230640115968566
-2.197299153124285
-4.736400396734569
-3.8574807354848555
2.490272373540856
13.427939269092851
21.43587396047913
26.514076447699704
32.56885633630884
38.03768978408484
41.358052948805984
38.818951705195694
32.764171816586554
26.22110322728313
18.310826276035705
10.009918364232853
-1.2207217517357138
-15.088120851453422
-30.420386053253985
-47.11985961699855
-58.936446173800256
-63.03807125963226
-57.178606851300835
-43.40886549172198
-29.9320973525597
-19.385061417563133
-12.549019607843137
-2.9785610742351416
17.43190661478599
54.932478828107115
112.5505455100328
167.04356450751507
172.51239795529108
95.55809872587167
-42.13931486991684
-165.09040970473794
-211.5754940108339
-175.6374456397345
-100.14801251239795
-36.475165941863125
-4.638742656595713
-0.04882887006942855
-5.615320057984283
-7.666132600900283
-3.5645075150682843
6.787212939650568
18.89677271686885
29.541466392004274
35.69390402075227
34.0337224383917
29.346150911726557
24.267948424505988
22.60776684214542
25.830472266727703
29.2484931715877
31.68993667505913
31.494621194781413
31.103990234225986
31.787594415197987
31.103990234225986
31.2993057145037
32.37354085603113
35.010299839780274
39.11192492561227
41.5533684290837
42.529945830472265
40.08850232700084
35.889219501029984
31.9829098954757
26.22110322728313
19.971007858396277
12.646677347981994
4.834058136873426
-3.466849774929427
-13.037308308537423
-20.654612039368278
-28.564888990615703
-37.06111238269627
-44.77607385366598
-51.51445792324712
-53.66292820630198
-52.39337758449683
-47.21751735713741
-38.23300526436255
-29.346150911726557
-20.752269779507134
-14.50217441062028
-10.205233844510566
-7.275501640344854
-7.177843900205997
-6.884870679789426
-6.591897459372854
-3.7598229953459983
2.9785610742351416
10.10757610437171
15.576409552147707
16.064698252841993
13.427939269092851
10.009918364232853
5.908293278400855
3.8574807354848555
2.68558785381857
3.36919203479057
6.494239719233997
8.545052262149996
8.642710002288853
6.103608758678568
5.420004577706569
10.595864805065995
18.799114976729992
29.053177691309987
36.768139162279695
39.600213626306555
37.549401083390556
30.518043793392845
21.92416266117342
10.693522545204852
-2.197299153124285
-14.599832150759136
-26.61173418783856
-37.15877012283513
-48.97535667963683
-59.815365835049974
-65.57717250324254
-65.38185702296482
-57.56923781185626
-46.63157091630426
-36.0845349813077
-28.760204470893417
-25.732814526588847
-16.260013733119706
10.302891584649425
62.84275577935454
134.62119478141452
188.6259250782025
175.53978789959564
70.65537499046312
-80.03051804379339
-188.91889829861907
-204.73945220111392
-144.38696879530022
-65.8701457236591
-11.670099946593423
9.71694514381628
9.619287403677424
6.103608758678568
7.080186160067139
13.427939269092851
20.361638818951704
22.412451361867703
22.705424582284277
21.63118944075685
21.63118944075685
24.4632639047837
27.783627069504846
32.27588311589227
36.37750820172427
39.5025558861677
39.79552910658427
34.717326619363696
29.2484931715877
26.22110322728313
27.68596932936599
32.27588311589227
35.20561532005799
36.67048142214084
36.768139162279695
39.20958266575113
44.67841611352712
47.0222018768597
43.79949645227741
34.81498435950255
24.365606164644845
15.283436331731137
7.763790341039139
2.9785610742351416
-3.7598229953459983
-13.81857022964828
-25.439841306172273
-39.014267185473415
-51.51445792324712
-61.67086289768826
-65.57717250324254
-62.54978255893797
-57.37392233157855
-49.46364538033112
-40.08850232700084
-30.811017013809415
-24.560921644922562
-23.48668650339513
-21.728847180895706
-18.11551079575799
-12.353704127565424
-5.224689097428855
-0.34180209048599985
2.490272373540856
2.2949568932631417
0.8300907911802854
-0.14648661020828566
-2.2949568932631417
-2.9785610742351416
-2.9785610742351416
-0.6347753109025711
4.248111696040284
7.373159380483711
7.959105821316854
5.71297779812314
4.052796215762569
4.150453955901427
3.7598229953459983
4.834058136873426
6.201266498817426
8.935683222705425
13.232623788815136
17.041275654230564
21.338216220340275
24.365606164644845
27.100022888532845
30.322728313115128
32.37354085603113
34.52201113908598
33.545433737697415
28.95551995117113
22.412451361867703
14.013885709925994
5.810635538261997
-3.7598229953459983
-13.427939269092851
-23.291371023117417
-37.74471656366827
-53.17463950560769
-64.01464866102083
-63.33104448004883
-52.6863508049134
-42.236972610055695
-35.79156176089113
-34.22903791866941
-32.37354085603113
-22.21713588158999
4.345769436179141
58.25284199282826
131.98443579766536
191.06736858167392
184.5242999923705
87.7454795147631
-57.95986877241169
-174.75852597848478
-204.3488212405585
-153.0785076676585
-75.44060425726711
-17.52956435492485
4.834058136873426
4.931715877012284
0.7324330510414282
-1.1230640115968566
0.6347753109025711
2.5879301136797133
4.638742656595713
7.861448081177996
11.08415350576028
16.45532921339742
22.119478141451133
26.807049668116274
29.63912413214313
29.2484931715877
29.63912413214313
30.908674753948272
32.6665140764477
33.545433737697415
31.787594415197987
32.08056763561456
35.303273060196844
40.67444876783398
46.33859769588769
51.02616922255284
57.56923781185626
61.28023193713283
58.936446173800256
51.31914244296941
39.11192492561227
27.100022888532845
17.236591134508277
10.400549324788281
4.248111696040284
-3.662165255207141
-11.08415350576028
-19.678034637979707
-30.518043793392845
-43.40886549172198
-58.057526512550545
-69.28816662851911
-75.53826199740597
-74.46402685587854
-66.84672312504769
-57.471580071717405
-46.72922865644312
-37.256427862973986
-29.541466392004274
-23.682001983672848
-19.385061417563133
-12.158388647287708
-4.834058136873426
0.14648661020828566
3.1738765545128556
4.345769436179141
7.080186160067139
9.42397192339971
10.400549324788281
8.545052262149996
2.0019836728465705
-4.345769436179141
-7.275501640344854
-3.2715342946517127
6.005951018539712
11.865415426871138
11.767757686732281
6.201266498817426
2.0019836728465705
4.541084916456855
11.572442206454566
21.43587396047913
29.150835431448844
34.717326619363696
38.91660944533455
37.06111238269627
28.174258030060273
13.623254749370565
0.24414435034714274
-8.642710002288853
-17.52956435492485
-27.100022888532845
-37.15877012283513
-43.40886549172198
-44.97138933394369
-47.0222018768597
-48.48706797894255
-46.92454413672083
-38.03768978408484
-24.853894865339132
-16.260013733119706
-13.13496604867628
-10.986495765621424
2.8809033340962844
43.21355001144427
107.86297398336767
164.99275196459908
156.78950179293508
58.44815747310597
-82.56961928740368
-181.00862134737164
-184.9149309529259
-119.97253376058595
-45.069047074082555
2.0019836728465705
18.11551079575799
19.18974593728542
14.990463111314565
10.79118028534371
9.130998702983138
9.42397192339971
12.353704127565424
13.427939269092851
12.939650568398566
13.916227969787137
15.967040512703136
18.799114976729992
19.287403677424276
18.506141756313422
18.89677271686885
20.16632333867399
23.389028763256274
24.756237125200276
25.049210345616846
28.66254673075456
36.27985046158541
46.33859769588769
51.80743114366369
52.002746623941405
49.85427634088655
45.45967803463798
40.67444876783398
34.131380178530556
27.1976806286717
20.84992751964599
12.84199282825971
2.8809033340962844
-11.377126726176853
-26.709391927977418
-38.62363622491798
-47.51049057755398
-52.78400854505226
-56.59266041046769
-57.66689555199512
-56.29968719005112
-56.983291371023114
-57.95986877241169
-56.49500267032883
-49.56130312046998
-38.91660944533455
-29.736781872281988
-20.752269779507134
-13.720912489509422
-9.326314183260854
-6.005951018539712
-2.392614633401999
5.127031357289998
12.256046387426567
14.306858930342566
10.302891584649425
3.1738765545128556
-0.24414435034714274
-2.392614633401999
-5.517662317845426
-7.861448081177996
-6.201266498817426
1.9043259327077133
8.05676356145571
5.224689097428855
-3.466849774929427
-9.42397192339971
-3.7598229953459983
8.252079041733426
18.799114976729992
24.560921644922562
27.392996108949415
34.32669565880827
43.604180971999696
50.34256504158083
49.658960860608836
39.11192492561227
24.17029068436713
8.154421301594567
-5.908293278400855
-18.40848401617456
-31.201647974364842
-40.96742198825055
-49.658960860608836
-58.057526512550545
-64.50293736171511
-66.55374990463112
-59.91302357518883
-48.19409475852598
-35.889219501029984
-26.416418707560844
-20.068665598535134
-5.517662317845426
29.443808651865414
90.87052719920653
158.74265659571222
185.01258869306477
132.47272449835967
10.400549324788281
-119.19127183947509
-190.8720531013962
-184.5242999923705
-124.56244754711223
-56.88563363088426
-10.986495765621424
6.982528419928283
3.36919203479057
-5.71297779812314
-9.130998702983138
-0.7324330510414282
13.720912489509422
21.533531700617992
20.654612039368278
15.576409552147707
12.84199282825971
13.427939269092851
14.306858930342566
18.21316853589685
22.998397802700847
27.49065384908827
31.592278934920273
32.56885633630884
31.787594415197987
29.541466392004274
29.736781872281988
34.61966887922484
41.16273746852827
48.19409475852598
51.61211566338598
51.123826962691695
49.17067215991455
45.947966735332265
41.065079728389414
30.029755092698558
15.674067292286564
4.931715877012284
-1.7090104524299992
-6.494239719233997
-13.427939269092851
-20.654612039368278
-26.123445487144274
-32.37354085603113
-38.23300526436255
-44.28778515297169
-47.998779278248264
-47.90112153810941
-45.85030899519341
-41.84634164950027
-38.72129396505684
-35.010299839780274
-27.97894254978256
-19.971007858396277
-10.888838025482567
-3.5645075150682843
2.197299153124285
7.861448081177996
11.865415426871138
15.381094071869994
16.064698252841993
14.697489890897993
14.013885709925994
12.84199282825971
11.47478446631571
7.275501640344854
1.8066681925688564
-2.0019836728465705
-4.150453955901427
-2.783245593957427
-0.9277485313191425
0.6347753109025711
2.0019836728465705
2.2949568932631417
5.420004577706569
10.595864805065995
15.967040512703136
18.799114976729992
16.84596017395285
14.892805371175708
15.088120851453422
20.654612039368278
31.787594415197987
42.43228809033341
47.80346379797055
42.822919050888835
30.420386053253985
16.357671473258563
0.8300907911802854
-13.13496604867628
-24.267948424505988
-29.736781872281988
-32.178225375753414
-37.74471656366827
-43.311207751583126
-46.63157091630426
-45.55733577477684
-40.67444876783398
-36.0845349813077
-32.471198596169984
-32.471198596169984
-30.420386053253985
-14.795147631036851
22.705424582284277
83.35088120851454
144.58228427557793
166.7505912870985
115.48027771419852
-5.127031357289998
-134.81651026169223
-202.78629739833676
-183.1570916304265
-109.42549782558937
-35.69390402075227
9.71694514381628
24.95155260547799
24.17029068436713
19.87335011825742
16.260013733119706
16.55298695353628
18.40848401617456
22.412451361867703
27.881284809643702
30.518043793392845
31.494621194781413
30.615701533531702
29.2484931715877
27.588311589227132
24.267948424505988
23.096055542839704
23.19371328297856
24.4632639047837
25.830472266727703
24.4632639047837
22.705424582284277
20.55695429922942
20.654612039368278
24.072632944228275
28.369573510337986
34.32669565880827
39.69787136644541
43.40886549172198
43.40886549172198
37.64705882352941
29.443808651865414
18.799114976729992
7.666132600900283
-1.6113527122911422
-10.986495765621424
-18.799114976729992
-25.92813000686656
-31.2993057145037
-35.49858854047456
-40.86976424811169
-44.28778515297169
-46.533913176165406
-47.21751735713741
-44.97138933394369
-40.57679102769512
-33.252460517280845
-27.588311589227132
-24.267948424505988
-21.045242999923705
-18.21316853589685
-12.74433508812085
-5.615320057984283
1.7090104524299992
6.494239719233997
5.0293736171511405
1.2207217517357138
-2.392614633401999
-2.68558785381857
0.6347753109025711
3.5645075150682843
6.103608758678568
7.470817120622568
8.935683222705425
10.009918364232853
7.568474860761425
4.248111696040284
1.9043259327077133
4.638742656595713
13.232623788815136
22.314793621728846
30.908674753948272
36.768139162279695
40.67444876783398
41.651026169222554
35.98687724116884
25.92813000686656
14.11154345006485
5.127031357289998
0.04882887006942855
-6.201266498817426
-18.40848401617456
-40.57679102769512
-65.38185702296482
-80.51880674448768
-83.15556572823682
-75.63591973754482
-64.60059510185397
-51.416800183108265
-38.72129396505684
-31.68993667505913
-24.4632639047837
-4.638742656595713
43.70183871213855
118.80064087891967
181.20393682764936
177.6882581826505
83.05790798809797
-62.2568093385214
-177.59060044251163
-206.30197604333563
-153.9574273289082
-75.73357747768368
-17.920195315480278
7.470817120622568
9.71694514381628
5.615320057984283
3.2715342946517127
5.810635538261997
11.767757686732281
17.041275654230564
22.412451361867703
25.342183566033416
25.146868085755703
23.58434424353399
21.533531700617992
21.92416266117342
22.60776684214542
23.291371023117417
24.756237125200276
26.025787747005417
30.322728313115128
35.79156176089113
41.16273746852827
45.55733577477684
47.21751735713741
49.46364538033112
53.17463950560769
58.74113069352254
63.526359960326545
63.6240177004654
61.08491645685512
54.83482108796826
45.947966735332265
36.0845349813077
22.90074006256199
7.666132600900283
-7.470817120622568
-18.40848401617456
-25.049210345616846
-31.885252155336843
-38.525978484779124
-46.533913176165406
-54.7371633478294
-60.694285496299685
-62.9404135194934
-59.13176165407798
-52.6863508049134
-44.580758373388264
-34.717326619363696
-26.416418707560844
-18.799114976729992
-12.646677347981994
-7.080186160067139
-1.8066681925688564
1.3183794918745708
5.0293736171511405
6.884870679789426
6.982528419928283
6.591897459372854
4.736400396734569
4.443427176317998
5.224689097428855
6.6895551995117115
8.154421301594567
9.130998702983138
14.697489890897993
25.146868085755703
39.11192492561227
53.17463950560769
60.8896009765774
60.108339055466544
47.80346379797055
28.467231250476843
9.033340962844282
-10.400549324788281
-30.71335927367056
-52.6863508049134
-70.75303273060197
-80.81177996490425
-84.52277409018082
-80.81177996490425
-72.5108720531014
-62.35446707866026
-51.51445792324712
-41.943999389639124
-32.95948729686427
-28.174258030060273
-24.560921644922562
-10.79118028534371
24.95155260547799
88.62439917601282
156.1058976119631
179.64141298542762
121.33974212252994
-5.615320057984283
-129.8359655146105
-182.76646066987107
-151.7112993057145
-79.24925612268254
-18.21316853589685
11.377126726176853
14.697489890897993
8.154421301594567
3.7598229953459983
3.2715342946517127
6.591897459372854
9.81460288395514
13.330281528953995
18.40848401617456
21.63118944075685
24.072632944228275
25.24452582589456
25.830472266727703
26.514076447699704
26.61173418783856
28.760204470893417
32.08056763561456
36.86579690241855
42.529945830472265
45.55733577477684
47.705806057831694
49.073014419775696
50.53788052185855
52.002746623941405
49.56130312046998
45.16670481422141
41.45571068894484
41.358052948805984
43.018234531166556
40.57679102769512
33.545433737697415
19.287403677424276
0.537117570763714
-17.041275654230564
-33.15480277714199
-46.826886396581976
-58.936446173800256
-66.94438086518655
-69.9717708094911
-71.1436636911574
-69.48348210879682
-65.47951476310368
-58.44815747310597
-48.78004119935912
-39.99084458686198
-31.9829098954757
-26.318760967421987
-20.947585259784848
-13.720912489509422
-7.275501640344854
-0.14648661020828566
5.615320057984283
8.74036774242771
8.642710002288853
5.517662317845426
4.052796215762569
2.8809033340962844
1.6113527122911422
1.513694972152285
1.513694972152285
3.2715342946517127
4.052796215762569
2.5879301136797133
0.34180209048599985
-0.8300907911802854
3.5645075150682843
13.232623788815136
26.416418707560844
39.99084458686198
48.584725719081405
52.39337758449683
50.34256504158083
43.70183871213855
34.131380178530556
19.287403677424276
0.04882887006942855
-23.096055542839704
-43.70183871213855
-57.27626459143969
-65.8701457236591
-67.7256427862974
-62.745098039215684
-51.51445792324712
-38.72129396505684
-30.908674753948272
-27.002365148393988
-25.830472266727703
-22.412451361867703
-9.619287403677424
20.361638818951704
77.00312809948882
145.07057297627222
179.9343862058442
135.89074540321965
14.11154345006485
-117.14045929655909
-183.25474937056535
-163.5278858625162
-97.21828030823224
-35.10795757991913
2.490272373540856
16.55298695353628
17.236591134508277
12.84199282825971
6.982528419928283
5.127031357289998
7.373159380483711
13.232623788815136
18.60379949645228
17.236591134508277
13.232623788815136
11.572442206454566
14.697489890897993
20.654612039368278
25.049210345616846
28.564888990615703
29.541466392004274
29.346150911726557
29.541466392004274
28.076600289921416
27.392996108949415
27.392996108949415
29.346150911726557
32.471198596169984
33.252460517280845
33.15480277714199
33.64309147783627
37.15877012283513
41.651026169222554
40.28381780727855
32.471198596169984
18.799114976729992
4.541084916456855
-5.71297779812314
-14.209201190203707
-20.654612039368278
-27.783627069504846
-36.27985046158541
-45.45967803463798
-53.760585946440834
-55.03013656824598
-51.709773403524835
-47.998779278248264
-44.580758373388264
-40.57679102769512
-33.64309147783627
-27.588311589227132
-22.90074006256199
-17.43190661478599
-12.060730907148852
-5.420004577706569
-0.6347753109025711
0.34180209048599985
-1.513694972152285
-5.0293736171511405
-5.810635538261997
-5.517662317845426
-4.443427176317998
-2.0996414129854277
0.34180209048599985
4.931715877012284
8.44739452201114
8.349736781872283
5.127031357289998
0.14648661020828566
-0.9277485313191425
2.490272373540856
11.670099946593423
24.853894865339132
36.27985046158541
45.75265125505455
51.80743114366369
54.053559166857404
50.928511482413974
37.94003204394598
16.45532921339742
-10.205233844510566
-34.81498435950255
-52.10040436408026
-63.33104448004883
-66.84672312504769
-64.9912260624094
-59.91302357518883
-53.56527046616312
-49.56130312046998
-45.85030899519341
-42.822919050888835
-39.79552910658427
-33.93606469825284
-17.82253757534142
22.803082322423133
88.4290836957351
154.93400473029678
178.27420462348363
121.82803082322422
-0.34180209048599985
-127.29686427100023
-192.9228656443122
-177.49294270237277
-112.25757228961623
-39.99084458686198
7.470817120622568
24.365606164644845
22.998397802700847
15.771725032425422
11.279468986037996
9.228656443121995
10.302891584649425
14.306858930342566
15.576409552147707
14.990463111314565
14.306858930342566
16.16235599298085
19.678034637979707
21.14290074006256
22.60776684214542
23.48668650339513
24.17029068436713
26.123445487144274
27.68596932936599
30.029755092698558
30.811017013809415
30.518043793392845
30.908674753948272
30.518043793392845
31.00633249408713
31.885252155336843
34.22903791866941
37.15877012283513
36.57282368200198
33.64309147783627
27.100022888532845
18.310826276035705
10.400549324788281
1.9043259327077133
-6.6895551995117115
-16.748302433813993
-26.61173418783856
-35.303273060196844
-43.70183871213855
-46.826886396581976
-45.26436255436027
-41.45571068894484
-37.4517433432517
-35.303273060196844
-32.86182955672541
-30.420386053253985
-25.732814526588847
-16.748302433813993
-7.275501640344854
1.6113527122911422
6.6895551995117115
7.373159380483711
5.615320057984283
1.1230640115968566
-2.9785610742351416
-5.810635538261997
-4.638742656595713
0.14648661020828566
3.466849774929427
6.591897459372854
9.326314183260854
11.47478446631571
11.47478446631571
5.908293278400855
-0.9277485313191425
-4.638742656595713
-1.1230640115968566
7.861448081177996
14.013885709925994
15.576409552147707
12.353704127565424
7.275501640344854
3.466849774929427
0.04882887006942855
-1.416037232013428
-1.416037232013428
0.7324330510414282
5.322346837567712
8.642710002288853
12.060730907148852
14.697489890897993
16.748302433813993
19.287403677424276
21.14290074006256
25.537499046311133
31.201647974364842
35.69390402075227
35.69390402075227
28.174258030060273
17.334248874647134
4.150453955901427
-9.326314183260854
-21.43587396047913
-34.61966887922484
-47.51049057755398
-57.764553292133975
-59.815365835049974
-52.10040436408026
-40.772106507972836
-28.27191577019913
-18.89677271686885
-13.916227969787137
-9.130998702983138
1.513694972152285
30.029755092698558
78.95628290226597
133.5469596398871
155.8129243915465
107.47234302281224
-4.443427176317998
-126.12497138933395
-191.26268406195163
-175.24681467917907
-110.20675974670024
-42.13931486991684
0.04882887006942855
16.16235599298085
18.799114976729992
16.45532921339742
16.748302433813993
19.775692378118563
22.90074006256199
23.779659723811704
19.092088197146563
12.549019607843137
7.080186160067139
6.494239719233997
11.377126726176853
16.943617914091707
23.48668650339513
30.127412832837415
35.49858854047456
38.1353475242237
35.303273060196844
31.2993057145037
28.66254673075456
29.053177691309987
31.592278934920273
32.86182955672541
35.49858854047456
38.91660944533455
41.651026169222554
42.43228809033341
37.84237430380713
30.22507057297627
22.119478141451133
16.16235599298085
11.767757686732281
5.810635538261997
0.7324330510414282
-5.0293736171511405
-12.939650568398566
-21.826504921034562
-31.9829098954757
-40.38147554741741
-46.240939955748836
-48.09643701838712
-46.63157091630426
-45.654993514915695
-43.21355001144427
-39.99084458686198
-36.475165941863125
-32.37354085603113
-29.346150911726557
-24.853894865339132
-19.48271915770199
-12.549019607843137
-4.150453955901427
1.0254062714579995
4.248111696040284
4.541084916456855
2.783245593957427
1.2207217517357138
-0.6347753109025711
-0.537117570763714
-0.6347753109025711
-1.2207217517357138
-1.0254062714579995
-1.3183794918745708
0.14648661020828566
2.197299153124285
3.662165255207141
6.103608758678568
9.521629663538567
16.55298695353628
24.560921644922562
32.08056763561456
39.5025558861677
45.45967803463798
52.19806210421912
54.7371633478294
48.19409475852598
33.44777599755856
13.525597009231708
-3.662165255207141
-15.869382772564279
-23.096055542839704
-28.857862211032273
-38.42832074464027
-48.38941023880369
-55.90905622949569
-58.44815747310597
-55.51842526894026
-50.44022278171969
-42.33463035019455
-34.52201113908598
-27.783627069504846
-17.82253757534142
3.466849774929427
51.123826962691695
124.26947432669566
193.02052338445105
203.5675593194476
115.38261997405966
-41.16273746852827
-178.66483558403905
-223.29442282749676
-175.24681467917907
-92.72602426184481
-26.514076447699704
5.0293736171511405
12.45136186770428
12.060730907148852
10.595864805065995
11.279468986037996
11.47478446631571
11.377126726176853
12.646677347981994
13.13496604867628
14.892805371175708
17.724879835202564
20.654612039368278
23.19371328297856
23.48668650339513
24.560921644922562
25.342183566033416
26.318760967421987
29.053177691309987
31.68993667505913
36.37750820172427
41.651026169222554
46.72922865644312
51.416800183108265
52.588693064774546
51.61211566338598
48.877698939497975
45.55733577477684
41.26039520866713
34.131380178530556
27.002365148393988
18.506141756313422
8.154421301594567
-1.7090104524299992
-12.939650568398566
-24.4632639047837
-36.768139162279695
-47.705806057831694
-55.420767528801406
-61.86617837796597
-63.819333180743115
-61.96383611810483
-58.1551842526894
-52.881666285191116
-48.291752498664835
-42.43228809033341
-35.889219501029984
-27.002365148393988
-15.185778591592278
-5.517662317845426
1.416037232013428
4.638742656595713
4.834058136873426
4.150453955901427
2.197299153124285
1.513694972152285
0.43945983062485694
-0.537117570763714
0.04882887006942855
0.14648661020828566
2.0996414129854277
4.931715877012284
6.201266498817426
4.638742656595713
-0.7324330510414282
-5.127031357289998
-6.884870679789426
-5.224689097428855
-0.9277485313191425
1.8066681925688564
5.127031357289998
9.619287403677424
15.674067292286564
22.998397802700847
27.783627069504846
30.811017013809415
32.86182955672541
36.96345464255741
43.311207751583126
45.16670481422141
40.08850232700084
27.1976806286717
10.400549324788281
-4.443427176317998
-18.11551079575799
-30.518043793392845
-42.04165712977798
-49.75661860074769
-52.10040436408026
-52.49103532463569
-49.658960860608836
-44.580758373388264
-37.94003204394598
-29.834439612420844
-23.87731746395056
-18.506141756313422
-10.205233844510566
10.595864805065995
53.27229724574655
113.72243839169909
168.21545738918135
168.8014038300145
85.10872053101396
-52.39337758449683
-168.9967193102922
-202.8839551384756
-156.1058976119631
-74.95231555657283
-7.177843900205997
24.17029068436713
30.029755092698558
29.2484931715877
32.178225375753414
36.768139162279695
35.4009308003357
28.857862211032273
18.40848401617456
10.10757610437171
10.498207064927138
16.84596017395285
25.342183566033416
30.322728313115128
29.443808651865414
23.779659723811704
15.185778591592278
10.595864805065995
11.08415350576028
14.795147631036851
19.287403677424276
20.84992751964599
22.90074006256199
27.588311589227132
35.20561532005799
42.92057679102769
44.873731593804834
42.822919050888835
38.23300526436255
32.178225375753414
24.853894865339132
15.47875181200885
8.545052262149996
2.197299153124285
-6.103608758678568
-17.334248874647134
-31.68993667505913
-43.89715419241627
-52.19806210421912
-57.27626459143969
-60.01068131532769
-64.3076218814374
-71.04600595101854
-81.88601510643167
-91.26115815976196
-90.77286945906768
-81.78835736629281
-67.7256427862974
-52.881666285191116
-37.64705882352941
-22.90074006256199
-12.939650568398566
-4.541084916456855
3.076218814373999
10.302891584649425
16.84596017395285
18.21316853589685
16.064698252841993
13.81857022964828
15.967040512703136
22.21713588158999
26.025787747005417
27.49065384908827
24.95155260547799
17.627222095063708
9.81460288395514
5.71297779812314
9.42397192339971
15.576409552147707
18.994430457007706
21.338216220340275
24.560921644922562
32.08056763561456
38.525978484779124
38.62363622491798
33.44777599755856
23.682001983672848
12.646677347981994
1.2207217517357138
-7.763790341039139
-13.81857022964828
-22.021820401312276
-31.494621194781413
-39.11192492561227
-41.45571068894484
-38.1353475242237
-35.20561532005799
-32.56885633630884
-28.857862211032273
-23.291371023117417
-17.041275654230564
-9.326314183260854
13.525597009231708
62.2568093385214
128.85938811322194
176.71168078126192
155.42229343099106
52.588693064774546
-85.40169375143053
-182.86411841000992
-197.0244907301442
-146.2424658579385
-75.2452887769894
-22.412451361867703
0.9277485313191425
5.71297779812314
3.36919203479057
2.5879301136797133
2.9785610742351416
5.420004577706569
12.256046387426567
18.799114976729992
23.48668650339513
25.342183566033416
26.025787747005417
27.881284809643702
28.66254673075456
28.760204470893417
26.123445487144274
21.533531700617992
18.89677271686885
19.385061417563133
25.146868085755703
32.178225375753414
36.86579690241855
39.40489814602884
38.42832074464027
36.182192721446555
33.74074921797513
32.95948729686427
34.52201113908598
34.131380178530556
31.787594415197987
25.342183566033416
14.795147631036851
3.076218814373999
-10.498207064927138
-23.096055542839704
-32.37354085603113
-36.37750820172427
-37.74471656366827
-42.72526131074998
-48.78004119935912
-52.19806210421912
-51.123826962691695
-44.48310063324941
-36.182192721446555
-28.076600289921416
-24.072632944228275
-24.267948424505988
-25.24452582589456
-26.318760967421987
-24.4632639047837
-20.84992751964599
-16.357671473258563
-10.400549324788281
-6.6895551995117115
-5.71297779812314
-6.591897459372854
-5.127031357289998
1.1230640115968566
6.787212939650568
9.619287403677424
7.666132600900283
2.9785610742351416
0.14648661020828566
-1.8066681925688564
-2.68558785381857
-3.662165255207141
-3.7598229953459983
-2.0019836728465705
-1.0254062714579995
1.9043259327077133
7.275501640344854
12.549019607843137
16.260013733119706
16.16235599298085
15.283436331731137
15.47875181200885
19.58037689784085
29.346150911726557
39.307240405889985
46.240939955748836
45.45967803463798
37.35408560311284
26.514076447699704
13.525597009231708
0.43945983062485694
-12.256046387426567
-23.87731746395056
-34.32669565880827
-45.55733577477684
-51.61211566338598
-50.73319600213626
-45.45967803463798
-38.33066300450141
-33.838406958113985
-31.103990234225986
-28.760204470893417
-20.16632333867399
4.834058136873426
50.24490730144198
111.96459906919966
161.67238879987792
158.44968337529565
81.49538414587624
-47.0222018768597
-161.77004654001678
-205.9113450827802
-172.0241092545968
-98.29251544975968
-32.27588311589227
6.201266498817426
18.506141756313422
16.650644693675137
13.232623788815136
12.353704127565424
15.576409552147707
19.87335011825742
23.19371328297856
25.24452582589456
23.096055542839704
21.338216220340275
22.510109102006563
25.537499046311133
28.467231250476843
27.68596932936599
25.537499046311133
23.779659723811704
24.756237125200276
29.346150911726557
32.56885633630884
34.131380178530556
32.86182955672541
29.9320973525597
29.053177691309987
29.150835431448844
31.00633249408713
33.252460517280845
33.74074921797513
31.396963454642556
25.439841306172273
21.728847180895706
19.48271915770199
15.088120851453422
8.935683222705425
-0.24414435034714274
-10.498207064927138
-21.045242999923705
-30.22507057297627
-36.96345464255741
-43.70183871213855
-46.240939955748836
-44.48310063324941
-40.772106507972836
-35.49858854047456
-30.518043793392845
-25.24452582589456
-21.63118944075685
-18.799114976729992
-13.525597009231708
-7.568474860761425
0.537117570763714
8.545052262149996
12.549019607843137
12.256046387426567
7.568474860761425
3.466849774929427
1.513694972152285
1.6113527122911422
3.2715342946517127
2.8809033340962844
2.197299153124285
1.1230640115968566
-0.43945983062485694
-1.7090104524299992
-4.638742656595713
-7.080186160067139
-7.666132600900283
-4.443427176317998
3.466849774929427
12.158388647287708
21.728847180895706
30.029755092698558
34.424353398947126
33.05714503700313
21.728847180895706
5.420004577706569
-8.642710002288853
-17.334248874647134
-22.021820401312276
-26.514076447699704
-27.97894254978256
-29.736781872281988
-35.79156176089113
-41.74868390936141
-44.873731593804834
-43.40886549172198
-38.818951705195694
-31.787594415197987
-23.779659723811704
-18.21316853589685
-6.6895551995117115
22.412451361867703
76.61249713893339
147.02372777904935
193.02052338445105
167.4341954680705
58.1551842526894
-86.37827115281911
-187.4540321965362
-200.6378271152819
-139.79705500877392
-59.22941939421683
-2.490272373540856
21.826504921034562
24.17029068436713
19.87335011825742
15.576409552147707
12.74433508812085
12.256046387426567
12.060730907148852
15.185778591592278
20.84992751964599
25.830472266727703
30.029755092698558
31.592278934920273
31.885252155336843
30.22507057297627
27.783627069504846
27.295338368810558
27.002365148393988
29.541466392004274
33.74074921797513
36.86579690241855
38.72129396505684
37.256427862973986
36.67048142214084
39.893186846723125
46.04562447547112
51.61211566338598
51.61211566338598
48.584725719081405
42.72526131074998
34.424353398947126
26.22110322728313
15.283436331731137
1.8066681925688564
-12.84199282825971
-26.90470740825513
-38.03768978408484
-47.412832837415124
-51.123826962691695
-50.928511482413974
-50.83085374227512
-51.416800183108265
-53.07698176546884
-52.10040436408026
-47.705806057831694
-40.57679102769512
-31.9829098954757
-27.100022888532845
-23.779659723811704
-19.678034637979707
-14.990463111314565
-10.10757610437171
-8.154421301594567
-6.6895551995117115
-4.931715877012284
-1.8066681925688564
2.9785610742351416
5.0293736171511405
5.517662317845426
4.638742656595713
2.490272373540856
1.513694972152285
0.7324330510414282
2.0019836728465705
4.150453955901427
6.591897459372854
10.009918364232853
10.302891584649425
7.666132600900283
1.7090104524299992
-5.615320057984283
-8.935683222705425
-8.154421301594567
-2.0996414129854277
6.982528419928283
17.041275654230564
26.807049668116274
33.05714503700313
37.06111238269627
36.57282368200198
29.2484931715877
18.017853055619135
4.443427176317998
-7.373159380483711
-16.357671473258563
-22.021820401312276
-25.24452582589456
-30.322728313115128
-34.61966887922484
-36.768139162279695
-36.96345464255741
-34.52201113908598
-33.252460517280845
-32.56885633630884
-32.56885633630884
-32.56885633630884
-27.68596932936599
-12.060730907148852
27.100022888532845
92.14007782101167
161.86770428015564
189.40718699931335
127.39452201113909
-12.646677347981994
-153.9574273289082
-216.55603875791562
-184.42664225223163
-106.69108110170139
-37.15877012283513
-2.0996414129854277
3.5645075150682843
-0.6347753109025711
-4.052796215762569
-1.513694972152285
3.7598229953459983
8.44739452201114
12.45136186770428
14.209201190203707
17.920195315480278
24.65857938506142
31.00633249408713
35.4009308003357
35.98687724116884
36.182192721446555
36.67048142214084
36.182192721446555
34.81498435950255
30.908674753948272
28.564888990615703
29.346150911726557
32.56885633630884
38.42832074464027
42.529945830472265
44.77607385366598
45.55733577477684
45.16670481422141
44.580758373388264
43.018234531166556
42.822919050888835
41.26039520866713
35.010299839780274
25.537499046311133
11.08415350576028
-5.908293278400855
-22.90074006256199
-37.94003204394598
-50.44022278171969
-61.67086289768826
-65.8701457236591
-61.08491645685512
-51.90508888380255
-43.311207751583126
-41.74868390936141
-45.069047074082555
-48.97535667963683
-48.97535667963683
-41.84634164950027
-31.494621194781413
-18.994430457007706
-7.470817120622568
0.04882887006942855
4.834058136873426
6.494239719233997
7.177843900205997
6.39658197909514
4.052796215762569
1.7090104524299992
-2.0019836728465705
-3.8574807354848555
-2.2949568932631417
0.6347753109025711
4.248111696040284
4.931715877012284
4.248111696040284
3.1738765545128556
2.783245593957427
5.322346837567712
9.228656443121995
15.967040512703136
23.48668650339513
29.346150911726557
35.596246280613414
40.57679102769512
43.40886549172198
39.99084458686198
29.053177691309987
15.771725032425422
3.5645075150682843
-2.5879301136797133
-5.517662317845426
-11.572442206454566
-23.19371328297856
-40.38147554741741
-54.639505607690545
-59.522392614633404
-54.639505607690545
-44.38544289311055
-37.256427862973986
-32.86182955672541
-29.346150911726557
-23.291371023117417
-5.517662317845426
33.44777599755856
100.83161669336995
174.85618371862364
200.54016937514305
132.76569771877624
-12.256046387426567
-150.93003738460365
-208.35278858625162
-176.41870756084535
-101.31990539406424
-38.03768978408484
-7.959105821316854
-4.345769436179141
-10.205233844510566
-11.963073167009995
-9.81460288395514
-4.345769436179141
2.9785610742351416
10.009918364232853
14.306858930342566
11.670099946593423
7.080186160067139
5.908293278400855
8.05676356145571
10.400549324788281
8.838025482566568
8.349736781872283
11.865415426871138
17.334248874647134
22.705424582284277
23.19371328297856
20.752269779507134
19.092088197146563
21.045242999923705
28.467231250476843
37.35408560311284
45.947966735332265
50.34256504158083
48.78004119935912
44.09246967269398
35.20561532005799
25.24452582589456
16.84596017395285
9.326314183260854
0.24414435034714274
-12.353704127565424
-22.314793621728846
-27.783627069504846
-31.9829098954757
-35.69390402075227
-40.86976424811169
-45.069047074082555
-47.998779278248264
-49.951934081025406
-48.877698939497975
-45.26436255436027
-35.98687724116884
-23.389028763256274
-13.232623788815136
-6.39658197909514
-4.248111696040284
-3.36919203479057
-2.197299153124285
-0.24414435034714274
4.443427176317998
8.838025482566568
13.623254749370565
17.724879835202564
18.506141756313422
16.260013733119706
10.498207064927138
4.638742656595713
-0.14648661020828566
-4.150453955901427
-5.224689097428855
-5.224689097428855
-2.490272373540856
2.197299153124285
6.298924238956283
9.71694514381628
10.10757610437171
11.377126726176853
16.45532921339742
24.756237125200276
32.37354085603113
32.27588311589227
26.61173418783856
19.971007858396277
14.306858930342566
9.326314183260854
-1.9043259327077133
-19.385061417563133
-38.525978484779124
-55.61608300907912
-67.13969634546426
-72.70618753337911
-68.60456244754711
-57.86221103227283
-47.11985961699855
-37.549401083390556
-32.08056763561456
-28.467231250476843
-22.803082322423133
-8.74036774242771
25.63515678644999
84.13214312962539
149.95345998321508
178.0788891432059
131.49614709697107
20.361638818951704
-104.8355840390631
-182.37582970931564
-184.62195773250934
-132.66803997863738
-68.79987792782482
-24.95155260547799
-3.7598229953459983
3.7598229953459983
7.861448081177996
16.064698252841993
24.560921644922562
29.9320973525597
31.396963454642556
30.322728313115128
30.22507057297627
30.71335927367056
34.131380178530556
38.1353475242237
38.1353475242237
35.596246280613414
31.2993057145037
28.564888990615703
27.881284809643702
29.053177691309987
33.44777599755856
36.57282368200198
40.28381780727855
47.31517509727627
55.713740749217976
61.182574196993976
58.44815747310597
52.10040436408026
44.09246967269398
30.518043793392845
13.720912489509422
1.1230640115968566
-0.43945983062485694
3.2715342946517127
4.443427176317998
2.0019836728465705
-6.6895551995117115
-19.287403677424276
-30.908674753948272
-39.20958266575113
-44.28778515297169
-48.68238345922026
-48.584725719081405
-45.069047074082555
-41.943999389639124
-38.1353475242237
-34.717326619363696
-29.736781872281988
-22.60776684214542
-14.404516670481422
-5.224689097428855
2.2949568932631417
10.400549324788281
17.13893339436942
19.775692378118563
20.263981078812847
17.041275654230564
12.256046387426567
8.252079041733426
5.0293736171511405
2.5879301136797133
-1.7090104524299992
-4.736400396734569
-5.517662317845426
-5.0293736171511405
-2.392614633401999
-2.0019836728465705
-3.5645075150682843
-4.736400396734569
-3.9551384756237127
-0.14648661020828566
3.662165255207141
8.74036774242771
13.81857022964828
17.724879835202564
22.803082322423133
26.709391927977418
30.908674753948272
36.27985046158541
40.08850232700084
39.99084458686198
33.545433737697415
25.342183566033416
16.16235599298085
5.127031357289998
-4.834058136873426
-15.674067292286564
-27.002365148393988
-38.72129396505684
-50.24490730144198
-58.25284199282826
-62.15915159838254
-59.522392614633404
-53.467612726024264
-47.90112153810941
-40.772106507972836
-31.103990234225986
-13.427939269092851
19.092088197146563
71.24132143129626
137.3556115053025
184.0360112916762
164.60212100404365
58.25284199282826
-89.69863431754024
-192.9228656443122
-204.64179446097506
-143.5080491340505
-63.819333180743115
-7.470817120622568
16.748302433813993
18.799114976729992
15.771725032425422
15.869382772564279
18.506141756313422
22.90074006256199
25.24452582589456
25.63515678644999
24.4632639047837
21.045242999923705
18.11551079575799
15.869382772564279
18.701457236591136
25.732814526588847
30.811017013809415
31.787594415197987
27.68596932936599
24.17029068436713
24.560921644922562
26.318760967421987
27.68596932936599
26.22110322728313
23.779659723811704
20.84992751964599
19.287403677424276
21.728847180895706
22.705424582284277
20.84992751964599
18.506141756313422
14.990463111314565
10.400549324788281
4.345769436179141
-0.14648661020828566
-5.224689097428855
-12.939650568398566
-20.361638818951704
-29.150835431448844
-37.74471656366827
-43.311207751583126
-46.14328221560998
-46.63157091630426
-45.85030899519341
-40.38147554741741
-32.56885633630884
-25.732814526588847
-18.506141756313422
-13.525597009231708
-10.693522545204852
-8.74036774242771
-7.470817120622568
-5.322346837567712
-2.392614633401999
4.150453955901427
12.84199282825971
19.87335011825742
25.439841306172273
27.002365148393988
25.342183566033416
21.728847180895706
16.260013733119706
11.377126726176853
7.470817120622568
7.763790341039139
10.986495765621424
13.525597009231708
15.869382772564279
16.84596017395285
18.40848401617456
21.533531700617992
25.24452582589456
30.029755092698558
34.0337224383917
38.03768978408484
38.62363622491798
32.95948729686427
24.267948424505988
12.45136186770428
-0.24414435034714274
-11.963073167009995
-22.119478141451133
-29.736781872281988
-37.84237430380713
-44.97138933394369
-49.951934081025406
-52.19806210421912
-48.68238345922026
-41.943999389639124
-34.52201113908598
-29.053177691309987
-26.61173418783856
-22.21713588158999
-9.619287403677424
22.90074006256199
82.47196154726483
156.20355535210194
203.17692835889218
167.92248416876478
41.26039520866713
-114.79667353322652
-213.33333333333334
-213.2356755931945
-145.5588616769665
-66.16311894407569
-13.525597009231708
5.615320057984283
6.494239719233997
2.5879301136797133
1.8066681925688564
4.541084916456855
7.275501640344854
10.10757610437171
11.767757686732281
15.771725032425422
22.60776684214542
28.174258030060273
30.518043793392845
27.295338368810558
21.728847180895706
17.13893339436942
14.990463111314565
17.82253757534142
23.096055542839704
30.420386053253985
37.549401083390556
41.26039520866713
43.018234531166556
42.43228809033341
42.33463035019455
44.67841611352712
46.63157091630426
46.533913176165406
42.43228809033341
37.15877012283513
30.615701533531702
21.338216220340275
11.572442206454566
-0.7324330510414282
-14.50217441062028
-27.881284809643702
-40.28381780727855
-49.951934081025406
-57.178606851300835
-59.13176165407798
-56.39734493018997
-52.10040436408026
-44.19012741283284
-34.91264209964141
-27.002365148393988
-23.58434424353399
-22.705424582284277
-18.89677271686885
-13.720912489509422
-7.666132600900283
-1.2207217517357138
3.8574807354848555
8.838025482566568
11.279468986037996
10.888838025482567
7.177843900205997
1.0254062714579995
-3.1738765545128556
-6.39658197909514
-6.201266498817426
-2.392614633401999
0.7324330510414282
1.513694972152285
-1.416037232013428
-5.127031357289998
-8.349736781872283
-12.158388647287708
-14.990463111314565
-17.041275654230564
-15.185778591592278
-8.935683222705425
-1.3183794918745708
7.763790341039139
17.041275654230564
27.295338368810558
36.57282368200198
40.186160067139696
36.475165941863125
25.439841306172273
13.623254749370565
3.9551384756237127
-4.638742656595713
-11.963073167009995
-20.947585259784848
-31.9829098954757
-43.50652323186084
-52.295719844357976
-54.15121690699626
-51.80743114366369
-45.947966735332265
-38.23300526436255
-32.27588311589227
-27.881284809643702
-23.58434424353399
-9.619287403677424
25.63515678644999
86.67124437323568
158.05905241474022
193.8017853055619
149.07454032196537
24.65857938506142
-115.57793545433738
-190.57907988097963
-176.80933852140078
-110.9880216678111
-45.947966735332265
-9.326314183260854
2.2949568932631417
0.8300907911802854
-1.0254062714579995
1.7090104524299992
5.615320057984283
9.42397192339971
12.74433508812085
18.017853055619135
24.4632639047837
28.27191577019913
28.95551995117113
25.24452582589456
21.63118944075685
20.84992751964599
20.263981078812847
19.971007858396277
19.58037689784085
21.92416266117342
26.90470740825513
31.9829098954757
36.57282368200198
39.014267185473415
41.45571068894484
43.50652323186084
42.72526131074998
42.13931486991684
41.45571068894484
39.893186846723125
35.20561532005799
25.63515678644999
14.892805371175708
5.127031357289998
-0.6347753109025711
-5.420004577706569
-14.209201190203707
-27.002365148393988
-43.79949645227741
-60.49897001602197
-72.80384527351796
-78.27267872129397
-74.95231555657283
-66.26077668421455
-52.78400854505226
-37.84237430380713
-26.416418707560844
-17.041275654230564
-8.838025482566568
-1.416037232013428
0.9277485313191425
-5.0293736171511405
-14.599832150759136
-22.119478141451133
-18.994430457007706
-4.248111696040284
11.181811245899137
18.60379949645228
13.916227969787137
4.150453955901427
-1.6113527122911422
-0.43945983062485694
6.591897459372854
12.84199282825971
18.701457236591136
26.90470740825513
37.64705882352941
50.73319600213626
60.108339055466544
61.28023193713283
52.49103532463569
35.20561532005799
15.47875181200885
-5.224689097428855
-25.63515678644999
-46.63157091630426
-67.33501182574197
-79.54222934309911
-79.63988708323797
-68.89753566796368
-54.83482108796826
-45.069047074082555
-39.307240405889985
-35.889219501029984
-31.201647974364842
-26.61173418783856
-22.60776684214542
-6.39658197909514
34.717326619363696
103.85900663767453
174.66086823834593
193.6064698252842
123.87884336614023
-11.963073167009995
-134.62119478141452
-179.34843976501105
-146.14480811779964
-77.19844357976653
-17.43190661478599
13.916227969787137
18.994430457007706
9.42397192339971
1.513694972152285
1.0254062714579995
8.642710002288853
20.16632333867399
28.760204470893417
34.424353398947126
36.67048142214084
36.768139162279695
34.131380178530556
28.564888990615703
24.4632639047837
22.705424582284277
24.853894865339132
29.63912413214313
33.05714503700313
34.61966887922484
31.787594415197987
26.416418707560844
22.90074006256199
23.096055542839704
26.514076447699704
29.346150911726557
33.545433737697415
40.28381780727855
45.654993514915695
45.947966735332265
36.0845349813077
20.263981078812847
6.298924238956283
-3.466849774929427
-10.400549324788281
-18.11551079575799
-26.025787747005417
-34.61966887922484
-45.947966735332265
-56.7879758907454
-66.3584344243534
-72.80384527351796
-74.75700007629511
-72.60852979324025
-66.16311894407569
-58.643472953383686
-48.291752498664835
-34.61966887922484
-21.92416266117342
-11.47478446631571
-5.908293278400855
-4.541084916456855
-4.931715877012284
-4.248111696040284
0.14648661020828566
3.5645075150682843
4.248111696040284
2.490272373540856
-1.0254062714579995
-1.7090104524299992
0.537117570763714
3.662165255207141
4.248111696040284
0.6347753109025711
-2.68558785381857
-5.420004577706569
-6.39658197909514
-5.71297779812314
-4.541084916456855
0.24414435034714274
6.591897459372854
11.670099946593423
13.037308308537423
9.71694514381628
5.127031357289998
0.6347753109025711
0.537117570763714
6.982528419928283
14.892805371175708
21.045242999923705
22.510109102006563
22.314793621728846
23.19371328297856
24.853894865339132
29.150835431448844
34.424353398947126
39.5025558861677
41.651026169222554
38.42832074464027
33.64309147783627
25.732814526588847
14.013885709925994
0.14648661020828566
-15.283436331731137
-31.103990234225986
-47.51049057755398
-58.44815747310597
-60.694285496299685
-57.86221103227283
-50.24490730144198
-41.16273746852827
-33.44777599755856
-29.736781872281988
-27.783627069504846
-16.16235599298085
14.11154345006485
68.99519340810254
137.94155794613565
185.79385061417562
171.7311360341802
75.83123521782254
-65.38185702296482
-179.64141298542762
-217.7279316395819
-182.96177615014878
-117.82406347753108
-60.108339055466544
-25.537499046311133
-12.74433508812085
-9.130998702983138
-8.154421301594567
-6.494239719233997
-3.2715342946517127
0.537117570763714
6.103608758678568
9.912260624093996
13.330281528953995
19.092088197146563
24.853894865339132
29.150835431448844
27.68596932936599
22.510109102006563
18.506141756313422
17.43190661478599
20.263981078812847
23.096055542839704
26.61173418783856
31.885252155336843
36.57282368200198
41.651026169222554
45.85030899519341
49.26832990005341
52.10040436408026
52.49103532463569
51.02616922255284
46.533913176165406
40.28381780727855
32.08056763561456
21.728847180895706
14.013885709925994
8.154421301594567
1.2207217517357138
-7.959105821316854
-19.58037689784085
-29.9320973525597
-38.818951705195694
-43.21355001144427
-42.529945830472265
-40.479133287556266
-37.74471656366827
-36.27985046158541
-35.010299839780274
-32.86182955672541
-30.615701533531702
-27.002365148393988
-23.48668650339513
-18.11551079575799
-10.302891584649425
-3.2715342946517127
4.052796215762569
9.521629663538567
11.279468986037996
9.228656443121995
3.466849774929427
-2.0019836728465705
-6.201266498817426
-5.0293736171511405
1.9043259327077133
9.228656443121995
14.599832150759136
16.357671473258563
16.45532921339742
15.283436331731137
10.009918364232853
1.9043259327077133
-5.810635538261997
-5.810635538261997
3.662165255207141
14.209201190203707
20.16632333867399
19.18974593728542
16.55298695353628
17.52956435492485
19.48271915770199
18.506141756313422
12.060730907148852
4.638742656595713
-0.43945983062485694
-6.005951018539712
-13.13496604867628
-25.732814526588847
-43.11589227130541
-58.74113069352254
-67.7256427862974
-67.43266956588083
-61.37788967727169
-50.34256504158083
-36.475165941863125
-26.22110322728313
-19.678034637979707
-13.525597009231708
3.466849774929427
44.19012741283284
107.37468528267338
168.8014038300145
180.2273594262608
107.5700007629511
-31.103990234225986
-164.5044632639048
-217.9232471198596
-181.00862134737164
-99.85503929198138
-28.369573510337986
7.373159380483711
15.771725032425422
13.13496604867628
12.256046387426567
15.967040512703136
18.994430457007706
20.263981078812847
19.385061417563133
18.40848401617456
18.60379949645228
17.82253757534142
17.82253757534142
18.60379949645228
22.021820401312276
28.564888990615703
35.98687724116884
46.33859769588769
51.61211566338598
43.79949645227741
29.150835431448844
22.60776684214542
31.2993057145037
44.580758373388264
52.6863508049134
52.881666285191116
44.09246967269398
33.3501182574197
30.518043793392845
40.38147554741741
48.584725719081405
38.03768978408484
18.017853055619135
5.908293278400855
5.322346837567712
4.931715877012284
-0.8300907911802854
-7.666132600900283
-22.119478141451133
-47.31517509727627
-67.23735408560312
-64.89356832227054
-44.580758373388264
-32.27588311589227
-37.94003204394598
-47.11985961699855
-44.28778515297169
-28.95551995117113
-18.60379949645228
-22.998397802700847
-33.15480277714199
-34.424353398947126
-21.533531700617992
-6.201266498817426
4.150453955901427
8.935683222705425
7.275501640344854
3.1738765545128556
1.2207217517357138
4.834058136873426
8.935683222705425
4.736400396734569
-5.615320057984283
-14.892805371175708
-13.623254749370565
-2.2949568932631417
7.373159380483711
8.74036774242771
-0.43945983062485694
-11.963073167009995
-14.404516670481422
-5.517662317845426
9.130998702983138
19.18974593728542
23.779659723811704
30.029755092698558
40.57679102769512
53.07698176546884
56.983291371023114
48.584725719081405
35.596246280613414
23.974975204089418
12.549019607843137
-6.787212939650568
-33.44777599755856
-59.62005035477226
-77.97970550087739
-80.71412222476539
-72.02258335240711
-61.37788967727169
-54.053559166857404
-49.75661860074769
-41.5533684290837
-29.053177691309987
-13.037308308537423
8.74036774242771
43.018234531166556
100.14801251239795
167.53185320820936
205.52071412222477
169.58266575112535
48.68238345922026
-104.54261081864652
-208.74341954680705
-217.0443274586099
-151.90661478599222
-71.33897917143511
-13.232623788815136
12.939650568398566
18.11551079575799
15.47875181200885
10.498207064927138
6.787212939650568
5.127031357289998
8.545052262149996
14.990463111314565
16.748302433813993
15.674067292286564
15.869382772564279
18.701457236591136
22.021820401312276
22.90074006256199
25.92813000686656
31.396963454642556
37.4517433432517
40.08850232700084
36.37750820172427
32.95948729686427
33.545433737697415
38.62363622491798
46.533913176165406
52.002746623941405
53.27229724574655
49.26832990005341
44.77607385366598
43.311207751583126
42.62760357061112
42.529945830472265
38.72129396505684
29.541466392004274
15.869382772564279
-3.2715342946517127
-23.87731746395056
-40.38147554741741
-47.51049057755398
-47.705806057831694
-49.365987640192266
-52.39337758449683
-55.713740749217976
-57.764553292133975
-57.95986877241169
-57.66689555199512
-54.54184786755169
-49.17067215991455
-40.38147554741741
-28.076600289921416
-16.650644693675137
-6.005951018539712
1.7090104524299992
6.884870679789426
11.181811245899137
14.013885709925994
16.45532921339742
16.650644693675137
16.55298695353628
17.13893339436942
16.16235599298085
15.47875181200885
13.525597009231708
9.42397192339971
5.615320057984283
4.443427176317998
8.838025482566568
14.697489890897993
18.21316853589685
18.994430457007706
17.43190661478599
19.971007858396277
27.1976806286717
35.98687724116884
39.99084458686198
32.27588311589227
15.674067292286564
-1.9043259327077133
-12.84199282825971
-16.650644693675137
-19.287403677424276
-21.533531700617992
-26.416418707560844
-35.20561532005799
-44.09246967269398
-48.877698939497975
-45.654993514915695
-38.525978484779124
-31.00633249408713
-25.63515678644999
-25.439841306172273
-24.267948424505988
-13.525597009231708
16.650644693675137
72.12024109254597
139.89471274891278
184.9149309529259
159.9145494773785
49.85427634088655
-98.78080415045396
-204.25116350041964
-213.04036011291677
-146.63309681849393
-64.11230640115969
-6.884870679789426
17.041275654230564
21.63118944075685
18.310826276035705
15.869382772564279
19.092088197146563
24.560921644922562
31.592278934920273
36.475165941863125
35.889219501029984
30.908674753948272
25.146868085755703
24.756237125200276
27.295338368810558
29.150835431448844
28.076600289921416
23.096055542839704
21.826504921034562
26.709391927977418
34.52201113908598
41.5533684290837
44.38544289311055
45.26436255436027
44.48310063324941
44.28778515297169
45.75265125505455
46.533913176165406
48.48706797894255
49.46364538033112
46.63157091630426
39.40489814602884
26.709391927977418
12.549019607843137
0.43945983062485694
-6.39658197909514
-9.130998702983138
-13.037308308537423
-16.16235599298085
-18.506141756313422
-22.998397802700847
-31.68993667505913
-44.09246967269398
-53.95590142671855
-58.936446173800256
-56.1043717097734
-45.069047074082555
-31.592278934920273
-13.720912489509422
7.373159380483711
24.365606164644845
33.15480277714199
37.64705882352941
43.018234531166556
45.75265125505455
48.68238345922026
56.690318150606544
63.42870222018769
63.6240177004654
55.90905622949569
41.943999389639124
25.342183566033416
10.302891584649425
2.392614633401999
-0.9277485313191425
-0.6347753109025711
1.8066681925688564
-1.1230640115968566
-6.982528419928283
-8.252079041733426
-3.662165255207141
1.513694972152285
4.248111696040284
6.494239719233997
5.127031357289998
3.466849774929427
8.935683222705425
18.799114976729992
29.834439612420844
36.475165941863125
31.592278934920273
14.11154345006485
-7.177843900205997
-20.84992751964599
-30.908674753948272
-42.92057679102769
-56.29968719005112
-72.5108720531014
-86.67124437323568
-93.60494392309452
-93.70260166323338
-90.96818493934539
-86.1829556725414
-76.61249713893339
-69.28816662851911
-66.16311894407569
-59.42473487449455
-41.651026169222554
2.0019836728465705
76.51483939879454
157.08247501335165
186.47745479514762
112.5505455100328
-50.34256504158083
-217.82558937972075
-293.41268024719614
-252.29877164873733
-153.2738231479362
-64.79591058213168
-18.506141756313422
-8.05676356145571
-12.939650568398566
-18.89677271686885
-18.310826276035705
-16.650644693675137
-16.55298695353628
-14.892805371175708
-11.572442206454566
-2.197299153124285
10.888838025482567
19.87335011825742
20.068665598535134
13.81857022964828
10.498207064927138
10.302891584649425
12.158388647287708
15.771725032425422
16.943617914091707
19.678034637979707
26.318760967421987
34.61966887922484
39.893186846723125
39.014267185473415
37.256427862973986
36.96345464255741
39.79552910658427
44.67841611352712
44.67841611352712
40.67444876783398
34.424353398947126
26.416418707560844
17.724879835202564
7.373159380483711
-3.076218814373999
-16.650644693675137
-32.08056763561456
-44.38544289311055
-52.588693064774546
-54.053559166857404
-52.588693064774546
-52.78400854505226
-52.881666285191116
-52.295719844357976
-50.635538261997404
-49.951934081025406
-48.38941023880369
-43.311207751583126
-37.64705882352941
-28.760204470893417
-17.724879835202564
-7.861448081177996
-0.537117570763714
1.7090104524299992
2.0019836728465705
1.513694972152285
2.490272373540856
5.810635538261997
7.861448081177996
10.693522545204852
12.939650568398566
12.74433508812085
12.158388647287708
11.08415350576028
11.865415426871138
12.060730907148852
12.646677347981994
17.334248874647134
24.95155260547799
36.768139162279695
49.75661860074769
60.01068131532769
65.8701457236591
61.96383611810483
47.998779278248264
26.025787747005417
3.36919203479057
-13.13496604867628
-24.365606164644845
-29.736781872281988
-35.596246280613414
-47.51049057755398
-59.522392614633404
-65.38185702296482
-61.768520637827116
-52.881666285191116
-40.38147554741741
-25.342183566033416
-15.47875181200885
-8.44739452201114
6.298924238956283
46.04562447547112
117.62874799725337
193.89944304570076
221.43892576485848
152.78553444724193
-0.9277485313191425
-160.69581139848935
-239.70092317082475
-209.91531242847333
-121.33974212252994
-40.186160067139696
5.908293278400855
20.45929655909056
19.775692378118563
13.720912489509422
9.228656443121995
9.228656443121995
10.009918364232853
13.916227969787137
20.16632333867399
24.756237125200276
27.002365148393988
26.90470740825513
28.27191577019913
30.029755092698558
32.86182955672541
38.525978484779124
41.943999389639124
42.822919050888835
40.57679102769512
35.98687724116884
32.95948729686427
31.787594415197987
34.131380178530556
38.72129396505684
44.19012741283284
48.584725719081405
47.11985961699855
44.19012741283284
41.5533684290837
37.64705882352941
31.68993667505913
20.947585259784848
9.326314183260854
-0.24414435034714274
-6.6895551995117115
-12.353704127565424
-21.92416266117342
-29.443808651865414
-32.95948729686427
-35.98687724116884
-39.600213626306555
-44.28778515297169
-45.26436255436027
-42.04165712977798
-35.596246280613414
-27.1976806286717
-22.21713588158999
-19.287403677424276
-18.310826276035705
-19.092088197146563
-17.43190661478599
-13.13496604867628
-6.005951018539712
1.0254062714579995
7.080186160067139
12.256046387426567
12.646677347981994
11.963073167009995
12.646677347981994
14.11154345006485
14.990463111314565
10.302891584649425
2.490272373540856
