ecg
-18.40848401617456
-17.236591134508277
-18.506141756313422
-17.724879835202564
-10.009918364232853
-2.9785610742351416
-2.68558785381857
-6.494239719233997
-10.10757610437171
-9.228656443121995
-7.373159380483711
-6.6895551995117115
-7.470817120622568
-10.009918364232853
-10.10757610437171
-10.888838025482567
-15.088120851453422
-18.994430457007706
-15.869382772564279
-3.076218814373999
7.763790341039139
10.10757610437171
6.982528419928283
3.5645075150682843
8.74036774242771
22.21713588158999
36.182192721446555
40.08850232700084
31.494621194781413
20.068665598535134
10.498207064927138
4.345769436179141
-0.14648661020828566
-10.10757610437171
-26.025787747005417
-43.70183871213855
-54.83482108796826
-57.86221103227283
-57.37392233157855
-52.49103532463569
-45.16670481422141
-36.768139162279695
-29.150835431448844
-24.17029068436713
-10.79118028534371
25.049210345616846
92.14007782101167
177.1999694819562
237.74776836804762
222.02487220569162
106.00747692072939
-62.15915159838254
-191.45799954222935
-226.51712825207903
-178.7624933241779
-103.4683756771191
-45.654993514915695
-18.21316853589685
-10.888838025482567
-7.373159380483711
-3.1738765545128556
2.68558785381857
9.521629663538567
13.232623788815136
15.674067292286564
16.55298695353628
15.771725032425422
14.795147631036851
16.064698252841993
22.803082322423133
29.63912413214313
32.86182955672541
32.471198596169984
28.27191577019913
25.342183566033416
23.779659723811704
22.314793621728846
22.21713588158999
24.072632944228275
24.65857938506142
13.81857022964828
-2.8809033340962844
-10.888838025482567
-8.349736781872283
-1.0254062714579995
5.71297779812314
12.646677347981994
18.701457236591136
22.510109102006563
27.1976806286717
27.002365148393988
19.092088197146563
8.74036774242771
-0.537117570763714
-6.6895551995117115
-11.767757686732281
-15.47875181200885
-19.287403677424276
-24.4632639047837
-26.22110322728313
-24.65857938506142
-20.263981078812847
-13.81857022964828
-8.935683222705425
-4.345769436179141
0.537117570763714
7.470817120622568
14.892805371175708
19.287403677424276
22.90074006256199
25.63515678644999
28.467231250476843
30.71335927367056
29.2484931715877
25.92813000686656
22.021820401312276
19.678034637979707
18.310826276035705
15.283436331731137
12.84199282825971
10.400549324788281
8.545052262149996
7.666132600900283
6.39658197909514
6.982528419928283
7.959105821316854
9.521629663538567
11.963073167009995
14.404516670481422
19.092088197146563
24.072632944228275
29.053177691309987
33.05714503700313
34.717326619363696
37.256427862973986
39.014267185473415
38.03768978408484
33.64309147783627
26.123445487144274
17.334248874647134
3.36919203479057
-15.283436331731137
-35.4009308003357
-54.639505607690545
-68.11627374685283
-74.65934233615626
-73.09681849393453
-64.89356832227054
-54.053559166857404
-41.26039520866713
-31.103990234225986
-25.342183566033416
-20.752269779507134
-8.74036774242771
26.025787747005417
87.45250629434653
159.32860303654536
201.1261158159762
168.9967193102922
58.54581521324483
-84.22980086976425
-185.01258869306477
-202.0050354772259
-155.71526665140763
-92.62836652170596
-47.412832837415124
-25.146868085755703
-16.55298695353628
-15.47875181200885
-16.260013733119706
-16.650644693675137
-13.623254749370565
-7.666132600900283
-2.9785610742351416
1.513694972152285
5.322346837567712
10.400549324788281
17.82253757534142
23.87731746395056
28.369573510337986
30.029755092698558
30.420386053253985
30.71335927367056
30.322728313115128
32.08056763561456
35.596246280613414
42.04165712977798
51.61211566338598
60.108339055466544
65.28419928282597
64.9912260624094
62.2568093385214
59.22941939421683
53.07698176546884
46.14328221560998
40.479133287556266
38.525978484779124
38.03768978408484
34.0337224383917
25.537499046311133
11.279468986037996
-4.150453955901427
-17.13893339436942
-28.760204470893417
-37.549401083390556
-44.580758373388264
-49.17067215991455
-50.928511482413974
-51.90508888380255
-52.10040436408026
-54.15121690699626
-55.32310978866255
-53.467612726024264
-49.85427634088655
-43.604180971999696
-37.15877012283513
-30.71335927367056
-24.365606164644845
-20.752269779507134
-18.701457236591136
-18.60379949645228
-17.236591134508277
-13.623254749370565
-10.888838025482567
-8.349736781872283
-6.884870679789426
-4.736400396734569
-0.6347753109025711
3.2715342946517127
7.666132600900283
9.71694514381628
9.71694514381628
9.228656443121995
8.642710002288853
11.670099946593423
16.943617914091707
25.146868085755703
37.256427862973986
50.04959182116426
60.108339055466544
61.475547417410546
54.053559166857404
40.28381780727855
20.947585259784848
2.0019836728465705
-13.427939269092851
-23.87731746395056
-31.494621194781413
-40.96742198825055
-51.709773403524835
-62.9404135194934
-69.48348210879682
-69.0928511482414
-65.38185702296482
-59.22941939421683
-53.760585946440834
-48.97535667963683
-44.28778515297169
-38.03768978408484
-18.701457236591136
27.49065384908827
109.42549782558937
202.6886396581979
242.14236667429617
174.85618371862364
15.47875181200885
-149.6604867627985
-232.7672236209659
-213.33333333333334
-135.59777218280308
-62.15915159838254
-21.24055848020142
-7.861448081177996
-8.154421301594567
-8.154421301594567
-4.443427176317998
2.783245593957427
10.302891584649425
13.13496604867628
13.037308308537423
12.646677347981994
17.334248874647134
25.732814526588847
30.518043793392845
31.68993667505913
31.885252155336843
34.22903791866941
37.35408560311284
36.475165941863125
32.6665140764477
26.709391927977418
22.119478141451133
19.18974593728542
15.185778591592278
14.892805371175708
22.803082322423133
39.69787136644541
55.81139848935683
58.936446173800256
48.48706797894255
30.71335927367056
16.16235599298085
8.252079041733426
1.1230640115968566
-6.103608758678568
-14.209201190203707
-22.510109102006563
-31.68993667505913
-40.67444876783398
-45.069047074082555
-47.80346379797055
-50.24490730144198
-51.709773403524835
-52.588693064774546
-51.416800183108265
-49.073014419775696
-43.604180971999696
-34.717326619363696
-24.756237125200276
-14.50217441062028
-8.44739452201114
-6.494239719233997
-7.080186160067139
-9.521629663538567
-7.470817120622568
0.8300907911802854
12.158388647287708
18.506141756313422
15.869382772564279
10.10757610437171
5.0293736171511405
3.8574807354848555
6.494239719233997
8.74036774242771
10.10757610437171
9.619287403677424
9.130998702983138
10.10757610437171
11.377126726176853
14.013885709925994
15.771725032425422
16.84596017395285
17.334248874647134
15.869382772564279
16.84596017395285
21.728847180895706
31.103990234225986
42.33463035019455
51.02616922255284
56.983291371023114
57.27626459143969
52.49103532463569
42.822919050888835
27.881284809643702
12.74433508812085
-0.04882887006942855
-9.71694514381628
-18.701457236591136
-30.127412832837415
-41.74868390936141
-51.709773403524835
-56.29968719005112
-54.24887464713512
-48.584725719081405
-39.99084458686198
-33.3501182574197
-28.564888990615703
-18.89677271686885
5.810635538261997
57.27626459143969
131.98443579766536
204.73945220111392
223.78271152819104
143.60570687418937
-15.674067292286564
-169.38735027084763
-233.93911650263217
-198.00106813153278
-115.87090867475395
-45.947966735332265
-14.404516670481422
-10.595864805065995
-14.209201190203707
-13.720912489509422
-5.517662317845426
5.0293736171511405
16.260013733119706
27.97894254978256
35.69390402075227
36.57282368200198
29.9320973525597
21.728847180895706
16.55298695353628
15.283436331731137
19.287403677424276
23.291371023117417
24.072632944228275
22.705424582284277
21.24055848020142
22.119478141451133
23.682001983672848
26.416418707560844
28.760204470893417
28.174258030060273
27.97894254978256
29.63912413214313
34.91264209964141
42.43228809033341
47.21751735713741
46.72922865644312
39.40489814602884
31.592278934920273
27.1976806286717
21.24055848020142
10.986495765621424
-3.076218814373999
-15.47875181200885
-22.803082322423133
-26.514076447699704
-28.467231250476843
-33.44777599755856
-40.67444876783398
-46.92454413672083
-50.34256504158083
-48.68238345922026
-44.48310063324941
-36.0845349813077
-22.510109102006563
-9.521629663538567
-1.9043259327077133
-2.197299153124285
-4.052796215762569
-3.466849774929427
-1.9043259327077133
-0.14648661020828566
-0.537117570763714
-0.34180209048599985
3.076218814373999
7.373159380483711
10.205233844510566
9.42397192339971
7.373159380483711
4.736400396734569
0.9277485313191425
-0.537117570763714
-0.8300907911802854
0.537117570763714
3.662165255207141
6.298924238956283
8.154421301594567
8.545052262149996
10.693522545204852
14.404516670481422
16.16235599298085
17.627222095063708
19.385061417563133
22.60776684214542
26.416418707560844
26.709391927977418
23.48668650339513
15.771725032425422
6.201266498817426
-3.9551384756237127
-15.47875181200885
-25.342183566033416
-35.596246280613414
-46.240939955748836
-54.54184786755169
-57.56923781185626
-53.27229724574655
-46.72922865644312
-41.358052948805984
-38.818951705195694
-39.69787136644541
-37.4517433432517
-25.342183566033416
9.71694514381628
80.2258335240711
174.4655527580682
242.92362859540702
217.43495841916533
82.7649347676814
-95.2651255054551
-219.2904554818036
-236.6735332265202
-174.66086823834593
-94.19089036392768
-38.33066300450141
-15.967040512703136
-13.037308308537423
-14.795147631036851
-11.670099946593423
-4.834058136873426
-0.43945983062485694
2.490272373540856
4.541084916456855
8.154421301594567
13.916227969787137
18.701457236591136
22.314793621728846
24.17029068436713
26.807049668116274
28.369573510337986
24.65857938506142
18.40848401617456
12.646677347981994
13.232623788815136
22.314793621728846
34.22903791866941
42.529945830472265
43.018234531166556
41.651026169222554
43.99481193255512
47.705806057831694
50.83085374227512
50.83085374227512
49.17067215991455
46.04562447547112
39.893186846723125
31.00633249408713
18.506141756313422
6.39658197909514
-3.1738765545128556
-12.84199282825971
-21.92416266117342
-32.37354085603113
-43.311207751583126
-53.95590142671855
-62.9404135194934
-65.08888380254825
-60.401312275883114
-50.34256504158083
-40.479133287556266
-34.717326619363696
-30.420386053253985
-28.174258030060273
-25.830472266727703
-21.045242999923705
-14.209201190203707
-6.298924238956283
-1.1230640115968566
2.2949568932631417
4.052796215762569
3.36919203479057
4.150453955901427
5.322346837567712
6.982528419928283
9.42397192339971
11.865415426871138
15.088120851453422
16.357671473258563
15.771725032425422
11.47478446631571
3.2715342946517127
-2.490272373540856
-4.345769436179141
-1.1230640115968566
6.787212939650568
16.45532921339742
24.95155260547799
28.66254673075456
31.592278934920273
35.10795757991913
34.91264209964141
28.760204470893417
14.50217441062028
-3.8574807354848555
-21.045242999923705
-33.44777599755856
-39.5025558861677
-44.77607385366598
-51.22148470283055
-59.62005035477226
-67.7256427862974
-68.50690470740825
-61.28023193713283
-47.90112153810941
-34.91264209964141
-29.541466392004274
-29.9320973525597
-27.295338368810558
-3.466849774929427
54.24887464713512
136.86732280460822
206.10666056305791
204.3488212405585
107.27702754253453
-42.529945830472265
-160.01220721751736
-188.43060959792479
-144.28931105516136
-78.76096742198825
-32.37354085603113
-14.306858930342566
-10.10757610437171
-8.935683222705425
-5.0293736171511405
1.9043259327077133
8.44739452201114
13.427939269092851
15.576409552147707
18.310826276035705
21.92416266117342
23.974975204089418
27.100022888532845
31.396963454642556
39.20958266575113
49.365987640192266
55.22545204852369
53.85824368657969
45.947966735332265
38.62363622491798
34.32669565880827
32.08056763561456
34.52201113908598
39.5025558861677
44.19012741283284
46.72922865644312
46.43625543602655
45.75265125505455
43.311207751583126
41.065079728389414
37.64705882352941
29.736781872281988
19.287403677424276
7.959105821316854
-2.68558785381857
-14.11154345006485
-26.807049668116274
-38.818951705195694
-50.24490730144198
-58.643472953383686
-64.60059510185397
-70.94834821087969
-74.65934233615626
-73.48744945448996
-63.72167544060426
-47.412832837415124
-32.178225375753414
-20.84992751964599
-13.232623788815136
-5.420004577706569
-0.14648661020828566
-1.1230640115968566
-3.466849774929427
-4.834058136873426
-3.662165255207141
-1.7090104524299992
-2.392614633401999
-4.834058136873426
-7.177843900205997
-5.322346837567712
-2.197299153124285
-2.9785610742351416
-5.420004577706569
-8.252079041733426
-9.228656443121995
-8.349736781872283
-6.787212939650568
-3.9551384756237127
-2.392614633401999
-2.197299153124285
-4.052796215762569
-7.080186160067139
-5.615320057984283
0.9277485313191425
13.037308308537423
27.97894254978256
40.38147554741741
47.11985961699855
46.04562447547112
40.86976424811169
32.6665140764477
20.16632333867399
7.763790341039139
-1.7090104524299992
-6.787212939650568
-10.205233844510566
-17.52956435492485
-30.420386053253985
-48.38941023880369
-62.2568093385214
-66.06546120393683
-61.5732051575494
-52.002746623941405
-44.28778515297169
-39.99084458686198
-38.33066300450141
-35.49858854047456
-21.24055848020142
15.185778591592278
85.40169375143053
175.34447241931792
232.57190814068818
202.20035095750362
78.6633096818494
-72.80384527351796
-169.97329671168077
-178.86015106431677
-128.07812619211109
-72.60852979324025
-41.358052948805984
-33.252460517280845
-33.838406958113985
-29.541466392004274
-20.752269779507134
-10.79118028534371
-1.513694972152285
6.39658197909514
13.525597009231708
17.334248874647134
19.775692378118563
21.533531700617992
22.998397802700847
27.392996108949415
32.471198596169984
38.03768978408484
43.79949645227741
47.705806057831694
49.658960860608836
48.291752498664835
47.31517509727627
47.0222018768597
46.240939955748836
48.877698939497975
55.03013656824598
65.77248798352025
79.63988708323797
92.92133974212253
101.12458991378652
97.70656900892652
87.06187533379111
75.53826199740597
61.86617837796597
43.99481193255512
21.826504921034562
1.1230640115968566
-15.771725032425422
-31.396963454642556
-48.19409475852598
-69.67879758907453
-91.94476234073396
-110.59739070725567
-122.51163500419624
-124.07415884641794
-118.11703669794767
-104.8355840390631
-86.1829556725414
-67.7256427862974
-53.07698176546884
-42.72526131074998
-32.27588311589227
-23.19371328297856
-17.13893339436942
-4.638742656595713
24.756237125200276
83.54619668879225
170.46158541237506
253.66598001068132
277.39681086442357
201.61440451667048
53.85824368657969
-88.91737239642939
-166.84824902723736
-176.02807660028992
-155.22697795071335
-133.7422751201648
-117.14045929655909
-101.6128786144808
-84.22980086976425
-67.53032730601969
-51.02616922255284
-36.96345464255741
-24.365606164644845
-7.177843900205997
10.009918364232853
22.705424582284277
28.95551995117113
28.95551995117113
25.537499046311133
20.263981078812847
17.52956435492485
16.45532921339742
15.283436331731137
16.45532921339742
16.55298695353628
16.943617914091707
22.119478141451133
31.396963454642556
38.525978484779124
37.15877012283513
32.178225375753414
27.295338368810558
21.92416266117342
16.84596017395285
9.912260624093996
4.052796215762569
1.9043259327077133
2.5879301136797133
3.466849774929427
0.43945983062485694
-3.466849774929427
-7.470817120622568
-12.45136186770428
-16.45532921339742
-20.55695429922942
-21.533531700617992
-18.21316853589685
-13.427939269092851
-8.838025482566568
-5.517662317845426
-1.0254062714579995
0.7324330510414282
-2.392614633401999
-4.150453955901427
-1.416037232013428
5.322346837567712
10.595864805065995
8.642710002288853
-0.43945983062485694
-12.256046387426567
-16.748302433813993
-16.064698252841993
-21.24055848020142
-33.05714503700313
-43.79949645227741
-43.11589227130541
-34.22903791866941
-27.881284809643702
-27.881284809643702
-31.787594415197987
-32.27588311589227
-29.541466392004274
-28.076600289921416
-27.588311589227132
-27.588311589227132
-24.365606164644845
-17.13893339436942
-8.154421301594567
-0.34180209048599985
0.537117570763714
-0.8300907911802854
-0.34180209048599985
2.0996414129854277
6.298924238956283
8.74036774242771
10.10757610437171
11.08415350576028
11.47478446631571
10.205233844510566
4.834058136873426
2.197299153124285
5.224689097428855
8.642710002288853
9.033340962844282
6.005951018539712
4.248111696040284
3.5645075150682843
2.9785610742351416
6.005951018539712
13.81857022964828
25.732814526588847
35.10795757991913
35.98687724116884
30.811017013809415
21.43587396047913
12.939650568398566
9.228656443121995
11.181811245899137
17.82253757534142
23.974975204089418
29.541466392004274
30.811017013809415
26.123445487144274
23.779659723811704
28.076600289921416
37.4517433432517
44.77607385366598
46.33859769588769
42.529945830472265
30.518043793392845
13.525597009231708
-4.248111696040284
-19.775692378118563
-29.443808651865414
-35.4009308003357
-38.03768978408484
-38.42832074464027
-37.74471656366827
-35.49858854047456
-33.74074921797513
-26.123445487144274
-5.224689097428855
35.10795757991913
98.87846189059282
171.53582055390248
216.55603875791562
189.9931334401465
83.74151216906996
-55.420767528801406
-163.03959716182192
-197.5127794308385
-165.57869840543222
-103.85900663767453
-45.55733577477684
-9.130998702983138
7.080186160067139
12.353704127565424
13.330281528953995
12.74433508812085
9.326314183260854
6.982528419928283
5.71297779812314
4.150453955901427
4.736400396734569
6.6895551995117115
11.279468986037996
17.43190661478599
21.14290074006256
19.287403677424276
11.47478446631571
5.517662317845426
4.345769436179141
7.275501640344854
15.381094071869994
25.342183566033416
34.32669565880827
39.5025558861677
41.358052948805984
42.33463035019455
41.5533684290837
43.11589227130541
47.705806057831694
51.709773403524835
52.588693064774546
46.72922865644312
36.67048142214084
25.24452582589456
14.990463111314565
5.908293278400855
-5.420004577706569
-15.576409552147707
-22.998397802700847
-29.443808651865414
-33.838406958113985
-36.96345464255741
-37.256427862973986
-35.79156176089113
-33.545433737697415
-31.00633249408713
-30.908674753948272
-31.2993057145037
-32.95948729686427
-35.20561532005799
-34.0337224383917
-31.68993667505913
-28.66254673075456
-23.682001983672848
-15.576409552147707
-6.884870679789426
-4.248111696040284
-6.201266498817426
-10.888838025482567
-15.381094071869994
-15.967040512703136
-16.650644693675137
-19.678034637979707
-23.48668650339513
-23.682001983672848
-18.506141756313422
-13.13496604867628
-9.619287403677424
-9.619287403677424
-10.986495765621424
-8.74036774242771
-5.224689097428855
-2.0996414129854277
-0.14648661020828566
0.6347753109025711
0.537117570763714
-2.490272373540856
-5.127031357289998
-6.591897459372854
-6.103608758678568
-0.537117570763714
6.884870679789426
15.283436331731137
24.267948424505988
33.74074921797513
41.16273746852827
40.86976424811169
35.20561532005799
26.22110322728313
15.674067292286564
6.787212939650568
-1.2207217517357138
-8.05676356145571
-15.47875181200885
-25.439841306172273
-37.549401083390556
-51.61211566338598
-60.01068131532769
-60.01068131532769
-53.27229724574655
-41.943999389639124
-32.6665140764477
-27.68596932936599
-25.049210345616846
-15.869382772564279
11.279468986037996
61.475547417410546
129.73830777447165
182.96177615014878
173.00068665598536
80.61646448462653
-57.56923781185626
-167.4341954680705
-200.05188067444877
-161.9653620202945
-95.85107194628824
-44.38544289311055
-18.506141756313422
-11.279468986037996
-11.08415350576028
-8.44739452201114
-3.2715342946517127
3.8574807354848555
11.279468986037996
17.724879835202564
22.412451361867703
22.803082322423133
22.803082322423133
23.096055542839704
22.90074006256199
23.87731746395056
24.365606164644845
24.95155260547799
25.439841306172273
26.123445487144274
27.392996108949415
26.807049668116274
27.783627069504846
29.63912413214313
29.443808651865414
28.95551995117113
28.27191577019913
29.443808651865414
31.2993057145037
33.05714503700313
34.32669565880827
31.787594415197987
27.49065384908827
22.021820401312276
14.50217441062028
6.982528419928283
0.24414435034714274
-3.36919203479057
-6.884870679789426
-12.939650568398566
-21.728847180895706
-33.64309147783627
-42.43228809033341
-46.14328221560998
-45.75265125505455
-41.943999389639124
-37.94003204394598
-32.37354085603113
-24.65857938506142
-15.283436331731137
-6.982528419928283
-4.541084916456855
-4.638742656595713
-5.908293278400855
-8.252079041733426
-9.228656443121995
-8.642710002288853
-4.541084916456855
1.2207217517357138
5.517662317845426
7.080186160067139
4.736400396734569
3.662165255207141
4.345769436179141
5.127031357289998
6.787212939650568
7.568474860761425
9.228656443121995
11.865415426871138
14.404516670481422
14.306858930342566
7.763790341039139
0.34180209048599985
-3.1738765545128556
-0.7324330510414282
8.349736781872283
18.799114976729992
26.709391927977418
30.518043793392845
33.545433737697415
38.23300526436255
40.28381780727855
39.5025558861677
35.4009308003357
29.053177691309987
22.803082322423133
14.795147631036851
5.71297779812314
-4.541084916456855
-15.869382772564279
-28.076600289921416
-42.236972610055695
-51.80743114366369
-54.346532387273975
-50.83085374227512
-42.62760357061112
-35.010299839780274
-28.564888990615703
-22.60776684214542
-11.572442206454566
14.892805371175708
65.96780346379796
143.41039139391165
212.7473868925002
212.5520714122225
109.8161287861448
-55.32310978866255
-187.84466315709162
-222.80613412680248
-170.65690089265277
-90.47989623865111
-34.22903791866941
-10.986495765621424
-8.545052262149996
-11.865415426871138
-9.71694514381628
-3.36919203479057
5.322346837567712
14.404516670481422
22.119478141451133
24.95155260547799
20.068665598535134
14.306858930342566
11.767757686732281
13.13496604867628
19.287403677424276
25.342183566033416
28.174258030060273
26.318760967421987
23.19371328297856
21.63118944075685
20.16632333867399
21.533531700617992
24.756237125200276
27.97894254978256
32.37354085603113
36.86579690241855
41.5533684290837
43.99481193255512
43.89715419241627
41.943999389639124
35.20561532005799
27.1976806286717
19.971007858396277
12.939650568398566
5.810635538261997
-2.490272373540856
-10.79118028534371
-19.971007858396277
-30.029755092698558
-40.38147554741741
-52.19806210421912
-61.182574196993976
-65.77248798352025
-65.47951476310368
-59.62005035477226
-52.10040436408026
-44.48310063324941
-37.549401083390556
-30.22507057297627
-22.705424582284277
-17.724879835202564
-12.74433508812085
-8.545052262149996
-5.224689097428855
-0.8300907911802854
2.197299153124285
3.2715342946517127
2.0019836728465705
1.3183794918745708
3.076218814373999
4.736400396734569
8.154421301594567
10.79118028534371
10.009918364232853
7.568474860761425
3.9551384756237127
2.0019836728465705
1.1230640115968566
1.2207217517357138
1.8066681925688564
0.34180209048599985
0.04882887006942855
0.9277485313191425
2.8809033340962844
8.349736781872283
16.260013733119706
25.830472266727703
33.93606469825284
40.28381780727855
44.873731593804834
43.604180971999696
37.4517433432517
26.22110322728313
11.767757686732281
-1.1230640115968566
-11.377126726176853
-17.43190661478599
-22.705424582284277
-29.834439612420844
-38.62363622491798
-48.09643701838712
-51.61211566338598
-48.68238345922026
-41.84634164950027
-32.86182955672541
-27.002365148393988
-25.439841306172273
-26.416418707560844
-20.068665598535134
7.763790341039139
66.45609216449226
151.22301060502022
218.70450904097046
205.81368734264134
89.7962920576791
-75.14763103685054
-193.02052338445105
-212.64972915236135
-156.88715953307394
-84.62043183031967
-39.014267185473415
-21.63118944075685
-18.60379949645228
-16.55298695353628
-8.252079041733426
2.392614633401999
11.181811245899137
14.795147631036851
15.674067292286564
15.47875181200885
12.74433508812085
11.279468986037996
11.279468986037996
12.549019607843137
16.748302433813993
21.045242999923705
24.267948424505988
24.756237125200276
25.146868085755703
26.90470740825513
27.100022888532845
28.369573510337986
30.71335927367056
33.93606469825284
39.20958266575113
43.89715419241627
46.826886396581976
45.55733577477684
42.822919050888835
40.96742198825055
36.182192721446555
29.053177691309987
20.55695429922942
12.060730907148852
4.638742656595713
-2.8809033340962844
-10.400549324788281
-20.752269779507134
-32.471198596169984
-42.33463035019455
-50.635538261997404
-55.22545204852369
-56.7879758907454
-54.932478828107115
-48.584725719081405
-41.45571068894484
-35.010299839780274
-30.420386053253985
-26.025787747005417
-21.533531700617992
-19.58037689784085
-17.334248874647134
-14.990463111314565
-11.865415426871138
-5.615320057984283
1.6113527122911422
8.349736781872283
12.060730907148852
13.330281528953995
12.158388647287708
6.982528419928283
2.783245593957427
1.7090104524299992
4.150453955901427
9.71694514381628
14.50217441062028
18.310826276035705
20.361638818951704
21.63118944075685
20.55695429922942
14.11154345006485
7.568474860761425
4.541084916456855
7.080186160067139
15.47875181200885
24.95155260547799
33.15480277714199
38.42832074464027
42.92057679102769
44.77607385366598
36.57282368200198
20.84992751964599
2.392614633401999
-14.11154345006485
-26.709391927977418
-36.37750820172427
-43.018234531166556
-50.24490730144198
-57.764553292133975
-62.54978255893797
-64.3076218814374
-61.28023193713283
-57.178606851300835
-54.15121690699626
-50.34256504158083
-45.16670481422141
-35.303273060196844
-16.84596017395285
20.263981078812847
83.35088120851454
157.6684214541848
203.95819028000304
173.29365987640193
57.37392233157855
-86.37827115281911
-177.0046540016785
-177.0046540016785
-118.99595635919738
-55.127794308384836
-12.353704127565424
9.619287403677424
24.4632639047837
35.20561532005799
41.5533684290837
45.85030899519341
48.19409475852598
50.14724956130312
50.928511482413974
50.34256504158083
45.45967803463798
34.424353398947126
24.756237125200276
18.60379949645228
14.11154345006485
11.377126726176853
9.81460288395514
10.205233844510566
9.42397192339971
7.177843900205997
2.783245593957427
-5.0293736171511405
-9.71694514381628
-8.935683222705425
-4.150453955901427
3.1738765545128556
10.595864805065995
16.650644693675137
18.40848401617456
18.21316853589685
16.650644693675137
8.838025482566568
-2.0996414129854277
-10.79118028534371
-14.306858930342566
-16.064698252841993
-21.533531700617992
-29.9320973525597
-40.67444876783398
-49.85427634088655
-55.03013656824598
-59.71770809491112
-63.33104448004883
-64.79591058213168
-60.49897001602197
-49.17067215991455
-37.256427862973986
-28.760204470893417
-25.24452582589456
-22.21713588158999
-16.943617914091707
-12.939650568398566
-9.81460288395514
-8.642710002288853
-7.861448081177996
-3.662165255207141
3.7598229953459983
11.865415426871138
14.013885709925994
11.865415426871138
10.986495765621424
12.060730907148852
14.892805371175708
15.283436331731137
13.525597009231708
13.720912489509422
15.283436331731137
17.236591134508277
17.43190661478599
18.21316853589685
18.506141756313422
13.916227969787137
9.619287403677424
9.619287403677424
14.209201190203707
22.60776684214542
33.64309147783627
45.947966735332265
51.22148470283055
47.51049057755398
41.943999389639124
40.186160067139696
41.943999389639124
37.15877012283513
22.21713588158999
3.8574807354848555
-13.037308308537423
-30.029755092698558
-51.80743114366369
-72.02258335240711
-81.30006866559853
-79.3469138628214
-69.58113984893568
-60.108339055466544
-53.07698176546884
-43.70183871213855
-25.146868085755703
13.232623788815136
77.97970550087739
161.4770733196002
222.5131609063859
202.10269321736476
85.88998245212481
-71.24132143129626
-182.86411841000992
-202.39566643778133
-150.44174868390937
-77.97970550087739
-27.49065384908827
-9.521629663538567
-14.404516670481422
-27.783627069504846
-34.717326619363696
-33.44777599755856
-27.100022888532845
-17.236591134508277
-6.884870679789426
1.8066681925688564
6.39658197909514
10.302891584649425
15.674067292286564
19.971007858396277
23.48668650339513
22.998397802700847
19.287403677424276
17.82253757534142
20.55695429922942
26.514076447699704
30.811017013809415
33.74074921797513
35.49858854047456
33.44777599755856
30.908674753948272
29.9320973525597
32.27588311589227
38.62363622491798
44.38544289311055
45.654993514915695
38.42832074464027
27.588311589227132
18.40848401617456
10.595864805065995
3.9551384756237127
-3.1738765545128556
-8.74036774242771
-10.009918364232853
-10.302891584649425
-13.525597009231708
-22.705424582284277
-33.05714503700313
-39.11192492561227
-40.08850232700084
-34.22903791866941
-25.537499046311133
-17.236591134508277
-9.912260624093996
-4.345769436179141
0.34180209048599985
2.392614633401999
3.2715342946517127
4.443427176317998
5.224689097428855
8.05676356145571
9.81460288395514
8.545052262149996
6.005951018539712
4.834058136873426
8.252079041733426
13.623254749370565
19.58037689784085
23.389028763256274
21.338216220340275
16.650644693675137
10.595864805065995
5.224689097428855
2.392614633401999
0.6347753109025711
-1.8066681925688564
-7.861448081177996
-12.939650568398566
-12.84199282825971
-8.05676356145571
1.8066681925688564
12.549019607843137
20.84992751964599
26.318760967421987
29.63912413214313
31.787594415197987
29.2484931715877
23.58434424353399
16.84596017395285
7.568474860761425
-2.783245593957427
-15.576409552147707
-30.322728313115128
-45.16670481422141
-56.690318150606544
-59.22941939421683
-54.7371633478294
-46.14328221560998
-37.549401083390556
-32.95948729686427
-30.615701533531702
-29.2484931715877
-21.338216220340275
5.322346837567712
59.03410391393912
133.15632867933166
191.65331502250706
189.11421377889678
102.7847714961471
-40.28381780727855
-166.26230258640422
-214.40756847486077
-179.34843976501105
-104.05432211795224
-37.94003204394598
-2.392614633401999
5.322346837567712
2.0996414129854277
-0.43945983062485694
-0.9277485313191425
1.8066681925688564
5.615320057984283
10.498207064927138
17.041275654230564
22.510109102006563
25.537499046311133
24.17029068436713
22.119478141451133
20.361638818951704
17.13893339436942
15.283436331731137
15.283436331731137
18.60379949645228
24.95155260547799
30.518043793392845
33.64309147783627
32.764171816586554
32.27588311589227
33.838406958113985
34.52201113908598
35.889219501029984
37.84237430380713
41.065079728389414
44.28778515297169
45.75265125505455
45.75265125505455
41.16273746852827
33.545433737697415
24.17029068436713
10.888838025482567
-3.662165255207141
-17.627222095063708
-27.783627069504846
-33.74074921797513
-37.35408560311284
-39.11192492561227
-42.62760357061112
-46.72922865644312
-49.073014419775696
-48.877698939497975
-43.70183871213855
-37.4517433432517
-32.56885633630884
-28.467231250476843
-23.87731746395056
-16.55298695353628
-8.74036774242771
-1.2207217517357138
3.662165255207141
3.7598229953459983
3.076218814373999
2.490272373540856
2.392614633401999
2.490272373540856
1.7090104524299992
1.7090104524299992
1.416037232013428
2.68558785381857
4.541084916456855
3.5645075150682843
1.8066681925688564
-0.34180209048599985
-0.9277485313191425
0.9277485313191425
3.1738765545128556
5.224689097428855
5.908293278400855
8.74036774242771
14.990463111314565
21.63118944075685
29.2484931715877
36.27985046158541
41.358052948805984
42.04165712977798
36.37750820172427
26.709391927977418
13.623254749370565
1.513694972152285
-8.154421301594567
-19.385061417563133
-32.56885633630884
-47.80346379797055
-59.32707713435569
-61.67086289768826
-56.1043717097734
-47.0222018768597
-40.772106507972836
-37.06111238269627
-35.20561532005799
-35.10795757991913
-29.150835431448844
-7.470817120622568
42.529945830472265
122.12100404364081
200.73548485542076
219.58342870222017
132.08209353780424
-32.56885633630884
-180.32501716639965
-233.4508278019379
-187.94232089723047
-103.07774471656367
-35.98687724116884
-5.810635538261997
-2.197299153124285
-6.39658197909514
-9.033340962844282
-6.298924238956283
-1.416037232013428
1.1230640115968566
4.150453955901427
6.884870679789426
10.009918364232853
14.404516670481422
18.799114976729992
22.998397802700847
24.853894865339132
27.002365148393988
29.053177691309987
28.564888990615703
28.66254673075456
28.564888990615703
28.564888990615703
29.541466392004274
32.08056763561456
36.67048142214084
40.28381780727855
43.40886549172198
45.16670481422141
43.21355001144427
40.186160067139696
37.256427862973986
35.79156176089113
35.4009308003357
33.64309147783627
29.443808651865414
19.18974593728542
5.517662317845426
-8.838025482566568
-23.974975204089418
-36.0845349813077
-43.89715419241627
-46.33859769588769
-45.75265125505455
-45.45967803463798
-45.069047074082555
-44.580758373388264
-41.5533684290837
-37.549401083390556
-35.20561532005799
-31.592278934920273
-27.1976806286717
-22.021820401312276
-16.943617914091707
-12.939650568398566
-9.42397192339971
-7.373159380483711
-4.052796215762569
-0.14648661020828566
1.2207217517357138
1.9043259327077133
1.6113527122911422
2.490272373540856
5.810635538261997
9.912260624093996
13.623254749370565
13.623254749370565
11.572442206454566
8.44739452201114
4.150453955901427
1.9043259327077133
0.04882887006942855
-1.2207217517357138
-1.0254062714579995
1.7090104524299992
9.326314183260854
19.385061417563133
31.201647974364842
40.67444876783398
43.50652323186084
42.33463035019455
37.74471656366827
30.71335927367056
21.728847180895706
11.279468986037996
-0.04882887006942855
-14.892805371175708
-29.2484931715877
-39.79552910658427
-47.21751735713741
-50.34256504158083
-51.22148470283055
-48.97535667963683
-43.79949645227741
-37.74471656366827
-31.494621194781413
-28.564888990615703
-28.27191577019913
-26.90470740825513
-14.599832150759136
26.709391927977418
101.6128786144808
183.45006485084306
214.9935149156939
152.29724574654765
13.037308308537423
-129.6406500343328
-198.68467231250477
-177.59060044251163
-110.40207522697796
-48.48706797894255
-16.84596017395285
-9.033340962844282
-9.033340962844282
-7.861448081177996
-3.1738765545128556
1.416037232013428
6.103608758678568
9.42397192339971
9.81460288395514
10.888838025482567
12.45136186770428
15.088120851453422
18.701457236591136
21.533531700617992
23.779659723811704
24.365606164644845
25.732814526588847
26.416418707560844
24.072632944228275
22.705424582284277
24.4632639047837
30.518043793392845
38.525978484779124
44.19012741283284
46.240939955748836
44.28778515297169
43.89715419241627
46.43625543602655
47.412832837415124
45.45967803463798
39.99084458686198
32.95948729686427
24.560921644922562
14.209201190203707
2.68558785381857
-11.963073167009995
-26.318760967421987
-37.84237430380713
-47.60814831769284
-54.346532387273975
-58.8387884336614
-59.71770809491112
-57.37392233157855
-54.639505607690545
-52.6863508049134
-53.27229724574655
-52.19806210421912
-47.80346379797055
-41.5533684290837
-32.6665140764477
-23.389028763256274
-12.939650568398566
-1.1230640115968566
9.619287403677424
17.627222095063708
19.775692378118563
18.506141756313422
14.697489890897993
8.44739452201114
3.7598229953459983
0.8300907911802854
0.14648661020828566
1.416037232013428
3.2715342946517127
4.541084916456855
2.2949568932631417
-0.14648661020828566
-1.513694972152285
-2.2949568932631417
-0.04882887006942855
4.052796215762569
10.302891584649425
18.21316853589685
26.22110322728313
32.764171816586554
35.010299839780274
36.96345464255741
39.69787136644541
38.62363622491798
31.592278934920273
18.310826276035705
4.443427176317998
-6.103608758678568
-12.353704127565424
-14.892805371175708
-19.775692378118563
-28.95551995117113
-41.651026169222554
-54.15121690699626
-59.522392614633404
-57.95986877241169
-50.635538261997404
-40.479133287556266
-31.592278934920273
-25.342183566033416
-20.55695429922942
-4.638742656595713
34.81498435950255
100.83161669336995
175.34447241931792
210.50125886930647
161.9653620202945
35.49858854047456
-100.83161669336995
-171.34050507362477
-160.1098649576562
-103.85900663767453
-51.123826962691695
-24.4632639047837
-16.45532921339742
-16.45532921339742
-16.357671473258563
-14.50217441062028
-12.256046387426567
-8.74036774242771
-4.345769436179141
3.1738765545128556
10.498207064927138
12.84199282825971
12.549019607843137
11.377126726176853
13.81857022964828
21.43587396047913
30.71335927367056
36.27985046158541
33.74074921797513
28.467231250476843
25.049210345616846
23.19371328297856
23.096055542839704
22.60776684214542
25.146868085755703
34.32669565880827
49.073014419775696
63.13572899977112
65.77248798352025
57.178606851300835
43.604180971999696
29.9320973525597
19.87335011825742
11.572442206454566
5.224689097428855
1.0254062714579995
-1.513694972152285
-5.420004577706569
-17.13893339436942
-33.05714503700313
-46.92454413672083
-54.83482108796826
-55.22545204852369
-52.881666285191116
-49.85427634088655
-46.533913176165406
-41.5533684290837
-32.56885633630884
-22.60776684214542
-13.916227969787137
-10.009918364232853
-10.986495765621424
-10.205233844510566
-7.763790341039139
-5.420004577706569
-3.076218814373999
1.416037232013428
8.44739452201114
11.47478446631571
10.205233844510566
6.591897459372854
3.2715342946517127
4.150453955901427
6.6895551995117115
8.545052262149996
8.642710002288853
8.05676356145571
7.666132600900283
4.052796215762569
0.04882887006942855
-0.6347753109025711
2.392614633401999
7.177843900205997
7.080186160067139
3.2715342946517127
2.68558785381857
10.79118028534371
25.732814526588847
37.4517433432517
42.236972610055695
39.11192492561227
28.857862211032273
15.869382772564279
2.5879301136797133
-7.373159380483711
-16.45532921339742
-29.736781872281988
-47.21751735713741
-64.3076218814374
-70.06942854962998
-63.33104448004883
-52.10040436408026
-42.13931486991684
-37.35408560311284
-34.61966887922484
-29.541466392004274
-17.724879835202564
7.763790341039139
53.85824368657969
125.44136720836194
197.61043717097735
215.28648813611048
139.89471274891278
-5.517662317845426
-142.04318303196766
-201.61440451667048
-175.6374456397345
-106.30045014114596
-45.947966735332265
-15.185778591592278
-9.42397192339971
-14.795147631036851
-18.60379949645228
-18.89677271686885
-14.404516670481422
-5.127031357289998
7.373159380483711
19.092088197146563
23.19371328297856
21.43587396047913
17.52956435492485
15.771725032425422
20.263981078812847
25.63515678644999
27.002365148393988
23.87731746395056
20.752269779507134
21.826504921034562
23.682001983672848
25.146868085755703
25.63515678644999
25.63515678644999
28.174258030060273
30.71335927367056
31.885252155336843
31.885252155336843
32.764171816586554
35.889219501029984
36.768139162279695
34.0337224383917
26.90470740825513
16.748302433813993
8.44739452201114
1.9043259327077133
-2.2949568932631417
-5.127031357289998
-8.252079041733426
-13.525597009231708
-24.267948424505988
-35.20561532005799
-43.018234531166556
-45.947966735332265
-41.943999389639124
-36.768139162279695
-34.91264209964141
-33.74074921797513
-26.61173418783856
-14.892805371175708
-11.47478446631571
-17.43190661478599
-24.17029068436713
-24.65857938506142
-18.017853055619135
-9.912260624093996
-1.7090104524299992
4.931715877012284
8.154421301594567
9.619287403677424
9.912260624093996
10.400549324788281
8.05676356145571
2.68558785381857
0.04882887006942855
-0.14648661020828566
0.24414435034714274
0.24414435034714274
1.0254062714579995
4.150453955901427
5.615320057984283
6.103608758678568
6.005951018539712
5.0293736171511405
4.443427176317998
5.420004577706569
12.939650568398566
26.22110322728313
38.23300526436255
43.604180971999696
41.065079728389414
37.94003204394598
34.22903791866941
23.19371328297856
3.662165255207141
-19.58037689784085
-38.23300526436255
-51.709773403524835
-62.64744029907683
-69.0928511482414
-70.55771725032426
-65.57717250324254
-58.643472953383686
-53.07698176546884
-45.16670481422141
-33.545433737697415
-14.892805371175708
17.13893339436942
72.41321431296254
147.21904325932707
207.4738689250019
211.47783627069504
135.69542992294194
-2.0996414129854277
-141.0666056305791
-216.55603875791562
-206.49729152361334
-145.5588616769665
-83.05790798809797
-44.67841611352712
-32.08056763561456
-29.2484931715877
-24.17029068436713
-14.795147631036851
-2.8809033340962844
6.787212939650568
14.50217441062028
20.068665598535134
23.389028763256274
24.853894865339132
22.510109102006563
20.263981078812847
18.310826276035705
15.283436331731137
14.11154345006485
16.260013733119706
24.365606164644845
34.424353398947126
39.99084458686198
39.40489814602884
34.717326619363696
34.22903791866941
39.40489814602884
44.67841611352712
45.85030899519341
42.13931486991684
39.40489814602884
40.186160067139696
42.33463035019455
41.065079728389414
31.396963454642556
18.994430457007706
9.81460288395514
4.248111696040284
0.7324330510414282
-5.224689097428855
-14.306858930342566
-25.92813000686656
-36.27985046158541
-43.311207751583126
-50.73319600213626
-54.54184786755169
-51.416800183108265
-43.79949645227741
-35.98687724116884
-31.00633249408713
-24.4632639047837
-14.50217441062028
-3.076218814373999
6.591897459372854
9.326314183260854
7.177843900205997
2.783245593957427
-1.1230640115968566
-1.9043259327077133
-1.513694972152285
-0.34180209048599985
-0.14648661020828566
-0.34180209048599985
1.416037232013428
4.248111696040284
10.009918364232853
17.13893339436942
22.705424582284277
25.92813000686656
24.95155260547799
22.119478141451133
18.994430457007706
17.13893339436942
16.748302433813993
13.720912489509422
10.205233844510566
8.545052262149996
10.595864805065995
18.40848401617456
28.66254673075456
38.33066300450141
42.43228809033341
39.40489814602884
31.201647974364842
18.40848401617456
6.005951018539712
-4.345769436179141
-13.623254749370565
-22.314793621728846
-32.86182955672541
-42.62760357061112
-50.34256504158083
-54.639505607690545
-52.881666285191116
-45.947966735332265
-34.424353398947126
-24.65857938506142
-20.16632333867399
-13.427939269092851
6.787212939650568
53.27229724574655
124.1718165865568
191.3603418020905
203.46990157930875
120.0701915007248
-33.44777599755856
-175.1491569390402
-231.00938429846647
-191.65331502250706
-108.35126268406195
-35.4009308003357
3.36919203479057
14.306858930342566
12.45136186770428
6.884870679789426
4.541084916456855
4.736400396734569
6.005951018539712
9.521629663538567
11.865415426871138
13.525597009231708
16.357671473258563
20.654612039368278
24.65857938506142
24.95155260547799
25.049210345616846
25.537499046311133
25.92813000686656
27.97894254978256
29.834439612420844
31.103990234225986
30.71335927367056
29.053177691309987
27.100022888532845
24.756237125200276
26.514076447699704
32.37354085603113
39.11192492561227
45.069047074082555
46.533913176165406
43.50652323186084
36.37750820172427
28.27191577019913
21.24055848020142
12.158388647287708
2.490272373540856
-6.494239719233997
-14.209201190203707
-18.60379949645228
-20.947585259784848
-21.43587396047913
-23.389028763256274
-28.467231250476843
-35.889219501029984
-44.580758373388264
-48.97535667963683
-47.412832837415124
-40.38147554741741
-28.95551995117113
-19.48271915770199
-14.013885709925994
-11.865415426871138
-10.10757610437171
-6.884870679789426
-4.736400396734569
-2.490272373540856
-2.0996414129854277
-4.248111696040284
-5.615320057984283
-6.39658197909514
-5.420004577706569
-3.662165255207141
-2.490272373540856
-2.490272373540856
-5.127031357289998
-7.666132600900283
-11.279468986037996
-15.381094071869994
-15.576409552147707
-11.572442206454566
-2.392614633401999
10.009918364232853
23.48668650339513
35.10795757991913
42.04165712977798
47.21751735713741
47.90112153810941
40.38147554741741
27.295338368810558
13.13496604867628
2.392614633401999
-6.6895551995117115
-16.16235599298085
-26.416418707560844
-39.600213626306555
-52.19806210421912
-62.15915159838254
-66.84672312504769
-63.819333180743115
-56.29968719005112
-45.85030899519341
-35.79156176089113
-27.783627069504846
-17.82253757534142
4.931715877012284
57.86221103227283
138.9181353475242
211.0872053101396
216.65369649805447
120.55848020141909
-43.018234531166556
-188.13763637750822
-239.01731898985275
-191.45799954222935
-105.61684596017395
-38.33066300450141
-9.326314183260854
-5.615320057984283
-6.591897459372854
-5.322346837567712
-0.43945983062485694
5.517662317845426
11.181811245899137
14.892805371175708
15.576409552147707
17.82253757534142
21.43587396047913
24.365606164644845
27.002365148393988
27.49065384908827
27.68596932936599
27.97894254978256
28.760204470893417
29.443808651865414
27.295338368810558
25.537499046311133
24.365606164644845
24.4632639047837
27.97894254978256
32.37354085603113
35.49858854047456
34.81498435950255
32.764171816586554
32.471198596169984
30.811017013809415
27.392996108949415
21.14290074006256
12.646677347981994
4.443427176317998
-3.466849774929427
-9.521629663538567
-15.283436331731137
-20.84992751964599
-26.709391927977418
-35.596246280613414
-45.26436255436027
-54.24887464713512
-59.32707713435569
-57.37392233157855
-51.31914244296941
-42.92057679102769
-35.4009308003357
-29.346150911726557
-24.4632639047837
-22.021820401312276
-19.18974593728542
-16.84596017395285
-15.771725032425422
-13.13496604867628
-9.521629663538567
-3.8574807354848555
1.513694972152285
5.810635538261997
8.44739452201114
7.861448081177996
7.470817120622568
6.6895551995117115
4.736400396734569
3.662165255207141
3.36919203479057
5.224689097428855
7.959105821316854
10.400549324788281
10.986495765621424
7.177843900205997
3.2715342946517127
0.537117570763714
-0.9277485313191425
-0.8300907911802854
0.04882887006942855
4.248111696040284
12.549019607843137
24.072632944228275
35.4009308003357
42.43228809033341
47.705806057831694
49.951934081025406
45.45967803463798
34.81498435950255
20.947585259784848
9.42397192339971
-0.34180209048599985
-10.986495765621424
-24.560921644922562
-42.33463035019455
-57.66689555199512
-65.8701457236591
-65.6748302433814
-58.25284199282826
-49.073014419775696
-40.186160067139696
-34.424353398947126
-30.518043793392845
-21.24055848020142
5.71297779812314
65.96780346379796
152.00427252613107
220.2670328831922
210.30594338902876
94.48386358434425
-79.15159838254368
-217.0443274586099
-250.2479591058213
-188.43060959792479
-98.87846189059282
-34.424353398947126
-8.545052262149996
-6.103608758678568
-7.666132600900283
-6.103608758678568
-0.43945983062485694
6.201266498817426
12.84199282825971
19.092088197146563
22.90074006256199
25.92813000686656
25.439841306172273
21.43587396047913
18.21316853589685
16.748302433813993
18.40848401617456
21.045242999923705
23.19371328297856
23.682001983672848
21.43587396047913
21.533531700617992
24.4632639047837
28.66254673075456
33.3501182574197
36.86579690241855
40.67444876783398
44.48310063324941
47.80346379797055
48.584725719081405
42.529945830472265
33.15480277714199
23.19371328297856
14.892805371175708
9.42397192339971
4.541084916456855
0.43945983062485694
-4.931715877012284
-12.549019607843137
-22.119478141451133
-34.52201113908598
-44.28778515297169
-49.658960860608836
-50.73319600213626
-48.09643701838712
-45.75265125505455
-43.311207751583126
-40.28381780727855
-34.91264209964141
-27.588311589227132
-22.21713588158999
-17.43190661478599
-14.404516670481422
-13.427939269092851
-12.060730907148852
-10.79118028534371
-8.05676356145571
-4.638742656595713
-0.14648661020828566
4.248111696040284
5.224689097428855
5.224689097428855
5.420004577706569
6.6895551995117115
9.71694514381628
11.767757686732281
12.646677347981994
11.377126726176853
9.326314183260854
7.080186160067139
2.8809033340962844
0.43945983062485694
1.8066681925688564
8.74036774242771
21.14290074006256
34.424353398947126
45.947966735332265
52.588693064774546
53.56527046616312
48.09643701838712
34.61966887922484
19.092088197146563
4.638742656595713
-7.763790341039139
-18.89677271686885
-31.787594415197987
-44.873731593804834
-57.08094911116198
-64.01464866102083
-63.13572899977112
-58.44815747310597
-50.928511482413974
-43.99481193255512
-39.014267185473415
-32.56885633630884
-18.89677271686885
16.357671473258563
84.52277409018082
177.10231174181735
246.34164950026704
221.34126802471962
80.61646448462653
-110.69504844739453
-241.8493934538796
-250.9315632867933
-169.6803234912642
-71.43663691157397
-8.838025482566568
12.549019607843137
10.10757610437171
-0.7324330510414282
-6.787212939650568
-5.420004577706569
1.2207217517357138
10.79118028534371
17.52956435492485
19.678034637979707
18.60379949645228
19.18974593728542
23.19371328297856
26.318760967421987
29.2484931715877
29.541466392004274
26.61173418783856
23.779659723811704
22.021820401312276
23.291371023117417
25.92813000686656
30.127412832837415
34.424353398947126
35.303273060196844
35.889219501029984
37.06111238269627
38.91660944533455
41.74868390936141
43.11589227130541
42.62760357061112
38.1353475242237
31.885252155336843
26.22110322728313
19.287403677424276
12.45136186770428
4.345769436179141
-5.615320057984283
-16.650644693675137
-28.760204470893417
-39.11192492561227
-47.705806057831694
-52.78400854505226
-53.85824368657969
-52.881666285191116
-48.09643701838712
-42.04165712977798
-37.06111238269627
-32.471198596169984
-28.95551995117113
-24.4632639047837
-19.678034637979707
-14.50217441062028
-9.521629663538567
-7.666132600900283
-6.39658197909514
-6.494239719233997
-7.080186160067139
-5.615320057984283
-3.5645075150682843
-0.9277485313191425
0.04882887006942855
1.416037232013428
3.9551384756237127
4.931715877012284
5.420004577706569
4.150453955901427
1.2207217517357138
-0.8300907911802854
-2.2949568932631417
-1.416037232013428
-0.537117570763714
-0.14648661020828566
0.43945983062485694
0.537117570763714
4.248111696040284
10.79118028534371
18.21316853589685
25.537499046311133
31.103990234225986
37.06111238269627
42.72526131074998
47.51049057755398
48.19409475852598
40.38147554741741
27.68596932936599
13.525597009231708
0.7324330510414282
-9.033340962844282
-18.506141756313422
-28.27191577019913
-40.772106507972836
-52.97932402532997
-59.22941939421683
-58.44815747310597
-50.24490730144198
-40.86976424811169
-34.81498435950255
-32.56885633630884
-30.029755092698558
-13.720912489509422
30.22507057297627
107.5700007629511
193.02052338445105
224.46631570916304
153.46913862821393
-3.2715342946517127
-159.0356298161288
-227.00541695277332
-192.62989242389563
-106.39810788128482
-31.201647974364842
6.591897459372854
14.599832150759136
8.838025482566568
4.541084916456855
4.150453955901427
6.787212939650568
11.963073167009995
16.260013733119706
20.45929655909056
24.65857938506142
29.736781872281988
34.717326619363696
36.86579690241855
39.11192492561227
40.86976424811169
42.62760357061112
45.654993514915695
47.0222018768597
46.43625543602655
43.40886549172198
40.96742198825055
39.79552910658427
36.86579690241855
35.596246280613414
36.86579690241855
40.772106507972836
46.14328221560998
49.17067215991455
50.14724956130312
47.21751735713741
42.62760357061112
38.1353475242237
30.029755092698558
18.89677271686885
5.322346837567712
-8.642710002288853
-20.947585259784848
-31.68993667505913
-39.40489814602884
-47.51049057755398
-56.006713969634546
-62.64744029907683
-66.26077668421455
-63.91699092088197
-58.350499732967116
-51.02616922255284
-41.943999389639124
-34.61966887922484
-29.053177691309987
-24.95155260547799
-20.068665598535134
-14.599832150759136
-10.79118028534371
-6.787212939650568
-5.0293736171511405
-5.810635538261997
-6.39658197909514
-6.39658197909514
-3.9551384756237127
-0.14648661020828566
3.5645075150682843
4.638742656595713
0.7324330510414282
-2.5879301136797133
-4.443427176317998
-4.150453955901427
-1.7090104524299992
0.04882887006942855
2.68558785381857
6.494239719233997
12.158388647287708
18.11551079575799
21.338216220340275
26.025787747005417
33.3501182574197
42.822919050888835
51.416800183108265
52.295719844357976
43.99481193255512
28.076600289921416
12.646677347981994
2.8809033340962844
-3.36919203479057
-8.349736781872283
-18.21316853589685
-34.91264209964141
-52.881666285191116
-65.6748302433814
-67.82330052643626
-62.745098039215684
-54.639505607690545
-46.826886396581976
-42.13931486991684
-35.4009308003357
-19.678034637979707
17.82253757534142
87.84313725490196
172.80537117570765
218.89982452124818
165.8716716258488
17.041275654230564
-145.65651941710536
-230.22812237735562
-207.2785534447242
-125.63668268863965
-48.877698939497975
-6.298924238956283
4.736400396734569
2.0996414129854277
-2.392614633401999
-2.783245593957427
0.24414435034714274
2.783245593957427
6.494239719233997
9.326314183260854
11.377126726176853
15.381094071869994
20.84992751964599
27.392996108949415
31.494621194781413
33.05714503700313
32.56885633630884
29.150835431448844
27.100022888532845
26.709391927977418
29.053177691309987
34.52201113908598
39.014267185473415
40.96742198825055
39.014267185473415
37.549401083390556
38.42832074464027
37.35408560311284
34.0337224383917
27.49065384908827
19.58037689784085
12.939650568398566
8.05676356145571
5.517662317845426
0.9277485313191425
-6.298924238956283
-14.697489890897993
-24.17029068436713
-31.201647974364842
-36.27985046158541
-40.28381780727855
-43.70183871213855
-48.09643701838712
-49.951934081025406
-47.90112153810941
-40.772106507972836
-31.103990234225986
-24.072632944228275
-18.40848401617456
-13.720912489509422
-7.666132600900283
1.0254062714579995
8.44739452201114
13.13496604867628
13.720912489509422
12.646677347981994
11.47478446631571
9.228656443121995
8.545052262149996
7.080186160067139
4.345769436179141
1.8066681925688564
-0.43945983062485694
-1.0254062714579995
-1.6113527122911422
-2.0019836728465705
-2.9785610742351416
-6.591897459372854
-9.42397192339971
-11.670099946593423
-12.158388647287708
-9.81460288395514
-6.982528419928283
-3.7598229953459983
-1.6113527122911422
1.2207217517357138
5.420004577706569
8.05676356145571
11.572442206454566
15.967040512703136
22.119478141451133
30.420386053253985
37.06111238269627
39.600213626306555
34.32669565880827
24.365606164644845
13.525597009231708
1.2207217517357138
-10.302891584649425
-21.826504921034562
-32.178225375753414
-41.358052948805984
-50.14724956130312
-54.639505607690545
-54.15121690699626
-47.80346379797055
-36.96345464255741
-26.514076447699704
-17.43190661478599
-11.181811245899137
0.14648661020828566
30.908674753948272
89.21034561684596
164.21149004348823
212.35675593194478
187.06340123598076
78.07736324101626
-68.89753566796368
-174.36789501792936
-191.45799954222935
-134.4258793011368
-55.51842526894026
-0.537117570763714
20.654612039368278
20.068665598535134
15.283436331731137
12.353704127565424
7.959105821316854
2.9785610742351416
-2.490272373540856
-5.127031357289998
-2.392614633401999
2.0996414129854277
7.470817120622568
11.767757686732281
15.674067292286564
18.11551079575799
17.82253757534142
18.799114976729992
21.045242999923705
25.049210345616846
31.201647974364842
36.182192721446555
40.28381780727855
42.13931486991684
43.50652323186084
45.26436255436027
46.43625543602655
50.14724956130312
54.346532387273975
56.59266041046769
55.420767528801406
50.44022278171969
45.16670481422141
38.1353475242237
30.127412832837415
22.021820401312276
10.888838025482567
-3.076218814373999
-18.994430457007706
-31.68993667505913
-42.92057679102769
-54.83482108796826
-49.073014419775696
-12.646677347981994
35.69390402075227
62.061493858243686
55.90905622949569
35.20561532005799
12.74433508812085
-0.9277485313191425
1.9043259327077133
13.623254749370565
24.65857938506142
31.885252155336843
34.32669565880827
26.025787747005417
10.400549324788281
1.1230640115968566
-2.392614633401999
-4.834058136873426
-6.298924238956283
-10.009918364232853
-15.576409552147707
-19.287403677424276
-17.920195315480278
-16.748302433813993
-17.041275654230564
-13.232623788815136
-11.670099946593423
-17.13893339436942
-24.853894865339132
-32.764171816586554
-38.818951705195694
-41.651026169222554
-39.014267185473415
-35.20561532005799
-33.15480277714199
-27.588311589227132
-20.752269779507134
-13.037308308537423
-3.36919203479057
1.9043259327077133
-1.3183794918745708
-13.427939269092851
-28.760204470893417
-45.45967803463798
-63.13572899977112
-76.41718165865568
-88.03845273517967
-98.78080415045396
-105.81216144045166
-107.96063172350652
-101.22224765392538
-87.45250629434653
-70.16708628976883
-54.7371633478294
-44.97138933394369
-38.03768978408484
-33.05714503700313
-19.385061417563133
19.678034637979707
87.7454795147631
161.18410009918364
188.03997863736936
130.91020065613793
4.150453955901427
-128.2734416723888
-198.29404135194935
-189.60250247959107
-132.8633554589151
-72.60852979324025
-37.35408560311284
-26.807049668116274
-30.029755092698558
-32.764171816586554
-30.029755092698558
-26.22110322728313
-21.728847180895706
-17.724879835202564
-11.865415426871138
-3.662165255207141
4.150453955901427
11.865415426871138
16.16235599298085
18.60379949645228
20.16632333867399
19.678034637979707
20.947585259784848
23.48668650339513
28.076600289921416
35.10795757991913
40.772106507972836
44.48310063324941
44.38544289311055
43.79949645227741
45.069047074082555
48.68238345922026
57.37392233157855
67.43266956588083
76.51483939879454
83.6438544289311
85.49935149156939
81.10475318532082
67.82330052643626
48.68238345922026
28.076600289921416
9.326314183260854
-3.466849774929427
-15.088120851453422
-28.27191577019913
-42.72526131074998
-56.49500267032883
-64.20996414129854
-66.26077668421455
-63.6240177004654
-59.71770809491112
-57.471580071717405
-53.85824368657969
-49.073014419775696
-41.16273746852827
-29.346150911726557
-17.920195315480278
-9.619287403677424
-7.080186160067139
-2.197299153124285
18.310826276035705
66.45609216449226
145.75417715724421
225.05226214999618
247.02525368123904
172.9030289158465
28.760204470893417
-105.0308995193408
-168.70374608987564
-162.94193942168306
-131.10551613641564
-108.83955138475623
-97.3159380483711
-86.96421759365225
-69.77645532921339
-47.51049057755398
-28.467231250476843
-16.16235599298085
-11.670099946593423
-7.959105821316854
-1.0254062714579995
6.39658197909514
15.088120851453422
22.021820401312276
26.416418707560844
28.564888990615703
27.68596932936599
27.783627069504846
30.029755092698558
35.69390402075227
41.26039520866713
41.74868390936141
40.08850232700084
37.4517433432517
36.67048142214084
39.307240405889985
42.04165712977798
43.21355001144427
40.38147554741741
37.15877012283513
35.79156176089113
34.81498435950255
35.4009308003357
34.81498435950255
33.74074921797513
32.37354085603113
28.27191577019913
22.412451361867703
14.697489890897993
8.74036774242771
5.420004577706569
1.513694972152285
-1.8066681925688564
-6.787212939650568
-11.670099946593423
-14.013885709925994
-15.185778591592278
-17.041275654230564
-23.19371328297856
-30.22507057297627
-34.0337224383917
-34.424353398947126
-30.420386053253985
-25.92813000686656
-22.119478141451133
-17.724879835202564
-13.037308308537423
-6.298924238956283
-0.14648661020828566
5.127031357289998
10.400549324788281
16.45532921339742
27.49065384908827
39.20958266575113
49.26832990005341
56.88563363088426
58.936446173800256
53.36995498588541
36.67048142214084
13.330281528953995
-11.279468986037996
-35.10795757991913
-52.6863508049134
-63.6240177004654
-69.19050888838025
-71.63195239185168
-72.90150301365682
-70.4600595101854
-66.55374990463112
-61.5732051575494
-56.1043717097734
-52.19806210421912
-47.0222018768597
-40.57679102769512
-31.787594415197987
-22.119478141451133
-15.381094071869994
-11.572442206454566
-12.84199282825971
-15.47875181200885
-15.674067292286564
-14.697489890897993
-12.549019607843137
-10.693522545204852
-6.787212939650568
-1.1230640115968566
2.68558785381857
6.298924238956283
7.959105821316854
8.252079041733426
7.470817120622568
4.931715877012284
4.150453955901427
4.834058136873426
7.861448081177996
11.767757686732281
12.549019607843137
11.963073167009995
11.181811245899137
13.81857022964828
20.16632333867399
26.709391927977418
33.252460517280845
35.49858854047456
34.717326619363696
35.20561532005799
37.35408560311284
40.28381780727855
38.62363622491798
31.00633249408713
18.701457236591136
3.7598229953459983
-7.568474860761425
-15.381094071869994
-18.994430457007706
-19.58037689784085
-20.752269779507134
-21.533531700617992
-22.803082322423133
-21.533531700617992
-13.232623788815136
8.05676356145571
53.07698176546884
116.84748607614252
170.3639276722362
167.53185320820936
84.91340505073624
-41.84634164950027
-144.97291523613336
-173.87960631723507
-134.52353704127566
-72.90150301365682
-26.709391927977418
-9.71694514381628
-9.81460288395514
-10.986495765621424
-8.545052262149996
-2.8809033340962844
0.24414435034714274
1.0254062714579995
0.537117570763714
-1.3183794918745708
-1.1230640115968566
0.04882887006942855
3.2715342946517127
8.74036774242771
12.549019607843137
14.599832150759136
13.916227969787137
13.037308308537423
12.74433508812085
10.498207064927138
9.326314183260854
9.130998702983138
11.865415426871138
16.943617914091707
21.24055848020142
24.072632944228275
22.21713588158999
17.43190661478599
12.646677347981994
7.861448081177996
5.420004577706569
4.638742656595713
5.908293278400855
6.298924238956283
1.6113527122911422
-6.005951018539712
-16.943617914091707
-29.346150911726557
-44.38544289311055
-66.65140764476998
-92.92133974212253
-115.77325093461509
-126.71091783016709
-126.61326009002823
-116.45685511558709
-94.38620584420539
-76.12420843823911
-62.64744029907683
-41.943999389639124
-22.60776684214542
-10.009918364232853
2.9785610742351416
22.510109102006563
46.14328221560998
65.96780346379796
79.83520256351568
87.45250629434653
90.57755397878996
89.21034561684596
85.59700923170824
84.42511635004196
81.39772640573739
77.88204776073853
77.78439002059967
78.27267872129397
78.95628290226597
79.05394064240483
77.78439002059967
72.5108720531014
64.50293736171511
60.01068131532769
57.178606851300835
57.27626459143969
61.37788967727169
64.60059510185397
65.57717250324254
63.819333180743115
63.6240177004654
68.50690470740825
73.58510719462882
79.44457160296025
98.39017318989853
115.18730449378195
93.70260166323338
70.16708628976883
82.56961928740368
69.67879758907453
25.342183566033416
22.314793621728846
33.545433737697415
9.130998702983138
-1.0254062714579995
15.283436331731137
-3.2715342946517127
-67.13969634546426
-138.13687342641336
-183.74303807125963
-203.86053253986418
-229.25154497596705
-250.7362478065156
-243.99786373693445
-233.6461432822156
-223.8803692683299
-192.14160372320134
-155.71526665140763
-134.62119478141452
-112.06225680933852
-79.54222934309911
-51.709773403524835
-13.623254749370565
57.95986877241169
132.76569771877624
165.67635614557108
131.10551613641564
26.318760967421987
-95.55809872587167
-155.3246356908522
-131.39848935683221
-71.33897917143511
-16.943617914091707
20.45929655909056
32.471198596169984
31.201647974364842
37.64705882352941
45.947966735332265
45.45967803463798
41.651026169222554
41.16273746852827
38.1353475242237
35.49858854047456
41.5533684290837
44.77607385366598
42.236972610055695
42.43228809033341
42.33463035019455
38.42832074464027
33.545433737697415
30.518043793392845
24.072632944228275
16.357671473258563
15.869382772564279
17.627222095063708
20.263981078812847
26.709391927977418
30.908674753948272
29.9320973525597
26.90470740825513
26.807049668116274
28.174258030060273
29.053177691309987
31.201647974364842
29.2484931715877
23.974975204089418
19.48271915770199
14.795147631036851
10.79118028534371
5.810635538261997
-0.6347753109025711
-10.79118028534371
-23.096055542839704
-31.592278934920273
-37.256427862973986
-37.35408560311284
-31.2993057145037
-26.22110322728313
-24.267948424505988
-23.779659723811704
-20.068665598535134
-14.404516670481422
-10.693522545204852
-7.666132600900283
-6.787212939650568
-4.150453955901427
2.9785610742351416
10.205233844510566
14.892805371175708
14.990463111314565
12.549019607843137
9.521629663538567
6.298924238956283
5.127031357289998
2.197299153124285
-1.3183794918745708
-2.783245593957427
-3.076218814373999
-0.7324330510414282
2.392614633401999
5.810635538261997
7.275501640344854
5.517662317845426
5.224689097428855
5.127031357289998
5.127031357289998
5.127031357289998
3.36919203479057
2.2949568932631417
1.2207217517357138
3.076218814373999
8.154421301594567
13.623254749370565
19.971007858396277
25.049210345616846
28.564888990615703
28.66254673075456
23.096055542839704
14.599832150759136
3.1738765545128556
-7.470817120622568
-14.990463111314565
-22.803082322423133
-32.471198596169984
-43.604180971999696
-48.19409475852598
-43.50652323186084
-35.20561532005799
-25.146868085755703
-15.967040512703136
-7.861448081177996
-2.490272373540856
-1.513694972152285
1.513694972152285
14.11154345006485
48.19409475852598
105.7145037003128
161.37941557946135
173.5866330968185
112.94117647058823
2.9785610742351416
-92.62836652170596
-125.44136720836194
-95.16746776531625
-43.89715419241627
-6.884870679789426
7.861448081177996
7.275501640344854
2.2949568932631417
-2.197299153124285
-3.1738765545128556
-2.0019836728465705
-1.2207217517357138
2.0019836728465705
4.345769436179141
5.71297779812314
8.349736781872283
10.888838025482567
12.549019607843137
11.47478446631571
10.498207064927138
9.42397192339971
6.6895551995117115
6.982528419928283
9.42397192339971
12.939650568398566
16.357671473258563
18.21316853589685
20.947585259784848
22.90074006256199
24.65857938506142
24.756237125200276
21.24055848020142
18.799114976729992
18.89677271686885
22.314793621728846
27.100022888532845
30.518043793392845
31.592278934920273
25.63515678644999
13.525597009231708
-1.6113527122911422
-19.775692378118563
-37.06111238269627
-51.51445792324712
-60.30365453574426
-63.72167544060426
-64.89356832227054
-62.54978255893797
-58.643472953383686
-52.97932402532997
-46.63157091630426
-41.16273746852827
-34.424353398947126
-28.467231250476843
-21.728847180895706
-14.306858930342566
-9.130998702983138
-5.127031357289998
-3.8574807354848555
-3.466849774929427
-2.783245593957427
-2.68558785381857
-1.2207217517357138
-1.1230640115968566
-1.2207217517357138
-0.43945983062485694
0.14648661020828566
2.783245593957427
5.71297779812314
9.228656443121995
12.549019607843137
11.670099946593423
6.787212939650568
-2.68558785381857
-10.986495765621424
-12.84199282825971
-10.10757610437171
-5.420004577706569
-3.8574807354848555
-3.5645075150682843
-0.6347753109025711
5.517662317845426
16.357671473258563
26.709391927977418
34.0337224383917
36.67048142214084
33.64309147783627
28.564888990615703
20.263981078812847
10.009918364232853
0.04882887006942855
-9.619287403677424
-17.13893339436942
-25.146868085755703
-31.68993667505913
-34.0337224383917
-33.3501182574197
-28.760204470893417
-23.096055542839704
-16.357671473258563
-9.521629663538567
-4.931715877012284
-0.24414435034714274
4.834058136873426
17.82253757534142
49.85427634088655
101.71053635461966
150.53940642404822
148.19562066071566
71.92492561226825
-44.19012741283284
-133.7422751201648
-152.68787670710307
-114.79667353322652
-60.79194323643854
-22.412451361867703
-9.521629663538567
-11.865415426871138
-18.506141756313422
-20.16632333867399
-14.599832150759136
-6.787212939650568
0.9277485313191425
4.541084916456855
5.908293278400855
8.545052262149996
11.670099946593423
15.576409552147707
17.43190661478599
18.506141756313422
19.092088197146563
17.82253757534142
17.920195315480278
19.287403677424276
23.87731746395056
31.00633249408713
35.98687724116884
37.74471656366827
34.91264209964141
32.08056763561456
31.9829098954757
31.885252155336843
31.787594415197987
30.518043793392845
28.369573510337986
24.560921644922562
18.60379949645228
12.646677347981994
2.8809033340962844
-7.568474860761425
-10.986495765621424
-4.834058136873426
6.298924238956283
10.595864805065995
4.931715877012284
-6.298924238956283
-18.40848401617456
-26.416418707560844
-33.44777599755856
-39.69787136644541
-43.40886549172198
-42.62760357061112
-35.303273060196844
-27.100022888532845
-20.947585259784848
-16.064698252841993
-11.963073167009995
-7.666132600900283
-7.470817120622568
-11.08415350576028
-14.50217441062028
-13.525597009231708
-5.517662317845426
0.6347753109025711
0.24414435034714274
-4.541084916456855
-8.935683222705425
-9.130998702983138
-9.81460288395514
-11.670099946593423
-12.549019607843137
-12.74433508812085
-12.74433508812085
-15.674067292286564
-16.748302433813993
-11.963073167009995
-5.0293736171511405
1.2207217517357138
4.443427176317998
8.252079041733426
13.81857022964828
17.724879835202564
21.728847180895706
26.807049668116274
35.49858854047456
45.069047074082555
47.90112153810941
42.04165712977798
27.295338368810558
10.009918364232853
-4.541084916456855
-16.55298695353628
-25.24452582589456
-32.37354085603113
-35.79156176089113
-35.4009308003357
-34.717326619363696
-34.424353398947126
-37.84237430380713
-41.84634164950027
-42.04165712977798
-37.4517433432517
-26.61173418783856
-11.181811245899137
14.50217441062028
61.28023193713283
127.88281071183337
181.88754100862135
165.96932936598765
61.5732051575494
-78.27267872129397
-175.24681467917907
-191.06736858167392
-149.2698558022431
-91.45647364003968
-46.533913176165406
-23.291371023117417
-13.720912489509422
-10.498207064927138
-7.373159380483711
-4.345769436179141
-4.736400396734569
-4.443427176317998
-1.416037232013428
6.591897459372854
17.041275654230564
23.682001983672848
26.807049668116274
26.807049668116274
27.881284809643702
31.494621194781413
34.0337224383917
34.91264209964141
31.9829098954757
27.588311589227132
25.342183566033416
26.318760967421987
31.592278934920273
35.98687724116884
38.03768978408484
38.42832074464027
36.57282368200198
35.010299839780274
34.61966887922484
37.15877012283513
39.69787136644541
37.15877012283513
33.05714503700313
28.95551995117113
24.853894865339132
17.13893339436942
2.392614633401999
-14.599832150759136
-30.127412832837415
-41.16273746852827
-48.877698939497975
-60.108339055466544
-85.0110627908751
-130.03128099488822
-171.82879377431905
-181.88754100862135
-164.99275196459908
-141.2619211108568
-118.21469443808652
-91.65178912031739
-66.16311894407569
-46.240939955748836
-28.564888990615703
-19.385061417563133
-17.334248874647134
-13.81857022964828
-11.377126726176853
-12.74433508812085
-13.525597009231708
-11.181811245899137
-11.767757686732281
-12.45136186770428
-6.494239719233997
-8.838025482566568
-16.55298695353628
-12.84199282825971
-13.720912489509422
-25.342183566033416
-23.48668650339513
-9.912260624093996
-12.84199282825971
-21.338216220340275
-6.298924238956283
10.693522545204852
13.623254749370565
19.48271915770199
30.518043793392845
41.5533684290837
51.02616922255284
62.2568093385214
74.85465781643397
80.51880674448768
81.00709544518196
81.30006866559853
78.85862516212711
68.21393148699168
53.17463950560769
40.38147554741741
26.318760967421987
15.674067292286564
14.306858930342566
16.748302433813993
20.068665598535134
24.267948424505988
27.68596932936599
27.002365148393988
25.537499046311133
32.86182955672541
53.760585946440834
97.70656900892652
165.57869840543222
228.4702830548562
239.7985809109636
165.1880674448768
24.756237125200276
-110.49973296711681
-174.75852597848478
-155.22697795071335
-94.09323262378882
-35.10795757991913
2.5879301136797133
17.334248874647134
19.092088197146563
16.748302433813993
14.990463111314565
13.232623788815136
11.963073167009995
14.306858930342566
17.334248874647134
20.654612039368278
25.049210345616846
26.90470740825513
26.709391927977418
24.65857938506142
22.705424582284277
20.654612039368278
18.21316853589685
18.11551079575799
19.18974593728542
21.92416266117342
25.830472266727703
27.783627069504846
28.857862211032273
28.076600289921416
27.295338368810558
27.97894254978256
29.63912413214313
33.3501182574197
36.0845349813077
36.768139162279695
34.424353398947126
27.881284809643702
20.55695429922942
11.865415426871138
4.052796215762569
-1.2207217517357138
-6.201266498817426
-10.888838025482567
-17.82253757534142
-25.146868085755703
-30.908674753948272
-35.4009308003357
-37.4517433432517
-39.014267185473415
-39.20958266575113
-37.4517433432517
-34.52201113908598
-29.63912413214313
-25.439841306172273
-21.533531700617992
-17.43190661478599
-15.381094071869994
-13.720912489509422
-12.45136186770428
-10.693522545204852
-9.130998702983138
-8.545052262149996
-6.6895551995117115
-5.517662317845426
-3.9551384756237127
-1.1230640115968566
0.8300907911802854
2.783245593957427
3.076218814373999
2.392614633401999
0.9277485313191425
-1.8066681925688564
-3.9551384756237127
-6.201266498817426
-5.517662317845426
-0.24414435034714274
6.201266498817426
11.767757686732281
13.232623788815136
11.963073167009995
10.986495765621424
10.79118028534371
13.525597009231708
16.748302433813993
18.506141756313422
16.357671473258563
9.130998702983138
0.7324330510414282
-8.642710002288853
-17.920195315480278
-26.22110322728313
-34.91264209964141
-42.92057679102769
-49.75661860074769
-51.02616922255284
-45.75265125505455
-39.11192492561227
-32.27588311589227
-27.783627069504846
-26.123445487144274
-25.63515678644999
-19.287403677424276
7.568474860761425
63.13572899977112
138.23453116655222
194.77836270695047
183.25474937056535
87.25719081406882
-55.61608300907912
-168.70374608987564
-198.29404135194935
-155.51995117112992
-88.4290836957351
-39.014267185473415
-14.990463111314565
-5.420004577706569
-2.0996414129854277
0.04882887006942855
0.537117570763714
0.04882887006942855
-0.24414435034714274
-0.24414435034714274
1.8066681925688564
3.466849774929427
5.810635538261997
10.498207064927138
14.892805371175708
19.385061417563133
21.92416266117342
23.389028763256274
24.267948424505988
23.87731746395056
23.974975204089418
23.48668650339513
24.95155260547799
29.053177691309987
31.68993667505913
33.44777599755856
34.0337224383917
35.303273060196844
38.03768978408484
39.893186846723125
40.86976424811169
39.20958266575113
35.889219501029984
30.615701533531702
21.92416266117342
12.74433508812085
2.197299153124285
-9.326314183260854
-20.654612039368278
-31.885252155336843
-41.16273746852827
-49.46364538033112
-54.44419012741283
-55.22545204852369
-54.639505607690545
-51.80743114366369
-47.705806057831694
-42.33463035019455
-36.768139162279695
-32.56885633630884
-27.68596932936599
-22.90074006256199
-15.771725032425422
-6.494239719233997
-0.43945983062485694
1.9043259327077133
1.513694972152285
1.513694972152285
2.783245593957427
3.7598229953459983
5.224689097428855
4.541084916456855
2.2949568932631417
0.43945983062485694
-1.6113527122911422
-1.3183794918745708
0.34180209048599985
2.5879301136797133
3.662165255207141
2.2949568932631417
1.9043259327077133
2.2949568932631417
5.224689097428855
10.986495765621424
15.674067292286564
19.58037689784085
21.92416266117342
24.267948424505988
27.295338368810558
29.63912413214313
31.396963454642556
28.27191577019913
19.87335011825742
9.033340962844282
-2.0019836728465705
-9.71694514381628
-16.064698252841993
-22.998397802700847
-32.37354085603113
-45.85030899519341
-59.32707713435569
-68.79987792782482
-68.21393148699168
-56.983291371023114
-42.822919050888835
-31.00633249408713
-26.416418707560844
-26.514076447699704
-23.87731746395056
-8.44739452201114
33.93606469825284
103.95666437781338
173.00068665598536
188.23529411764707
115.48027771419852
-16.357671473258563
-137.74624246585793
-188.43060959792479
-163.62554360265506
-105.7145037003128
-56.59266041046769
-32.6665140764477
-24.17029068436713
-18.799114976729992
-13.916227969787137
-7.959105821316854
-3.662165255207141
-0.8300907911802854
2.783245593957427
7.470817120622568
14.013885709925994
18.701457236591136
21.14290074006256
21.92416266117342
20.752269779507134
21.43587396047913
23.779659723811704
27.002365148393988
29.834439612420844
30.518043793392845
30.908674753948272
30.71335927367056
31.396963454642556
33.545433737697415
34.717326619363696
37.15877012283513
40.57679102769512
45.654993514915695
51.80743114366369
54.24887464713512
52.19806210421912
45.55733577477684
36.37750820172427
25.24452582589456
12.353704127565424
2.392614633401999
-5.420004577706569
-12.84199282825971
-20.55695429922942
-30.615701533531702
-41.74868390936141
-52.295719844357976
-57.86221103227283
-57.56923781185626
-55.03013656824598
-49.26832990005341
-41.74868390936141
-34.0337224383917
-27.68596932936599
-24.560921644922562
-20.947585259784848
-16.16235599298085
-9.326314183260854
-2.392614633401999
0.537117570763714
2.197299153124285
3.36919203479057
4.345769436179141
4.150453955901427
0.24414435034714274
-5.127031357289998
-9.619287403677424
-8.252079041733426
-0.8300907911802854
6.494239719233997
12.060730907148852
14.306858930342566
14.11154345006485
12.45136186770428
8.252079041733426
5.810635538261997
6.6895551995117115
11.572442206454566
17.236591134508277
18.89677271686885
19.58037689784085
20.752269779507134
22.314793621728846
23.779659723811704
25.537499046311133
31.00633249408713
36.0845349813077
35.010299839780274
25.830472266727703
11.47478446631571
-0.7324330510414282
-12.060730907148852
-23.779659723811704
-34.61966887922484
-44.580758373388264
-51.80743114366369
-55.713740749217976
-51.61211566338598
-38.525978484779124
-24.072632944228275
-13.037308308537423
-8.545052262149996
-6.6895551995117115
-0.04882887006942855
17.82253757534142
57.66689555199512
118.11703669794767
172.51239795529108
170.85221637293049
83.4485389486534
-53.66292820630198
-165.1880674448768
-196.04791332875564
-153.17616540779736
-86.57358663309682
-35.889219501029984
-13.232623788815136
-8.154421301594567
-8.154421301594567
-9.326314183260854
-6.884870679789426
-0.8300907911802854
7.763790341039139
16.45532921339742
20.263981078812847
18.89677271686885
13.330281528953995
10.595864805065995
14.599832150759136
18.994430457007706
20.45929655909056
19.48271915770199
20.361638818951704
23.389028763256274
22.510109102006563
18.40848401617456
15.185778591592278
18.89677271686885
27.68596932936599
32.27588311589227
30.127412832837415
24.072632944228275
20.361638818951704
20.84992751964599
19.87335011825742
17.43190661478599
15.088120851453422
14.013885709925994
11.279468986037996
4.736400396734569
0.04882887006942855
-2.197299153124285
-5.420004577706569
-12.549019607843137
-25.732814526588847
-39.600213626306555
-48.68238345922026
-49.073014419775696
-44.38544289311055
-41.74868390936141
-39.11192492561227
-35.010299839780274
-29.541466392004274
-23.682001983672848
-20.068665598535134
-17.334248874647134
-15.771725032425422
-12.84199282825971
-6.591897459372854
-0.6347753109025711
3.2715342946517127
2.490272373540856
-1.416037232013428
-3.9551384756237127
-3.5645075150682843
0.14648661020828566
3.2715342946517127
4.443427176317998
4.248111696040284
2.490272373540856
2.68558785381857
2.68558785381857
1.513694972152285
0.43945983062485694
-0.6347753109025711
-0.7324330510414282
-0.9277485313191425
1.416037232013428
8.349736781872283
15.869382772564279
22.60776684214542
26.318760967421987
28.564888990615703
31.787594415197987
34.22903791866941
35.303273060196844
33.3501182574197
29.346150911726557
22.803082322423133
11.670099946593423
-0.14648661020828566
-11.572442206454566
-21.826504921034562
-30.811017013809415
-40.186160067139696
-47.31517509727627
-50.34256504158083
-46.826886396581976
-38.03768978408484
-30.322728313115128
-24.4632639047837
-21.92416266117342
-20.752269779507134
-11.47478446631571
18.11551079575799
79.63988708323797
158.84031433585108
209.5246814679179
179.15312428473334
59.71770809491112
-87.25719081406882
-185.01258869306477
-197.80575265125506
-148.39093614099338
-86.57358663309682
-43.311207751583126
-23.19371328297856
-13.623254749370565
-3.9551384756237127
4.736400396734569
11.47478446631571
13.916227969787137
14.50217441062028
16.55298695353628
18.994430457007706
21.533531700617992
21.533531700617992
20.361638818951704
21.045242999923705
22.803082322423133
26.90470740825513
29.9320973525597
29.736781872281988
26.416418707560844
19.58037689784085
13.525597009231708
10.79118028534371
13.916227969787137
21.338216220340275
26.807049668116274
29.834439612420844
29.63912413214313
28.95551995117113
31.201647974364842
34.22903791866941
35.98687724116884
32.95948729686427
26.318760967421987
18.310826276035705
9.81460288395514
4.150453955901427
-0.6347753109025711
-7.470817120622568
-15.47875181200885
-24.267948424505988
-31.00633249408713
-35.79156176089113
-37.06111238269627
-35.20561532005799
-33.93606469825284
-30.420386053253985
-24.17029068436713
-17.041275654230564
-11.377126726176853
-9.521629663538567
-8.252079041733426
-7.470817120622568
-5.810635538261997
-2.197299153124285
0.04882887006942855
1.9043259327077133
2.5879301136797133
2.68558785381857
3.8574807354848555
4.541084916456855
5.420004577706569
5.0293736171511405
4.541084916456855
5.615320057984283
6.005951018539712
6.494239719233997
4.736400396734569
0.9277485313191425
-3.076218814373999
-7.959105821316854
-11.08415350576028
-11.377126726176853
-7.177843900205997
0.04882887006942855
4.834058136873426
7.861448081177996
9.521629663538567
11.767757686732281
16.260013733119706
20.361638818951704
23.096055542839704
22.21713588158999
18.506141756313422
13.916227969787137
7.959105821316854
3.36919203479057
-1.0254062714579995
-6.6895551995117115
-12.939650568398566
-21.728847180895706
-31.494621194781413
-40.186160067139696
-42.236972610055695
-35.889219501029984
-27.392996108949415
-19.18974593728542
-14.50217441062028
-14.11154345006485
-12.74433508812085
0.04882887006942855
39.69787136644541
106.98405432211796
174.85618371862364
192.53223468375677
122.12100404364081
-13.81857022964828
-144.6799420157168
-202.29800869764247
-174.4655527580682
-105.12855725947966
-42.236972610055695
-8.74036774242771
0.43945983062485694
0.04882887006942855
-2.197299153124285
0.24414435034714274
6.494239719233997
11.670099946593423
13.13496604867628
10.79118028534371
9.228656443121995
8.154421301594567
7.763790341039139
9.033340962844282
9.912260624093996
13.13496604867628
17.52956435492485
21.14290074006256
23.291371023117417
22.412451361867703
21.43587396047913
21.045242999923705
23.291371023117417
28.66254673075456
33.44777599755856
38.23300526436255
41.16273746852827
41.065079728389414
38.91660944533455
34.61966887922484
31.396963454642556
29.053177691309987
26.514076447699704
22.510109102006563
15.185778591592278
8.838025482566568
2.9785610742351416
-3.9551384756237127
-12.060730907148852
-22.510109102006563
-32.6665140764477
-40.772106507972836
-44.09246967269398
-43.40886549172198
-44.19012741283284
-45.069047074082555
-44.873731593804834
-43.11589227130541
-39.014267185473415
-34.32669565880827
-27.881284809643702
-21.43587396047913
-14.795147631036851
-7.373159380483711
-2.68558785381857
1.1230640115968566
4.443427176317998
7.275501640344854
9.619287403677424
8.935683222705425
6.005951018539712
1.2207217517357138
-2.392614633401999
-3.076218814373999
-4.150453955901427
-3.36919203479057
-0.34180209048599985
3.7598229953459983
8.05676356145571
9.130998702983138
8.252079041733426
4.931715877012284
0.9277485313191425
-1.1230640115968566
-2.392614633401999
0.7324330510414282
8.44739452201114
18.21316853589685
27.1976806286717
31.396963454642556
33.838406958113985
36.182192721446555
37.84237430380713
35.49858854047456
25.342183566033416
12.939650568398566
1.513694972152285
-8.252079041733426
-16.84596017395285
-27.100022888532845
-38.03768978408484
-48.97535667963683
-56.29968719005112
-57.471580071717405
-54.7371633478294
-46.240939955748836
-34.81498435950255
-24.267948424505988
-16.748302433813993
-13.623254749370565
-7.177843900205997
13.81857022964828
62.54978255893797
137.55092698558022
202.39566643778133
203.07927061875333
107.76531624322881
-45.26436255436027
-167.82482642862593
-201.71206225680933
-156.9848172732128
-88.72205691615167
-39.20958266575113
-16.943617914091707
-13.81857022964828
-13.720912489509422
-8.838025482566568
-0.43945983062485694
7.666132600900283
11.963073167009995
14.697489890897993
15.771725032425422
16.650644693675137
19.287403677424276
20.16632333867399
20.361638818951704
19.971007858396277
20.068665598535134
21.92416266117342
23.779659723811704
26.22110322728313
27.97894254978256
29.541466392004274
31.885252155336843
33.05714503700313
36.0845349813077
40.96742198825055
45.947966735332265
49.658960860608836
49.365987640192266
47.11985961699855
44.28778515297169
41.84634164950027
38.91660944533455
32.08056763561456
23.096055542839704
12.060730907148852
0.14648661020828566
-9.228656443121995
-18.60379949645228
-28.467231250476843
-39.600213626306555
-48.19409475852598
-50.928511482413974
-50.04959182116426
-44.38544289311055
-36.182192721446555
-30.615701533531702
-29.2484931715877
-30.615701533531702
-28.66254673075456
-23.291371023117417
-16.16235599298085
-9.228656443121995
-7.763790341039139
-9.228656443121995
-10.400549324788281
-9.81460288395514
-7.373159380483711
-5.420004577706569
-3.1738765545128556
-2.9785610742351416
-4.248111696040284
-5.0293736171511405
-6.494239719233997
-3.662165255207141
4.638742656595713
14.209201190203707
18.799114976729992
14.599832150759136
6.201266498817426
-2.68558785381857
-8.349736781872283
-7.275501640344854
-2.490272373540856
5.224689097428855
11.865415426871138
13.427939269092851
11.181811245899137
8.05676356145571
9.619287403677424
14.892805371175708
21.728847180895706
28.369573510337986
30.127412832837415
29.443808651865414
27.97894254978256
25.146868085755703
19.58037689784085
8.44739452201114
-4.443427176317998
-17.627222095063708
-29.9320973525597
-41.065079728389414
-51.80743114366369
-55.127794308384836
-48.38941023880369
-36.0845349813077
-24.756237125200276
-20.263981078812847
-19.678034637979707
-19.385061417563133
-11.963073167009995
10.693522545204852
51.416800183108265
111.6716258487831
172.41474021515222
190.1884489204242
126.0273136491951
-12.353704127565424
-151.61364156557565
-214.21225299458305
-185.89150835431448
-114.69901579308767
-56.49500267032883
-26.123445487144274
-13.427939269092851
-8.05676356145571
-5.127031357289998
-4.443427176317998
-2.783245593957427
-1.1230640115968566
1.0254062714579995
5.615320057984283
9.42397192339971
14.50217441062028
20.263981078812847
23.87731746395056
24.365606164644845
19.87335011825742
13.427939269092851
7.666132600900283
6.005951018539712
9.71694514381628
13.720912489509422
17.82253757534142
21.92416266117342
25.732814526588847
30.420386053253985
33.64309147783627
35.79156176089113
35.98687724116884
35.303273060196844
35.010299839780274
32.56885633630884
30.22507057297627
26.807049668116274
21.045242999923705
14.209201190203707
3.9551384756237127
-7.470817120622568
-18.40848401617456
-26.123445487144274
-30.029755092698558
-34.61966887922484
-37.74471656366827
-39.5025558861677
-41.065079728389414
-41.84634164950027
-43.604180971999696
-43.311207751583126
-39.014267185473415
-30.029755092698558
-19.48271915770199
-14.404516670481422
-10.986495765621424
-5.810635538261997
-0.8300907911802854
2.0996414129854277
3.5645075150682843
8.05676356145571
14.11154345006485
18.60379949645228
20.16632333867399
15.771725032425422
9.71694514381628
6.884870679789426
8.935683222705425
13.427939269092851
12.45136186770428
6.39658197909514
-0.537117570763714
-3.8574807354848555
-2.783245593957427
-3.2715342946517127
-4.443427176317998
-6.39658197909514
-8.838025482566568
-8.74036774242771
-6.982528419928283
-3.36919203479057
0.43945983062485694
5.810635538261997
14.306858930342566
20.45929655909056
25.24452582589456
30.71335927367056
36.475165941863125
39.11192492561227
31.68993667505913
17.236591134508277
2.490272373540856
-7.959105821316854
-14.013885709925994
-20.263981078812847
-26.123445487144274
-32.95948729686427
-40.67444876783398
-44.67841611352712
-44.97138933394369
-42.04165712977798
-39.40489814602884
-37.94003204394598
-35.596246280613414
-31.68993667505913
-19.092088197146563
9.912260624093996
63.233386739909974
135.9884031433585
189.60250247959107
176.12573434042878
78.76096742198825
-63.03807125963226
-176.90699626153963
-212.7473868925002
-171.7311360341802
-100.63630121309224
-44.38544289311055
-16.357671473258563
-10.205233844510566
-10.693522545204852
-9.521629663538567
-6.6895551995117115
-4.248111696040284
-2.490272373540856
4.931715877012284
16.45532921339742
24.267948424505988
25.537499046311133
20.068665598535134
13.916227969787137
10.595864805065995
10.595864805065995
13.232623788815136
15.576409552147707
19.971007858396277
23.87731746395056
24.560921644922562
23.19371328297856
18.506141756313422
13.720912489509422
12.353704127565424
15.869382772564279
22.705424582284277
28.27191577019913
32.86182955672541
35.010299839780274
34.22903791866941
33.838406958113985
31.494621194781413
27.1976806286717
21.728847180895706
14.892805371175708
5.71297779812314
-6.005951018539712
-14.697489890897993
-19.678034637979707
-23.48668650339513
-26.123445487144274
-30.615701533531702
-35.20561532005799
-37.256427862973986
-36.57282368200198
-34.424353398947126
-33.545433737697415
-29.053177691309987
-20.752269779507134
-12.158388647287708
-4.736400396734569
-1.416037232013428
0.537117570763714
3.5645075150682843
7.080186160067139
9.521629663538567
8.154421301594567
6.005951018539712
2.490272373540856
-2.5879301136797133
-5.420004577706569
-7.470817120622568
-9.033340962844282
-11.279468986037996
-15.283436331731137
-19.287403677424276
-21.533531700617992
-17.43190661478599
-9.71694514381628
-2.9785610742351416
2.5879301136797133
3.2715342946517127
0.04882887006942855
-3.466849774929427
-4.345769436179141
-1.8066681925688564
1.8066681925688564
10.10757610437171
20.55695429922942
28.369573510337986
33.64309147783627
35.49858854047456
37.06111238269627
39.893186846723125
42.04165712977798
40.96742198825055
34.424353398947126
27.392996108949415
20.752269779507134
12.646677347981994
3.9551384756237127
-7.177843900205997
-19.58037689784085
-30.322728313115128
-35.889219501029984
-34.81498435950255
-31.00633249408713
-22.412451361867703
-11.181811245899137
-3.466849774929427
0.8300907911802854
8.349736781872283
33.838406958113985
85.49935149156939
151.90661478599222
196.1455710688945
170.26626993209734
62.2568093385214
-84.3274586099031
-191.75097276264592
-208.1574731059739
-152.00427252613107
-78.37033646143283
-30.029755092698558
-14.306858930342566
-14.697489890897993
-18.701457236591136
-17.920195315480278
-12.939650568398566
-8.252079041733426
-2.783245593957427
2.2949568932631417
7.080186160067139
9.130998702983138
8.935683222705425
9.619287403677424
10.205233844510566
13.623254749370565
19.385061417563133
23.48668650339513
26.416418707560844
28.076600289921416
29.2484931715877
28.564888990615703
26.61173418783856
25.342183566033416
23.389028763256274
24.65857938506142
30.420386053253985
37.15877012283513
43.11589227130541
45.16670481422141
44.19012741283284
40.28381780727855
33.545433737697415
26.22110322728313
18.11551079575799
13.427939269092851
10.400549324788281
4.150453955901427
-5.0293736171511405
-17.43190661478599
-29.443808651865414
-38.72129396505684
-44.873731593804834
-48.19409475852598
-52.002746623941405
-52.6863508049134
-49.658960860608836
-45.85030899519341
-40.479133287556266
-34.22903791866941
-27.002365148393988
-21.533531700617992
-18.89677271686885
-16.943617914091707
-16.260013733119706
-12.646677347981994
-6.298924238956283
-1.0254062714579995
2.68558785381857
3.662165255207141
3.1738765545128556
1.3183794918745708
-1.0254062714579995
-1.6113527122911422
-2.68558785381857
-2.392614633401999
-0.8300907911802854
0.04882887006942855
2.0996414129854277
4.150453955901427
6.787212939650568
9.42397192339971
12.256046387426567
16.16235599298085
17.041275654230564
16.260013733119706
15.088120851453422
13.232623788815136
14.013885709925994
16.943617914091707
22.021820401312276
27.002365148393988
31.201647974364842
36.182192721446555
39.20958266575113
39.11192492561227
32.27588311589227
18.21316853589685
2.783245593957427
-11.865415426871138
-23.682001983672848
-31.592278934920273
-36.86579690241855
-41.651026169222554
-49.26832990005341
-53.85824368657969
-52.39337758449683
-47.0222018768597
-37.84237430380713
-28.66254673075456
-22.119478141451133
-20.068665598535134
-18.310826276035705
-3.466849774929427
35.4009308003357
104.44495307850767
182.27817196917678
218.50919356069275
167.72716868848707
29.9320973525597
-125.14839398794537
-211.47783627069504
-199.46593423361563
-127.88281071183337
-57.471580071717405
-14.892805371175708
2.392614633401999
4.541084916456855
2.0019836728465705
-1.1230640115968566
-2.197299153124285
-1.2207217517357138
1.513694972152285
7.568474860761425
12.549019607843137
18.21316853589685
25.049210345616846
29.2484931715877
29.443808651865414
24.17029068436713
17.52956435492485
13.037308308537423
13.13496604867628
18.60379949645228
24.560921644922562
31.103990234225986
37.15877012283513
39.79552910658427
40.86976424811169
40.479133287556266
40.57679102769512
41.065079728389414
39.99084458686198
37.84237430380713
33.545433737697415
30.811017013809415
28.27191577019913
22.705424582284277
15.967040512703136
7.275501640344854
-2.392614633401999
-12.45136186770428
-22.803082322423133
-33.15480277714199
-44.873731593804834
-53.66292820630198
-57.66689555199512
-59.22941939421683
-56.983291371023114
-52.39337758449683
-46.14328221560998
-40.38147554741741
-36.57282368200198
-32.86182955672541
-30.127412832837415
-24.17029068436713
-14.599832150759136
-5.71297779812314
2.5879301136797133
9.130998702983138
13.720912489509422
14.990463111314565
12.646677347981994
9.228656443121995
4.052796215762569
1.0254062714579995
1.1230640115968566
1.9043259327077133
4.638742656595713
7.080186160067139
8.545052262149996
7.959105821316854
5.127031357289998
2.8809033340962844
1.3183794918745708
3.5645075150682843
8.642710002288853
11.181811245899137
10.79118028534371
7.080186160067139
3.1738765545128556
1.9043259327077133
4.052796215762569
9.912260624093996
14.697489890897993
19.092088197146563
24.17029068436713
30.029755092698558
37.4517433432517
39.79552910658427
32.6665140764477
18.506141756313422
2.68558785381857
-9.130998702983138
-17.52956435492485
-21.24055848020142
-24.17029068436713
-31.396963454642556
-39.69787136644541
-46.72922865644312
-49.658960860608836
-47.80346379797055
-42.13931486991684
-33.3501182574197
-26.807049668116274
-21.826504921034562
-15.869382772564279
-3.8574807354848555
27.881284809643702
87.35484855420768
163.3325703822385
211.0872053101396
174.75852597848478
46.72922865644312
-108.15594720378424
-198.00106813153278
-189.01655603875793
-120.85145342183566
-49.658960860608836
-7.470817120622568
6.591897459372854
5.71297779812314
1.2207217517357138
1.0254062714579995
3.8574807354848555
9.521629663538567
15.283436331731137
16.16235599298085
14.209201190203707
11.377126726176853
10.302891584649425
10.79118028534371
11.767757686732281
15.47875181200885
19.58037689784085
24.17029068436713
27.295338368810558
26.123445487144274
25.146868085755703
25.63515678644999
28.467231250476843
31.885252155336843
33.05714503700313
32.27588311589227
29.053177691309987
28.66254673075456
33.64309147783627
39.69787136644541
43.50652323186084
39.79552910658427
30.518043793392845
20.84992751964599
12.256046387426567
5.224689097428855
-2.490272373540856
-10.595864805065995
-21.045242999923705
-34.424353398947126
-43.018234531166556
-46.240939955748836
-48.19409475852598
-52.002746623941405
-55.713740749217976
-54.24887464713512
-49.26832990005341
-40.57679102769512
-29.2484931715877
-19.48271915770199
-10.888838025482567
-6.591897459372854
-8.252079041733426
-14.404516670481422
-19.87335011825742
-16.943617914091707
-6.982528419928283
6.6895551995117115
17.52956435492485
17.82253757534142
10.302891584649425
0.34180209048599985
-4.736400396734569
-4.638742656595713
-4.931715877012284
-7.568474860761425
-12.060730907148852
-12.060730907148852
-7.275501640344854
-3.36919203479057
0.04882887006942855
3.2715342946517127
8.545052262149996
15.47875181200885
19.971007858396277
21.338216220340275
20.55695429922942
25.049210345616846
34.52201113908598
38.72129396505684
33.545433737697415
20.068665598535134
6.005951018539712
-4.248111696040284
-13.427939269092851
-22.412451361867703
-32.56885633630884
-39.99084458686198
-43.311207751583126
-44.38544289311055
-41.16273746852827
-37.256427862973986
-34.717326619363696
-31.9829098954757
-27.97894254978256
-22.705424582284277
-19.775692378118563
-11.47478446631571
16.55298695353628
73.68276493476768
150.53940642404822
200.73548485542076
173.68429083695736
60.694285496299685
-88.62439917601282
-196.53620202944992
-218.50919356069275
-165.28572518501565
-85.88998245212481
-26.123445487144274
0.9277485313191425
3.076218814373999
-2.2949568932631417
-3.466849774929427
0.04882887006942855
6.787212939650568
12.549019607843137
18.506141756313422
22.803082322423133
23.096055542839704
24.65857938506142
27.68596932936599
29.346150911726557
28.564888990615703
26.318760967421987
25.830472266727703
25.146868085755703
25.732814526588847
27.881284809643702
28.076600289921416
27.49065384908827
25.732814526588847
24.072632944228275
23.682001983672848
24.365606164644845
26.90470740825513
28.076600289921416
27.783627069504846
26.123445487144274
22.90074006256199
21.045242999923705
17.041275654230564
10.400549324788281
4.931715877012284
2.2949568932631417
0.537117570763714
-5.615320057984283
-14.50217441062028
-21.92416266117342
-27.100022888532845
-27.783627069504846
-28.174258030060273
-30.127412832837415
-32.56885633630884
-34.22903791866941
-32.6665140764477
-30.029755092698558
-25.439841306172273
-20.068665598535134
-16.84596017395285
-12.060730907148852
-6.884870679789426
-3.466849774929427
-1.6113527122911422
-0.04882887006942855
3.076218814373999
4.638742656595713
3.9551384756237127
1.7090104524299992
-2.392614633401999
-3.076218814373999
0.34180209048599985
6.591897459372854
12.74433508812085
15.088120851453422
14.404516670481422
10.009918364232853
4.736400396734569
-0.6347753109025711
-7.470817120622568
-10.400549324788281
-9.71694514381628
-7.763790341039139
-6.39658197909514
-6.494239719233997
-5.71297779812314
-4.345769436179141
-0.14648661020828566
6.103608758678568
10.205233844510566
12.45136186770428
11.47478446631571
8.74036774242771
8.154421301594567
10.400549324788281
15.381094071869994
20.16632333867399
26.123445487144274
32.56885633630884
34.81498435950255
34.0337224383917
30.322728313115128
24.65857938506142
17.43190661478599
6.103608758678568
-7.666132600900283
-22.412451361867703
-32.95948729686427
-38.818951705195694
-43.11589227130541
-43.604180971999696
-41.943999389639124
-40.86976424811169
-40.57679102769512
-41.26039520866713
-39.99084458686198
-34.32669565880827
-14.404516670481422
30.127412832837415
97.90188448920424
168.1177996490425
193.1181811245899
135.89074540321965
9.81460288395514
-124.75776302738994
-201.22377355611505
-196.63385976958878
-135.20714122224766
-62.84275577935454
-14.50217441062028
5.71297779812314
6.591897459372854
0.24414435034714274
-4.345769436179141
-5.615320057984283
-3.7598229953459983
-2.2949568932631417
0.04882887006942855
5.0293736171511405
10.009918364232853
15.869382772564279
19.87335011825742
21.63118944075685
23.291371023117417
24.65857938506142
25.830472266727703
25.049210345616846
25.24452582589456
28.076600289921416
30.322728313115128
33.252460517280845
35.20561532005799
35.889219501029984
36.768139162279695
37.15877012283513
37.84237430380713
36.96345464255741
35.49858854047456
33.05714503700313
27.881284809643702
22.803082322423133
16.260013733119706
8.44739452201114
2.783245593957427
-1.3183794918745708
-5.0293736171511405
-10.302891584649425
-15.185778591592278
-19.48271915770199
-26.123445487144274
-32.27588311589227
-38.1353475242237
-43.604180971999696
-47.21751735713741
-49.46364538033112
-48.877698939497975
-46.72922865644312
-40.67444876783398
-30.615701533531702
-21.63118944075685
-13.330281528953995
-7.275501640344854
-4.443427176317998
-3.466849774929427
-4.541084916456855
-5.810635538261997
-7.959105821316854
-8.545052262149996
-6.787212939650568
-5.908293278400855
-3.5645075150682843
-1.1230640115968566
-0.43945983062485694
-1.3183794918745708
-3.662165255207141
-4.150453955901427
-3.662165255207141
-1.3183794918745708
1.6113527122911422
1.2207217517357138
0.6347753109025711
0.04882887006942855
-1.416037232013428
-4.052796215762569
-8.349736781872283
-10.302891584649425
-8.05676356145571
-0.14648661020828566
10.302891584649425
16.943617914091707
21.533531700617992
24.560921644922562
25.146868085755703
22.60776684214542
15.088120851453422
5.224689097428855
-6.103608758678568
-17.236591134508277
-27.1976806286717
-37.84237430380713
-46.240939955748836
-54.346532387273975
-62.45212481879911
-65.57717250324254
-62.64744029907683
-53.36995498588541
-40.772106507972836
-25.830472266727703
-11.767757686732281
-2.490272373540856
10.888838025482567
40.86976424811169
98.29251544975968
175.44213015945678
227.78667887388417
200.54016937514305
77.97970550087739
-83.25322346837568
-193.70412756542305
-203.5675593194476
-129.44533455405508
-34.52201113908598
30.615701533531702
57.178606851300835
60.49897001602197
59.32707713435569
59.62005035477226
63.91699092088197
70.75303273060197
72.41321431296254
68.79987792782482
61.96383611810483
54.44419012741283
47.11985961699855
37.94003204394598
29.346150911726557
20.84992751964599
12.060730907148852
2.8809033340962844
-8.74036774242771
-20.947585259784848
-35.010299839780274
-48.97535667963683
-58.350499732967116
-64.89356832227054
-69.67879758907453
-72.70618753337911
-70.65537499046312
-64.01464866102083
-57.27626459143969
-47.0222018768597
-33.838406958113985
-21.533531700617992
-11.963073167009995
-6.982528419928283
-4.345769436179141
-1.513694972152285
5.908293278400855
17.334248874647134
25.732814526588847
31.787594415197987
35.69390402075227
36.67048142214084
37.15877012283513
37.94003204394598
40.38147554741741
43.018234531166556
49.658960860608836
60.79194323643854
70.06942854962998
78.27267872129397
85.6946669718471
91.26115815976196
95.2651255054551
96.72999160753795
97.99954222934309
98.29251544975968
94.48386358434425
86.67124437323568
88.13611047531853
96.43701838712138
79.15159838254368
53.66292820630198
63.03807125963226
63.91699092088197
22.119478141451133
-12.939650568398566
-34.52201113908598
-82.56961928740368
-154.54337376974135
-214.1145952544442
-236.77119096665905
-233.93911650263217
-230.42343785763333
-221.8295567254139
-199.7589074540322
-178.86015106431677
-156.88715953307394
-121.82803082322422
-86.76890211337454
-58.057526512550545
-27.97894254978256
-1.9043259327077133
10.986495765621424
20.45929655909056
36.37750820172427
45.75265125505455
45.16670481422141
42.822919050888835
34.32669565880827
22.021820401312276
15.185778591592278
10.79118028534371
0.7324330510414282
-12.158388647287708
-21.24055848020142
-30.22507057297627
-35.4009308003357
-30.71335927367056
-24.17029068436713
-18.506141756313422
-11.963073167009995
-7.763790341039139
-7.568474860761425
-4.150453955901427
17.13893339436942
64.3076218814374
135.59777218280308
201.41908903639276
202.78629739833676
109.8161287861448
-41.358052948805984
-168.21545738918135
-207.9621576256962
-167.04356450751507
-96.14404516670481
-42.529945830472265
-16.84596017395285
-7.275501640344854
-5.908293278400855
-3.5645075150682843
2.490272373540856
9.130998702983138
14.306858930342566
17.627222095063708
21.533531700617992
24.072632944228275
26.416418707560844
29.9320973525597
30.615701533531702
32.37354085603113
37.35408560311284
42.33463035019455
45.45967803463798
45.26436255436027
43.89715419241627
40.67444876783398
38.33066300450141
39.79552910658427
40.96742198825055
43.018234531166556
45.26436255436027
45.75265125505455
45.654993514915695
44.580758373388264
43.018234531166556
39.893186846723125
37.35408560311284
36.182192721446555
31.885252155336843
26.807049668116274
21.43587396047913
14.990463111314565
8.935683222705425
1.6113527122911422
-6.884870679789426
-17.041275654230564
-25.63515678644999
-31.396963454642556
-37.35408560311284
-39.69787136644541
-38.03768978408484
-35.49858854047456
-31.885252155336843
-28.66254673075456
-25.146868085755703
-22.21713588158999
-18.017853055619135
-11.767757686732281
-7.861448081177996
-3.076218814373999
3.2715342946517127
8.252079041733426
11.181811245899137
11.08415350576028
10.009918364232853
8.545052262149996
8.05676356145571
8.252079041733426
5.71297779812314
4.638742656595713
6.39658197909514
7.666132600900283
7.275501640344854
3.7598229953459983
-0.04882887006942855
-2.8809033340962844
-2.8809033340962844
-0.14648661020828566
0.7324330510414282
3.076218814373999
7.959105821316854
13.13496604867628
18.994430457007706
24.072632944228275
28.857862211032273
32.471198596169984
35.69390402075227
38.42832074464027
36.182192721446555
30.127412832837415
21.24055848020142
11.181811245899137
3.8574807354848555
-2.490272373540856
-9.81460288395514
-20.361638818951704
-33.44777599755856
-46.533913176165406
-57.86221103227283
-59.22941939421683
-50.34256504158083
-38.91660944533455
-28.95551995117113
-22.60776684214542
-18.799114976729992
-18.310826276035705
-14.013885709925994
9.42397192339971
61.96383611810483
137.25795376516365
193.02052338445105
176.22339208056763
74.65934233615626
-65.96780346379796
-167.6295109483482
-185.98916609445334
-137.3556115053025
-71.1436636911574
-27.783627069504846
-9.912260624093996
-4.345769436179141
-1.7090104524299992
2.0019836728465705
5.0293736171511405
6.787212939650568
5.908293278400855
4.736400396734569
6.298924238956283
8.252079041733426
13.916227969787137
23.389028763256274
31.396963454642556
34.717326619363696
31.494621194781413
25.049210345616846
18.994430457007706
17.627222095063708
22.60776684214542
26.90470740825513
29.736781872281988
31.201647974364842
30.71335927367056
29.834439612420844
27.49065384908827
25.732814526588847
25.537499046311133
26.514076447699704
27.783627069504846
26.123445487144274
24.65857938506142
22.510109102006563
16.748302433813993
9.326314183260854
-0.6347753109025711
-12.45136186770428
-25.146868085755703
-36.96345464255741
-46.72922865644312
-56.1043717097734
-60.01068131532769
-57.764553292133975
-54.44419012741283
-52.10040436408026
-52.39337758449683
-52.97932402532997
-52.10040436408026
-47.51049057755398
-39.014267185473415
-31.9829098954757
-24.4632639047837
-16.064698252841993
-9.326314183260854
-3.1738765545128556
1.2207217517357138
5.0293736171511405
6.494239719233997
5.127031357289998
1.6113527122911422
-4.736400396734569
-8.44739452201114
-7.763790341039139
-5.908293278400855
-3.9551384756237127
-4.541084916456855
-7.080186160067139
-10.205233844510566
-11.47478446631571
-9.326314183260854
-7.568474860761425
-4.541084916456855
-0.9277485313191425
0.34180209048599985
1.3183794918745708
1.6113527122911422
3.36919203479057
8.05676356145571
15.576409552147707
25.049210345616846
32.95948729686427
42.43228809033341
51.80743114366369
54.053559166857404
48.09643701838712
33.545433737697415
14.892805371175708
-3.2715342946517127
-17.236591134508277
-24.95155260547799
-30.908674753948272
-35.303273060196844
-39.600213626306555
-44.09246967269398
-43.50652323186084
-38.62363622491798
-31.494621194781413
-25.830472266727703
-24.95155260547799
-29.834439612420844
-37.06111238269627
-28.857862211032273
10.888838025482567
84.91340505073624
170.46158541237506
210.50125886930647
158.15671015487908
25.830472266727703
-113.52712291142137
-185.4032196536202
-173.3913176165408
-111.96459906919966
-51.123826962691695
-18.89677271686885
-10.498207064927138
-12.353704127565424
-12.646677347981994
-7.959105821316854
0.43945983062485694
10.986495765621424
17.43190661478599
20.84992751964599
22.21713588158999
20.84992751964599
20.55695429922942
22.119478141451133
25.439841306172273
28.564888990615703
30.322728313115128
31.396963454642556
29.9320973525597
31.201647974364842
36.182192721446555
39.69787136644541
40.186160067139696
36.37750820172427
31.592278934920273
27.392996108949415
23.779659723811704
22.412451361867703
22.803082322423133
28.66254673075456
38.03768978408484
44.97138933394369
48.68238345922026
46.43625543602655
39.307240405889985
30.22507057297627
20.55695429922942
10.205233844510566
-3.2715342946517127
-17.627222095063708
-33.252460517280845
-48.877698939497975
-56.7879758907454
-57.56923781185626
-56.983291371023114
-60.8896009765774
-67.33501182574197
-70.16708628976883
-69.19050888838025
-62.45212481879911
-52.19806210421912
-44.38544289311055
-38.818951705195694
-35.4009308003357
-30.22507057297627
-22.21713588158999
-14.697489890897993
-9.033340962844282
-0.6347753109025711
27.392996108949415
85.49935149156939
158.64499885557336
203.07927061875333
164.30914778362708
37.64705882352941
-110.79270618753338
-197.41512169069964
-193.8017853055619
-138.62516212710764
-78.76096742198825
-39.11192492561227
-22.21713588158999
-17.43190661478599
-17.627222095063708
-16.260013733119706
-10.400549324788281
-1.9043259327077133
6.6895551995117115
11.670099946593423
16.55298695353628
22.412451361867703
27.002365148393988
32.37354085603113
36.37750820172427
37.94003204394598
36.27985046158541
32.764171816586554
31.103990234225986
30.908674753948272
33.93606469825284
37.35408560311284
36.182192721446555
34.0337224383917
33.545433737697415
35.69390402075227
37.549401083390556
34.91264209964141
28.467231250476843
20.361638818951704
16.45532921339742
15.47875181200885
11.47478446631571
6.005951018539712
0.04882887006942855
-5.420004577706569
-11.279468986037996
-18.40848401617456
-24.267948424505988
-28.076600289921416
-27.002365148393988
-24.560921644922562
-24.756237125200276
-23.48668650339513
-20.55695429922942
-17.334248874647134
-15.185778591592278
-14.306858930342566
-13.232623788815136
-12.353704127565424
-7.470817120622568
0.34180209048599985
5.224689097428855
7.959105821316854
8.44739452201114
7.275501640344854
4.834058136873426
0.34180209048599985
-4.638742656595713
-9.912260624093996
-10.888838025482567
-7.959105821316854
-6.39658197909514
-5.420004577706569
-6.6895551995117115
-9.228656443121995
-10.595864805065995
-9.912260624093996
-6.6895551995117115
-4.150453955901427
0.14648661020828566
6.005951018539712
9.228656443121995
10.498207064927138
7.763790341039139
2.2949568932631417
-1.9043259327077133
-3.36919203479057
-2.0996414129854277
-1.2207217517357138
1.2207217517357138
4.150453955901427
3.8574807354848555
2.5879301136797133
-0.34180209048599985
-4.541084916456855
-6.494239719233997
-5.0293736171511405
-1.416037232013428
0.34180209048599985
3.466849774929427
8.838025482566568
12.256046387426567
13.623254749370565
10.400549324788281
3.9551384756237127
-0.9277485313191425
-2.490272373540856
-2.197299153124285
-5.127031357289998
-8.154421301594567
-7.373159380483711
-3.2715342946517127
3.36919203479057
5.810635538261997
2.783245593957427
-0.34180209048599985
-1.2207217517357138
0.04882887006942855
-0.34180209048599985
-1.0254062714579995
-2.2949568932631417
-5.127031357289998
-4.541084916456855
-1.513694972152285
1.2207217517357138
2.490272373540856
1.0254062714579995
-1.0254062714579995
-2.197299153124285
1.2207217517357138
7.470817120622568
12.353704127565424
18.799114976729992
23.779659723811704
23.779659723811704
19.18974593728542
11.377126726176853
3.36919203479057
-3.466849774929427
-4.834058136873426
-1.7090104524299992
-0.6347753109025711
-1.0254062714579995
-4.248111696040284
-9.42397192339971
-11.377126726176853
-3.076218814373999
26.22110322728313
81.98367284657053
155.71526665140763
208.54810406652933
191.45799954222935
91.45647364003968
-54.54184786755169
-172.7077134355688
-207.18089570458534
-164.99275196459908
-93.70260166323338
-37.549401083390556
-5.517662317845426
9.619287403677424
12.45136186770428
10.009918364232853
7.080186160067139
6.201266498817426
7.763790341039139
10.400549324788281
12.84199282825971
11.279468986037996
11.279468986037996
17.13893339436942
23.291371023117417
26.709391927977418
25.146868085755703
20.84992751964599
17.334248874647134
16.260013733119706
17.724879835202564
17.82253757534142
18.799114976729992
22.021820401312276
23.19371328297856
22.803082322423133
20.752269779507134
18.310826276035705
16.064698252841993
11.670099946593423
5.517662317845426
-1.2207217517357138
-2.68558785381857
2.0019836728465705
7.080186160067139
10.498207064927138
9.130998702983138
3.466849774929427
-2.5879301136797133
-9.326314183260854
-17.724879835202564
-29.2484931715877
-38.91660944533455
-44.67841611352712
-49.365987640192266
-50.04959182116426
-48.19409475852598
-46.63157091630426
-45.75265125505455
-45.55733577477684
-44.48310063324941
-43.604180971999696
-39.893186846723125
-33.3501182574197
-27.68596932936599
-20.361638818951704
-13.330281528953995
-9.42397192339971
-8.44739452201114
-10.205233844510566
-12.45136186770428
-13.13496604867628
-8.154421301594567
0.04882887006942855
3.8574807354848555
5.0293736171511405
4.150453955901427
2.197299153124285
1.0254062714579995
-0.7324330510414282
-4.150453955901427
-9.619287403677424
-11.670099946593423
-9.326314183260854
-8.05676356145571
-5.615320057984283
-1.416037232013428
3.2715342946517127
8.05676356145571
11.181811245899137
13.427939269092851
14.50217441062028
16.943617914091707
19.092088197146563
15.967040512703136
12.158388647287708
10.400549324788281
10.009918364232853
10.400549324788281
10.693522545204852
12.84199282825971
15.576409552147707
20.45929655909056
27.783627069504846
34.0337224383917
39.79552910658427
41.16273746852827
35.010299839780274
22.90074006256199
5.71297779812314
-12.158388647287708
-27.295338368810558
-35.10795757991913
-37.94003204394598
-42.822919050888835
-46.72922865644312
-47.90112153810941
-46.533913176165406
-42.04165712977798
-37.256427862973986
-32.6665140764477
-29.541466392004274
-23.096055542839704
-5.615320057984283
29.443808651865414
89.89394979781795
160.89112687876707
201.8097199969482
167.4341954680705
45.85030899519341
-108.93720912489509
-211.86846723125046
-216.75135423819333
-150.63706416418708
-74.17105363546197
-21.728847180895706
-0.537117570763714
-0.14648661020828566
-4.541084916456855
-5.0293736171511405
-0.04882887006942855
6.103608758678568
13.81857022964828
22.314793621728846
26.318760967421987
29.150835431448844
32.178225375753414
33.64309147783627
32.86182955672541
29.63912413214313
27.68596932936599
27.295338368810558
29.443808651865414
32.37354085603113
31.885252155336843
32.27588311589227
34.52201113908598
35.98687724116884
35.889219501029984
33.05714503700313
29.346150911726557
26.416418707560844
27.588311589227132
31.885252155336843
33.64309147783627
33.44777599755856
29.443808651865414
21.338216220340275
12.74433508812085
3.36919203479057
-5.908293278400855
-14.795147631036851
-20.45929655909056
-23.87731746395056
-28.760204470893417
-31.592278934920273
-33.74074921797513
-37.549401083390556
-41.065079728389414
-44.48310063324941
-47.0222018768597
-48.09643701838712
-43.70183871213855
-33.545433737697415
-23.682001983672848
-12.939650568398566
-2.5879301136797133
4.345769436179141
8.545052262149996
9.71694514381628
10.009918364232853
9.521629663538567
10.595864805065995
13.623254749370565
14.697489890897993
16.357671473258563
17.43190661478599
15.185778591592278
12.060730907148852
8.74036774242771
5.908293278400855
2.392614633401999
1.2207217517357138
3.36919203479057
3.36919203479057
3.1738765545128556
3.8574807354848555
5.420004577706569
8.545052262149996
9.521629663538567
7.373159380483711
2.0019836728465705
-2.0996414129854277
-1.9043259327077133
0.43945983062485694
7.763790341039139
17.82253757534142
26.416418707560844
32.86182955672541
34.717326619363696
31.494621194781413
23.291371023117417
12.84199282825971
2.2949568932631417
-8.252079041733426
-14.013885709925994
-17.724879835202564
-25.63515678644999
-38.23300526436255
-53.17463950560769
-63.13572899977112
-64.79591058213168
-57.764553292133975
-46.43625543602655
-37.64705882352941
-28.95551995117113
-20.947585259784848
-13.81857022964828
2.783245593957427
42.236972610055695
111.6716258487831
188.03997863736936
215.77477683680476
147.1213855191882
-1.513694972152285
-142.53147173266194
-200.24719615472648
-169.28969253070878
-97.90188448920424
-39.014267185473415
-11.47478446631571
-7.373159380483711
-8.349736781872283
-3.2715342946517127
4.052796215762569
11.767757686732281
16.55298695353628
15.576409552147707
11.47478446631571
6.6895551995117115
4.541084916456855
4.931715877012284
9.130998702983138
17.627222095063708
24.95155260547799
30.22507057297627
31.396963454642556
27.97894254978256
25.049210345616846
23.974975204089418
24.17029068436713
23.096055542839704
22.412451361867703
24.560921644922562
28.076600289921416
34.61966887922484
40.96742198825055
43.70183871213855
44.38544289311055
41.943999389639124
35.98687724116884
26.61173418783856
15.47875181200885
4.150453955901427
-7.275501640344854
-14.697489890897993
-19.678034637979707
-26.025787747005417
-32.27588311589227
-39.307240405889985
-46.72922865644312
-52.39337758449683
-52.002746623941405
-45.75265125505455
-39.5025558861677
-31.68993667505913
-22.90074006256199
-15.869382772564279
-9.130998702983138
-3.36919203479057
0.04882887006942855
-0.537117570763714
-1.513694972152285
1.2207217517357138
5.0293736171511405
10.888838025482567
17.334248874647134
20.84992751964599
22.021820401312276
19.87335011825742
16.357671473258563
12.74433508812085
10.693522545204852
9.912260624093996
6.591897459372854
4.345769436179141
3.7598229953459983
1.6113527122911422
-0.6347753109025711
-2.9785610742351416
-3.2715342946517127
-2.2949568932631417
-0.6347753109025711
1.0254062714579995
-0.24414435034714274
-0.7324330510414282
0.6347753109025711
2.68558785381857
6.591897459372854
10.10757610437171
13.330281528953995
17.13893339436942
22.705424582284277
27.68596932936599
25.342183566033416
18.11551079575799
7.959105821316854
-4.834058136873426
-15.869382772564279
-23.974975204089418
-29.150835431448844
-33.74074921797513
-38.62363622491798
-42.33463035019455
-46.04562447547112
-44.38544289311055
-37.35408560311284
-30.127412832837415
-24.4632639047837
-23.291371023117417
-23.682001983672848
-17.627222095063708
8.545052262149996
66.3584344243534
142.04318303196766
192.14160372320134
160.89112687876707
40.186160067139696
-102.00350957503625
-184.23132677195392
-177.1999694819562
-117.23811703669794
-56.983291371023114
-22.119478141451133
-12.256046387426567
-10.009918364232853
-5.71297779812314
-0.43945983062485694
6.201266498817426
12.646677347981994
17.724879835202564
19.87335011825742
19.092088197146563
16.84596017395285
12.158388647287708
11.670099946593423
17.82253757534142
25.439841306172273
31.68993667505913
33.3501182574197
31.592278934920273
28.369573510337986
26.318760967421987
27.100022888532845
27.1976806286717
28.174258030060273
28.564888990615703
25.63515678644999
22.90074006256199
21.63118944075685
23.389028763256274
26.807049668116274
28.467231250476843
26.025787747005417
18.994430457007706
14.209201190203707
11.865415426871138
7.470817120622568
2.392614633401999
-4.736400396734569
-14.599832150759136
-26.61173418783856
-37.64705882352941
-43.311207751583126
-44.19012741283284
-39.40489814602884
-35.010299839780274
-38.03768978408484
-42.43228809033341
-42.72526131074998
-38.62363622491798
-34.52201113908598
-31.68993667505913
-27.68596932936599
-24.65857938506142
-19.58037689784085
-11.377126726176853
-2.8809033340962844
5.0293736171511405
8.545052262149996
7.959105821316854
6.591897459372854
6.982528419928283
7.763790341039139
4.248111696040284
0.9277485313191425
1.6113527122911422
4.931715877012284
10.009918364232853
11.47478446631571
8.349736781872283
3.1738765545128556
-1.9043259327077133
-7.080186160067139
-12.646677347981994
-10.10757610437171
1.8066681925688564
14.209201190203707
23.096055542839704
25.537499046311133
22.412451361867703
18.89677271686885
22.21713588158999
34.717326619363696
46.14328221560998
49.073014419775696
41.943999389639124
29.2484931715877
20.361638818951704
14.697489890897993
9.033340962844282
1.2207217517357138
-10.498207064927138
-26.709391927977418
-45.16670481422141
-53.85824368657969
-50.04959182116426
-43.79949645227741
-38.42832074464027
-33.93606469825284
-28.467231250476843
-22.021820401312276
-11.670099946593423
12.45136186770428
58.936446173800256
127.39452201113909
186.47745479514762
185.5985351338979
102.1011673151751
-35.303273060196844
-155.3246356908522
-199.9542229343099
-170.1686121919585
-109.91378652628366
-61.96383611810483
-33.93606469825284
-17.724879835202564
-9.42397192339971
-3.8574807354848555
0.9277485313191425
5.127031357289998
8.05676356145571
10.79118028534371
14.50217441062028
14.11154345006485
12.549019607843137
14.11154345006485
16.45532921339742
19.287403677424276
19.58037689784085
18.21316853589685
17.43190661478599
18.701457236591136
22.510109102006563
24.560921644922562
26.416418707560844
27.588311589227132
25.537499046311133
25.537499046311133
28.467231250476843
