ecg
32.764171816586554
112.74586099031052
182.08285648889907
184.5242999923705
92.62836652170596
-52.588693064774546
-170.46158541237506
-202.39566643778133
-152.88319218738079
-74.95231555657283
-15.088120851453422
10.205233844510566
10.986495765621424
5.322346837567712
2.2949568932631417
5.224689097428855
11.865415426871138
18.89677271686885
25.24452582589456
29.63912413214313
34.91264209964141
42.13931486991684
50.44022278171969
58.74113069352254
62.15915159838254
60.49897001602197
53.66292820630198
42.13931486991684
30.127412832837415
21.533531700617992
21.92416266117342
29.443808651865414
38.33066300450141
43.79949645227741
41.943999389639124
36.86579690241855
31.9829098954757
27.588311589227132
22.90074006256199
14.306858930342566
3.466849774929427
-6.884870679789426
-13.916227969787137
-16.55298695353628
-20.263981078812847
-26.22110322728313
-33.545433737697415
-39.99084458686198
-43.40886549172198
-46.14328221560998
-46.826886396581976
-44.873731593804834
-39.11192492561227
-29.63912413214313
-22.803082322423133
-20.263981078812847
-19.87335011825742
-17.627222095063708
-11.279468986037996
-5.517662317845426
-3.1738765545128556
-6.201266498817426
-11.865415426871138
-13.330281528953995
-8.349736781872283
3.8574807354848555
18.799114976729992
30.420386053253985
36.57282368200198
36.27985046158541
34.61966887922484
35.889219501029984
42.43228809033341
52.78400854505226
56.88563363088426
49.365987640192266
30.71335927367056
6.494239719233997
-20.361638818951704
-52.97932402532997
-84.62043183031967
-104.1519798580911
-105.32387273975738
-91.26115815976196
-72.31555657282368
-52.881666285191116
-37.549401083390556
-29.63912413214313
-23.48668650339513
-7.177843900205997
34.32669565880827
100.92927443350881
164.99275196459908
180.71564812695507
115.87090867475395
-7.080186160067139
-123.19523918516823
-173.3913176165408
-148.00030518043792
-85.98764019226367
-28.760204470893417
4.150453955901427
16.650644693675137
20.068665598535134
18.60379949645228
15.967040512703136
14.892805371175708
17.334248874647134
22.510109102006563
24.95155260547799
25.830472266727703
26.709391927977418
27.881284809643702
27.881284809643702
23.48668650339513
19.48271915770199
19.48271915770199
22.314793621728846
26.318760967421987
29.541466392004274
34.424353398947126
38.91660944533455
39.5025558861677
37.64705882352941
36.57282368200198
40.57679102769512
45.26436255436027
42.62760357061112
31.787594415197987
16.45532921339742
4.443427176317998
-3.662165255207141
-12.549019607843137
-23.48668650339513
-35.10795757991913
-40.38147554741741
-38.91660944533455
-36.57282368200198
-36.27985046158541
-37.74471656366827
-36.57282368200198
-32.37354085603113
-25.146868085755703
-14.013885709925994
-3.9551384756237127
2.197299153124285
3.076218814373999
-0.537117570763714
-4.638742656595713
-7.373159380483711
-6.103608758678568
-3.466849774929427
-1.3183794918745708
2.9785610742351416
7.080186160067139
8.349736781872283
5.615320057984283
2.5879301136797133
6.884870679789426
18.40848401617456
33.64309147783627
46.43625543602655
54.346532387273975
57.66689555199512
53.07698176546884
40.86976424811169
22.510109102006563
0.537117570763714
-21.24055848020142
-42.62760357061112
-59.71770809491112
-71.04600595101854
-76.41718165865568
-75.44060425726711
-69.9717708094911
-58.25284199282826
-43.89715419241627
-34.52201113908598
-30.71335927367056
-24.072632944228275
3.076218814373999
57.08094911116198
118.01937895780881
147.70733196002135
113.2341496910048
20.84992751964599
-87.15953307392996
-158.05905241474022
-163.13725490196077
-118.70298313878081
-61.768520637827116
-22.021820401312276
-5.908293278400855
-2.5879301136797133
-2.197299153124285
3.466849774929427
13.916227969787137
22.998397802700847
27.68596932936599
27.881284809643702
28.564888990615703
30.811017013809415
34.131380178530556
39.11192492561227
43.11589227130541
46.92454413672083
50.73319600213626
53.66292820630198
56.49500267032883
56.983291371023114
56.006713969634546
53.27229724574655
49.56130312046998
46.33859769588769
41.26039520866713
35.20561532005799
28.467231250476843
20.654612039368278
11.279468986037996
-1.513694972152285
-14.209201190203707
-23.974975204089418
-30.811017013809415
-35.10795757991913
-39.5025558861677
-42.04165712977798
-43.50652323186084
-45.26436255436027
-45.55733577477684
-44.873731593804834
-42.13931486991684
-39.307240405889985
-37.06111238269627
-33.64309147783627
-30.322728313115128
-25.24452582589456
-18.310826276035705
-11.181811245899137
-4.736400396734569
-2.490272373540856
-3.8574807354848555
-7.959105821316854
-12.84199282825971
-15.185778591592278
-15.47875181200885
-11.670099946593423
-4.052796215762569
6.298924238956283
19.48271915770199
31.201647974364842
39.79552910658427
44.38544289311055
45.75265125505455
45.85030899519341
42.822919050888835
36.182192721446555
22.21713588158999
-0.537117570763714
-26.514076447699704
-50.04959182116426
-65.8701457236591
-74.07339589532312
-76.12420843823911
-71.92492561226825
-63.91699092088197
-52.588693064774546
-42.529945830472265
-38.1353475242237
-33.15480277714199
-14.11154345006485
35.69390402075227
112.15991454947738
176.22339208056763
174.0749217975128
82.0813305867094
-55.22545204852369
-159.62157625696193
-181.20393682764936
-131.69146257724879
-63.819333180743115
-17.13893339436942
-1.1230640115968566
-4.150453955901427
-9.81460288395514
-10.302891584649425
-2.392614633401999
8.545052262149996
16.45532921339742
21.24055848020142
22.998397802700847
24.95155260547799
27.588311589227132
29.63912413214313
31.00633249408713
30.908674753948272
33.252460517280845
37.35408560311284
39.40489814602884
39.307240405889985
37.4517433432517
36.86579690241855
37.06111238269627
36.86579690241855
36.57282368200198
35.010299839780274
34.717326619363696
35.010299839780274
33.44777599755856
28.076600289921416
15.088120851453422
-1.416037232013428
-15.771725032425422
-24.65857938506142
-28.564888990615703
-31.2993057145037
-32.178225375753414
-32.56885633630884
-34.52201113908598
-36.67048142214084
-40.96742198825055
-45.654993514915695
-47.412832837415124
-42.92057679102769
-32.764171816586554
-23.389028763256274
-14.892805371175708
-7.275501640344854
-1.8066681925688564
-0.34180209048599985
-5.322346837567712
-11.377126726176853
-13.037308308537423
-7.959105821316854
1.3183794918745708
7.959105821316854
11.572442206454566
14.209201190203707
19.87335011825742
31.201647974364842
43.79949645227741
54.7371633478294
62.15915159838254
65.18654154268711
63.6240177004654
54.932478828107115
39.893186846723125
17.52956435492485
-10.009918364232853
-36.57282368200198
-59.62005035477226
-76.61249713893339
-86.1829556725414
-86.57358663309682
-76.61249713893339
-62.2568093385214
-49.17067215991455
-43.21355001144427
-43.11589227130541
-34.91264209964141
-3.1738765545128556
63.03807125963226
148.0979629205768
199.9542229343099
163.13725490196077
31.787594415197987
-123.4882124055848
-214.01693751430534
-203.66521705958647
-126.61326009002823
-46.43625543602655
1.9043259327077133
19.678034637979707
24.267948424505988
30.518043793392845
39.5025558861677
49.17067215991455
56.006713969634546
57.178606851300835
52.6863508049134
41.84634164950027
30.518043793392845
23.58434424353399
21.826504921034562
22.510109102006563
20.361638818951704
17.82253757534142
18.89677271686885
24.65857938506142
33.252460517280845
38.525978484779124
39.014267185473415
35.20561532005799
31.00633249408713
31.396963454642556
33.93606469825284
35.98687724116884
33.74074921797513
27.295338368810558
19.971007858396277
10.693522545204852
1.3183794918745708
-5.420004577706569
-8.838025482566568
-11.572442206454566
-19.678034637979707
-29.150835431448844
-33.74074921797513
-31.885252155336843
-27.97894254978256
-29.053177691309987
-33.252460517280845
-35.596246280613414
-30.615701533531702
-17.724879835202564
-6.103608758678568
1.9043259327077133
11.181811245899137
24.4632639047837
36.86579690241855
40.479133287556266
38.818951705195694
35.79156176089113
31.00633249408713
23.87731746395056
18.017853055619135
23.291371023117417
37.84237430380713
48.78004119935912
50.83085374227512
49.073014419775696
51.123826962691695
52.588693064774546
48.68238345922026
44.19012741283284
39.11192492561227
27.100022888532845
1.8066681925688564
-31.201647974364842
-58.54581521324483
-75.34294651712825
-81.49538414587624
-82.7649347676814
-83.05790798809797
-81.20241092545967
-78.95628290226597
-76.41718165865568
-73.3897917143511
-66.94438086518655
-51.123826962691695
-19.775692378118563
37.4517433432517
114.30838483253224
172.51239795529108
161.57473105973907
64.50293736171511
-69.58113984893568
-165.57869840543222
-181.88754100862135
-133.7422751201648
-68.60456244754711
-20.361638818951704
0.537117570763714
4.150453955901427
9.130998702983138
21.43587396047913
37.256427862973986
48.97535667963683
54.7371633478294
56.29968719005112
51.31914244296941
42.236972610055695
32.37354085603113
22.90074006256199
14.11154345006485
6.201266498817426
4.638742656595713
9.619287403677424
14.990463111314565
16.16235599298085
12.060730907148852
8.838025482566568
9.619287403677424
14.013885709925994
19.971007858396277
22.119478141451133
21.14290074006256
18.21316853589685
14.306858930342566
8.74036774242771
-1.6113527122911422
-12.549019607843137
-19.287403677424276
-22.90074006256199
-28.27191577019913
-40.28381780727855
-53.56527046616312
-60.987258716716255
-60.2059967956054
-53.66292820630198
-48.09643701838712
-43.79949645227741
-39.5025558861677
-34.424353398947126
-26.514076447699704
-17.43190661478599
-7.568474860761425
0.04882887006942855
3.9551384756237127
6.298924238956283
6.494239719233997
5.517662317845426
2.783245593957427
-0.04882887006942855
-0.8300907911802854
-3.2715342946517127
-8.545052262149996
-12.939650568398566
-9.130998702983138
4.931715877012284
19.48271915770199
29.443808651865414
36.86579690241855
45.26436255436027
53.95590142671855
55.22545204852369
47.21751735713741
29.2484931715877
3.1738765545128556
-23.291371023117417
-44.67841611352712
-56.59266041046769
-62.54978255893797
-65.38185702296482
-62.84275577935454
-54.83482108796826
-41.16273746852827
-26.90470740825513
-16.357671473258563
-6.884870679789426
8.252079041733426
42.04165712977798
97.60891126878766
157.37544823376822
185.5985351338979
147.1213855191882
43.79949645227741
-80.32349126420996
-165.1880674448768
-177.78591592278934
-135.9884031433585
-79.24925612268254
-38.42832074464027
-21.24055848020142
-18.017853055619135
-19.092088197146563
-15.771725032425422
-7.177843900205997
2.783245593957427
11.279468986037996
15.869382772564279
19.971007858396277
24.756237125200276
29.443808651865414
34.0337224383917
35.596246280613414
37.256427862973986
41.5533684290837
47.31517509727627
52.39337758449683
53.17463950560769
52.002746623941405
50.24490730144198
48.877698939497975
49.17067215991455
47.80346379797055
43.99481193255512
36.86579690241855
28.27191577019913
21.43587396047913
14.990463111314565
10.205233844510566
7.275501640344854
6.005951018539712
6.39658197909514
4.052796215762569
-1.6113527122911422
-10.595864805065995
-19.58037689784085
-24.65857938506142
-26.709391927977418
-25.732814526588847
-23.974975204089418
-22.21713588158999
-19.385061417563133
-18.21316853589685
-17.43190661478599
-15.869382772564279
-13.13496604867628
-9.326314183260854
-7.373159380483711
-6.494239719233997
-7.959105821316854
-12.060730907148852
-15.967040512703136
-19.678034637979707
-20.947585259784848
-19.58037689784085
-14.50217441062028
-3.7598229953459983
9.42397192339971
23.19371328297856
33.545433737697415
38.03768978408484
37.94003204394598
32.471198596169984
23.096055542839704
8.05676356145571
-13.037308308537423
-36.57282368200198
-59.03410391393912
-74.5616845960174
-82.37430380712597
-84.81574731059739
-82.96025024795911
-77.97970550087739
-66.74906538490883
-53.36995498588541
-44.580758373388264
-38.818951705195694
-25.537499046311133
13.525597009231708
81.49538414587624
149.36751354238194
166.0669871061265
96.33936064698253
-33.15480277714199
-150.53940642404822
-193.1181811245899
-154.4457160296025
-80.12817578393225
-16.16235599298085
17.236591134508277
24.560921644922562
20.55695429922942
14.599832150759136
13.81857022964828
18.60379949645228
25.049210345616846
30.615701533531702
33.64309147783627
37.549401083390556
42.13931486991684
45.45967803463798
47.60814831769284
46.63157091630426
43.99481193255512
39.307240405889985
33.74074921797513
31.2993057145037
32.08056763561456
37.06111238269627
43.604180971999696
48.78004119935912
52.295719844357976
51.90508888380255
48.68238345922026
42.236972610055695
33.3501182574197
25.049210345616846
16.84596017395285
9.81460288395514
2.68558785381857
-6.005951018539712
-14.990463111314565
-24.17029068436713
-31.00633249408713
-37.15877012283513
-44.09246967269398
-48.78004119935912
-49.26832990005341
-43.21355001144427
-33.545433737697415
-24.17029068436713
-16.55298695353628
-12.353704127565424
-7.959105821316854
-1.7090104524299992
5.908293278400855
15.47875181200885
23.291371023117417
28.369573510337986
30.127412832837415
30.029755092698558
30.322728313115128
28.467231250476843
25.439841306172273
22.510109102006563
20.752269779507134
22.60776684214542
28.076600289921416
38.23300526436255
48.09643701838712
51.80743114366369
48.97535667963683
39.69787136644541
26.416418707560844
7.470817120622568
-17.627222095063708
-45.45967803463798
-72.60852979324025
-91.35881589990082
-98.48783093003739
-96.33936064698253
-88.52674143587396
-80.32349126420996
-71.72961013199054
-65.28419928282597
-63.233386739909974
-60.108339055466544
-44.77607385366598
-0.6347753109025711
73.29213397421225
148.68390936140995
174.75852597848478
113.2341496910048
-15.283436331731137
-140.28534370946824
-193.21583886472877
-161.67238879987792
-90.96818493934539
-29.2484931715877
2.8809033340962844
11.47478446631571
11.377126726176853
9.912260624093996
11.963073167009995
16.748302433813993
21.045242999923705
24.072632944228275
25.537499046311133
31.201647974364842
43.99481193255512
61.5732051575494
78.6633096818494
85.88998245212481
79.54222934309911
59.522392614633404
32.95948729686427
11.865415426871138
3.076218814373999
8.642710002288853
22.021820401312276
36.37750820172427
48.19409475852598
51.51445792324712
45.654993514915695
33.93606469825284
24.560921644922562
21.338216220340275
15.967040512703136
3.9551384756237127
-11.279468986037996
-23.48668650339513
-30.518043793392845
-38.1353475242237
-46.04562447547112
-51.80743114366369
-54.44419012741283
-53.66292820630198
-50.928511482413974
-43.311207751583126
-31.103990234225986
-16.943617914091707
-4.248111696040284
0.04882887006942855
-0.6347753109025711
2.0019836728465705
11.377126726176853
19.385061417563133
15.185778591592278
4.248111696040284
-2.68558785381857
-1.6113527122911422
3.7598229953459983
5.127031357289998
4.150453955901427
5.908293278400855
12.646677347981994
22.90074006256199
33.74074921797513
47.60814831769284
61.86617837796597
69.77645532921339
68.50690470740825
58.74113069352254
45.069047074082555
27.295338368810558
3.076218814373999
-25.537499046311133
-54.54184786755169
-74.46402685587854
-83.4485389486534
-85.88998245212481
-84.52277409018082
-79.63988708323797
-65.38185702296482
-45.16670481422141
-30.518043793392845
-27.68596932936599
-27.68596932936599
-4.345769436179141
57.471580071717405
142.8244449530785
204.93476768139163
189.40718699931335
83.54619668879225
-65.18654154268711
-175.53978789959564
-196.3408865491722
-146.14480811779964
-76.8078126192111
-28.467231250476843
-8.05676356145571
-2.392614633401999
-2.392614633401999
-1.3183794918745708
2.197299153124285
6.39658197909514
9.42397192339971
9.033340962844282
8.252079041733426
8.642710002288853
11.181811245899137
15.674067292286564
18.017853055619135
20.55695429922942
26.709391927977418
35.889219501029984
43.99481193255512
46.826886396581976
46.533913176165406
44.19012741283284
41.065079728389414
40.96742198825055
43.79949645227741
48.291752498664835
47.998779278248264
39.99084458686198
28.564888990615703
16.16235599298085
5.517662317845426
-4.834058136873426
-14.795147631036851
-20.84992751964599
-24.072632944228275
-27.002365148393988
-33.93606469825284
-44.09246967269398
-50.928511482413974
-52.78400854505226
-49.85427634088655
-46.14328221560998
-42.04165712977798
-33.3501182574197
-21.14290074006256
-8.74036774242771
-1.2207217517357138
0.6347753109025711
1.8066681925688564
3.9551384756237127
9.326314183260854
14.990463111314565
16.84596017395285
14.404516670481422
8.154421301594567
5.322346837567712
8.252079041733426
12.939650568398566
16.357671473258563
18.89677271686885
26.807049668116274
36.86579690241855
42.33463035019455
43.50652323186084
42.04165712977798
39.5025558861677
33.74074921797513
22.412451361867703
2.490272373540856
-28.857862211032273
-61.86617837796597
-83.35088120851454
-89.1126878767071
-84.3274586099031
-77.88204776073853
-69.67879758907453
-59.522392614633404
-50.14724956130312
-41.358052948805984
-30.420386053253985
-7.470817120622568
34.0337224383917
94.87449454489968
160.98878461890592
194.68070496681162
159.52391851682307
52.78400854505226
-76.22186617837797
-161.2817578393225
-174.17257953765164
-132.3750667582208
-75.44060425726711
-31.396963454642556
-6.005951018539712
2.0996414129854277
1.1230640115968566
-3.2715342946517127
-7.763790341039139
-8.349736781872283
-4.931715877012284
3.7598229953459983
13.81857022964828
20.263981078812847
22.412451361867703
19.287403677424276
17.041275654230564
20.947585259784848
29.834439612420844
37.74471656366827
39.11192492561227
38.1353475242237
37.94003204394598
39.307240405889985
42.43228809033341
43.79949645227741
42.529945830472265
38.42832074464027
32.764171816586554
27.881284809643702
22.60776684214542
18.799114976729992
15.674067292286564
11.670099946593423
5.908293278400855
-5.0293736171511405
-19.678034637979707
-35.49858854047456
-48.291752498664835
-54.7371633478294
-56.690318150606544
-53.66292820630198
-47.60814831769284
-39.20958266575113
-27.49065384908827
-16.357671473258563
-7.275501640344854
-1.1230640115968566
2.0996414129854277
3.5645075150682843
1.416037232013428
-1.1230640115968566
-2.783245593957427
-1.7090104524299992
3.5645075150682843
8.838025482566568
12.74433508812085
15.185778591592278
17.13893339436942
19.385061417563133
20.45929655909056
24.267948424505988
31.68993667505913
40.479133287556266
49.17067215991455
52.97932402532997
49.073014419775696
34.0337224383917
9.71694514381628
-17.920195315480278
-45.75265125505455
-67.0420386053254
-78.6633096818494
-81.69069962615396
-78.76096742198825
-75.14763103685054
-70.65537499046312
-66.06546120393683
-61.96383611810483
-58.1551842526894
-55.713740749217976
-45.069047074082555
-12.646677347981994
48.584725719081405
121.53505760280765
156.69184405279623
111.6716258487831
-6.298924238956283
-129.73830777447165
-183.54772259098192
-152.88319218738079
-77.4914168001831
-10.009918364232853
23.58434424353399
28.95551995117113
21.045242999923705
15.185778591592278
15.185778591592278
18.89677271686885
23.779659723811704
26.514076447699704
28.95551995117113
30.811017013809415
32.86182955672541
36.37750820172427
38.23300526436255
39.307240405889985
40.186160067139696
40.96742198825055
41.84634164950027
40.67444876783398
39.20958266575113
37.35408560311284
35.79156176089113
37.35408560311284
40.28381780727855
43.70183871213855
43.99481193255512
39.307240405889985
32.08056763561456
23.779659723811704
17.627222095063708
10.693522545204852
-0.7324330510414282
-15.088120851453422
-29.443808651865414
-39.307240405889985
-45.75265125505455
-50.73319600213626
-55.127794308384836
-61.182574196993976
-65.08888380254825
-65.18654154268711
-60.694285496299685
-50.24490730144198
-35.49858854047456
-16.260013733119706
2.5879301136797133
14.404516670481422
16.650644693675137
10.009918364232853
2.5879301136797133
-1.513694972152285
-2.68558785381857
-0.43945983062485694
2.0996414129854277
5.127031357289998
6.39658197909514
5.810635538261997
7.080186160067139
11.670099946593423
22.314793621728846
35.98687724116884
48.48706797894255
59.522392614633404
66.55374990463112
67.92095826657511
59.71770809491112
40.96742198825055
14.404516670481422
-18.21316853589685
-48.78004119935912
-69.77645532921339
-77.4914168001831
-73.19447623407339
-64.50293736171511
-53.66292820630198
-42.822919050888835
-34.424353398947126
-29.150835431448844
-24.95155260547799
-8.838025482566568
31.787594415197987
100.24567025253681
176.02807660028992
208.05981536583505
150.8323796444648
11.08415350576028
-135.9884031433585
-203.27458609903104
-170.55924315251391
-83.83916990920882
-6.787212939650568
30.811017013809415
36.57282368200198
25.830472266727703
13.037308308537423
5.71297779812314
5.615320057984283
10.693522545204852
14.795147631036851
16.16235599298085
13.623254749370565
11.279468986037996
14.990463111314565
21.14290074006256
26.514076447699704
30.518043793392845
33.545433737697415
33.838406958113985
28.076600289921416
22.021820401312276
20.361638818951704
24.65857938506142
34.0337224383917
45.069047074082555
57.178606851300835
65.6748302433814
65.6748302433814
56.59266041046769
38.33066300450141
17.52956435492485
-0.43945983062485694
-13.13496604867628
-20.068665598535134
-25.342183566033416
-29.736781872281988
-35.49858854047456
-44.48310063324941
-54.54184786755169
-63.03807125963226
-64.89356832227054
-61.37788967727169
-55.03013656824598
-46.04562447547112
-36.96345464255741
-26.22110322728313
-14.209201190203707
-3.7598229953459983
1.513694972152285
1.1230640115968566
3.7598229953459983
12.939650568398566
26.025787747005417
36.67048142214084
34.81498435950255
20.361638818951704
1.6113527122911422
-8.935683222705425
-6.103608758678568
3.36919203479057
14.11154345006485
21.045242999923705
25.049210345616846
32.27588311589227
42.33463035019455
50.04959182116426
46.240939955748836
29.150835431448844
5.322346837567712
-19.385061417563133
-37.94003204394598
-49.951934081025406
-58.350499732967116
-63.6240177004654
-65.6748302433814
-58.936446173800256
-44.19012741283284
-29.2484931715877
-23.096055542839704
-28.66254673075456
-32.27588311589227
-15.674067292286564
34.81498435950255
113.2341496910048
178.46952010376134
177.59060044251163
87.45250629434653
-51.22148470283055
-160.98878461890592
-194.4853894865339
-159.52391851682307
-99.07377737087053
-48.48706797894255
-19.87335011825742
-12.060730907148852
-12.060730907148852
-9.130998702983138
-2.5879301136797133
2.0019836728465705
-0.14648661020828566
-3.076218814373999
-0.43945983062485694
10.205233844510566
26.807049668116274
39.79552910658427
45.75265125505455
45.16670481422141
41.065079728389414
36.182192721446555
31.103990234225986
30.029755092698558
31.787594415197987
32.86182955672541
33.05714503700313
32.37354085603113
34.424353398947126
38.33066300450141
40.38147554741741
37.15877012283513
27.002365148393988
15.088120851453422
3.1738765545128556
-8.252079041733426
-16.748302433813993
-22.314793621728846
-24.756237125200276
-26.123445487144274
-26.025787747005417
-24.756237125200276
-26.025787747005417
-27.392996108949415
-28.076600289921416
-29.150835431448844
-28.95551995117113
-25.342183566033416
-15.381094071869994
-4.638742656595713
0.7324330510414282
1.1230640115968566
-3.076218814373999
-7.763790341039139
-10.79118028534371
-9.228656443121995
-1.7090104524299992
4.248111696040284
4.834058136873426
2.197299153124285
2.0996414129854277
5.322346837567712
7.568474860761425
12.549019607843137
22.705424582284277
34.52201113908598
43.40886549172198
48.09643701838712
52.97932402532997
55.713740749217976
49.658960860608836
30.029755092698558
-3.8574807354848555
-41.16273746852827
-72.21789883268482
-93.60494392309452
-104.93324177920195
-107.47234302281224
-99.3667505912871
-84.42511635004196
-66.45609216449226
-48.68238345922026
-37.94003204394598
-33.15480277714199
-25.24452582589456
0.9277485313191425
57.178606851300835
130.81254291599907
182.18051422903793
164.11383230334937
68.79987792782482
-55.713740749217976
-143.60570687418937
-156.59418631265737
-110.79270618753338
-49.75661860074769
-4.931715877012284
15.771725032425422
22.412451361867703
22.803082322423133
20.752269779507134
19.18974593728542
19.385061417563133
24.756237125200276
31.885252155336843
36.0845349813077
37.35408560311284
36.0845349813077
36.182192721446555
38.03768978408484
41.065079728389414
44.19012741283284
44.19012741283284
42.822919050888835
40.28381780727855
38.03768978408484
38.818951705195694
40.96742198825055
45.069047074082555
49.56130312046998
52.39337758449683
51.80743114366369
45.26436255436027
36.27985046158541
26.22110322728313
14.892805371175708
3.36919203479057
-9.326314183260854
-20.068665598535134
-28.076600289921416
-33.545433737697415
-38.62363622491798
-47.11985961699855
-56.006713969634546
-62.45212481879911
-63.72167544060426
-58.1551842526894
-49.75661860074769
-39.307240405889985
-28.076600289921416
-17.13893339436942
-8.252079041733426
-3.076218814373999
1.2207217517357138
3.8574807354848555
4.541084916456855
5.322346837567712
4.931715877012284
3.9551384756237127
2.0996414129854277
0.537117570763714
-0.14648661020828566
-1.1230640115968566
2.9785610742351416
13.623254749370565
27.68596932936599
41.45571068894484
49.951934081025406
53.27229724574655
50.04959182116426
39.79552910658427
22.021820401312276
-4.248111696040284
-32.95948729686427
-58.057526512550545
-73.97573815518425
-79.73754482337682
-81.20241092545967
-79.05394064240483
-72.60852979324025
-61.37788967727169
-48.97535667963683
-42.92057679102769
-42.04165712977798
-38.91660944533455
-17.920195315480278
35.49858854047456
111.57396810864424
167.6295109483482
146.82841229877164
35.4009308003357
-109.8161287861448
-204.5441367208362
-202.98161287861447
-132.57038223849852
-52.39337758449683
0.04882887006942855
19.48271915770199
20.84992751964599
17.43190661478599
16.45532921339742
18.60379949645228
19.48271915770199
20.55695429922942
22.510109102006563
26.90470740825513
35.49858854047456
44.38544289311055
50.44022278171969
49.658960860608836
42.43228809033341
32.764171816586554
23.682001983672848
20.947585259784848
23.389028763256274
27.783627069504846
32.95948729686427
37.06111238269627
41.5533684290837
45.26436255436027
46.14328221560998
41.651026169222554
28.95551995117113
13.916227969787137
1.6113527122911422
-4.345769436179141
-3.466849774929427
-2.197299153124285
-5.224689097428855
-15.381094071869994
-28.760204470893417
-39.893186846723125
-48.78004119935912
-53.95590142671855
-56.7879758907454
-56.88563363088426
-52.49103532463569
-45.26436255436027
-35.303273060196844
-25.92813000686656
-19.87335011825742
-17.43190661478599
-18.60379949645228
-18.21316853589685
-14.697489890897993
-8.154421301594567
1.2207217517357138
8.642710002288853
12.353704127565424
11.670099946593423
10.205233844510566
11.767757686732281
15.088120851453422
22.21713588158999
31.68993667505913
42.13931486991684
53.66292820630198
63.819333180743115
71.72961013199054
72.80384527351796
64.79591058213168
48.38941023880369
23.48668650339513
-5.615320057984283
-37.06111238269627
-65.8701457236591
-86.08529793240254
-96.43701838712138
-96.82764934767681
-91.45647364003968
-81.5930418860151
-67.43266956588083
-54.053559166857404
-43.40886549172198
-34.61966887922484
-15.47875181200885
32.08056763561456
108.74189364461738
181.7898832684825
190.28610666056306
100.7339589532311
-48.584725719081405
-171.9264515144579
-202.10269321736476
-146.14480811779964
-61.67086289768826
0.43945983062485694
24.267948424505988
24.365606164644845
17.724879835202564
14.306858930342566
15.771725032425422
18.017853055619135
20.752269779507134
21.338216220340275
19.18974593728542
18.40848401617456
19.48271915770199
22.998397802700847
27.100022888532845
33.74074921797513
44.09246967269398
54.053559166857404
62.54978255893797
66.94438086518655
66.45609216449226
61.86617837796597
52.6863508049134
42.92057679102769
34.22903791866941
29.150835431448844
26.90470740825513
21.24055848020142
13.623254749370565
7.861448081177996
5.615320057984283
2.68558785381857
-6.39658197909514
-17.041275654230564
-24.365606164644845
-28.27191577019913
-32.471198596169984
-40.772106507972836
-49.26832990005341
-54.932478828107115
-54.24887464713512
-46.04562447547112
-35.49858854047456
-25.24452582589456
-18.21316853589685
-14.306858930342566
-11.670099946593423
-8.05676356145571
0.9277485313191425
11.377126726176853
16.748302433813993
15.771725032425422
10.205233844510566
6.201266498817426
4.931715877012284
3.9551384756237127
0.537117570763714
-5.224689097428855
-5.71297779812314
1.1230640115968566
13.81857022964828
29.63912413214313
43.99481193255512
56.7879758907454
66.65140764476998
72.5108720531014
70.94834821087969
55.61608300907912
27.68596932936599
-7.861448081177996
-41.065079728389414
-62.54978255893797
-72.80384527351796
-73.87808041504539
-68.11627374685283
-55.03013656824598
-38.525978484779124
-30.22507057297627
-34.424353398947126
-45.26436255436027
-42.33463035019455
-5.127031357289998
65.47951476310368
144.09399557488365
184.7196154726482
151.0276951247425
44.19012741283284
-89.50331883726253
-178.17654688334477
-183.93835355153735
-125.63668268863965
-51.61211566338598
-1.8066681925688564
15.185778591592278
8.935683222705425
-2.783245593957427
-5.810635538261997
1.8066681925688564
14.697489890897993
20.361638818951704
16.650644693675137
13.720912489509422
15.381094071869994
18.40848401617456
17.627222095063708
16.84596017395285
20.45929655909056
23.291371023117417
23.096055542839704
20.263981078812847
18.21316853589685
19.58037689784085
23.48668650339513
31.68993667505913
41.16273746852827
48.19409475852598
49.75661860074769
43.50652323186084
33.44777599755856
22.705424582284277
14.404516670481422
8.838025482566568
1.8066681925688564
-6.494239719233997
-15.869382772564279
-22.705424582284277
-26.416418707560844
-31.592278934920273
-37.256427862973986
-43.018234531166556
-47.80346379797055
-50.14724956130312
-50.44022278171969
-45.654993514915695
-36.768139162279695
-26.807049668116274
-19.48271915770199
-18.799114976729992
-21.24055848020142
-22.90074006256199
-19.092088197146563
-9.130998702983138
-0.04882887006942855
4.345769436179141
4.541084916456855
4.541084916456855
4.541084916456855
1.513694972152285
0.14648661020828566
3.1738765545128556
9.81460288395514
18.89677271686885
30.127412832837415
45.75265125505455
60.59662775616083
69.77645532921339
69.9717708094911
57.56923781185626
35.79156176089113
9.033340962844282
-17.041275654230564
-38.33066300450141
-54.639505607690545
-64.01464866102083
-68.79987792782482
-70.4600595101854
-68.89753566796368
-65.38185702296482
-58.057526512550545
-48.877698939497975
-37.549401083390556
-18.994430457007706
13.037308308537423
65.57717250324254
129.44533455405508
176.02807660028992
167.14122224765393
82.47196154726483
-45.75265125505455
-152.00427252613107
-184.42664225223163
-143.70336461432822
-74.17105363546197
-16.943617914091707
11.572442206454566
18.506141756313422
14.892805371175708
6.591897459372854
1.0254062714579995
-0.24414435034714274
2.2949568932631417
8.154421301594567
13.623254749370565
18.799114976729992
22.803082322423133
26.61173418783856
29.9320973525597
30.322728313115128
30.71335927367056
30.908674753948272
31.68993667505913
34.81498435950255
39.014267185473415
43.99481193255512
46.43625543602655
45.45967803463798
42.236972610055695
37.94003204394598
36.37750820172427
35.303273060196844
30.908674753948272
22.803082322423133
11.767757686732281
1.416037232013428
-9.326314183260854
-19.678034637979707
-28.369573510337986
-37.64705882352941
-46.14328221560998
-53.17463950560769
-55.51842526894026
-51.123826962691695
-43.21355001144427
-32.471198596169984
-22.119478141451133
-13.525597009231708
-6.982528419928283
-3.36919203479057
-0.7324330510414282
-1.513694972152285
-5.517662317845426
-8.44739452201114
-8.154421301594567
-3.466849774929427
0.9277485313191425
2.783245593957427
1.6113527122911422
-2.2949568932631417
-4.345769436179141
-2.8809033340962844
3.8574807354848555
17.52956435492485
34.91264209964141
52.002746623941405
63.03807125963226
67.62798504615854
66.3584344243534
55.420767528801406
36.0845349813077
11.08415350576028
-15.381094071869994
-40.479133287556266
-62.745098039215684
-77.19844357976653
-83.54619668879225
-82.56961928740368
-76.12420843823911
-68.11627374685283
-58.350499732967116
-49.85427634088655
-44.38544289311055
-38.33066300450141
-21.43587396047913
22.021820401312276
93.40962844281681
165.48104066529336
184.7196154726482
108.83955138475623
-37.15877012283513
-171.34050507362477
-219.68108644235903
-175.93041886015106
-91.1635004196231
-17.43190661478599
20.947585259784848
29.9320973525597
25.732814526588847
18.701457236591136
16.260013733119706
17.041275654230564
19.678034637979707
24.95155260547799
30.322728313115128
35.10795757991913
37.64705882352941
39.307240405889985
40.96742198825055
40.57679102769512
40.08850232700084
38.62363622491798
37.94003204394598
40.28381780727855
43.50652323186084
47.0222018768597
48.48706797894255
48.877698939497975
49.073014419775696
47.31517509727627
45.75265125505455
43.018234531166556
37.94003204394598
30.22507057297627
19.775692378118563
9.033340962844282
-3.2715342946517127
-16.357671473258563
-28.076600289921416
-39.99084458686198
-49.85427634088655
-56.983291371023114
-59.13176165407798
-55.61608300907912
-49.658960860608836
-41.065079728389414
-31.592278934920273
-22.314793621728846
-15.869382772564279
-14.892805371175708
-14.795147631036851
-12.646677347981994
-6.201266498817426
4.248111696040284
13.623254749370565
19.775692378118563
20.068665598535134
15.47875181200885
8.545052262149996
1.0254062714579995
-2.0996414129854277
-1.7090104524299992
1.7090104524299992
10.595864805065995
24.17029068436713
41.84634164950027
58.25284199282826
70.75303273060197
77.10078583962768
72.60852979324025
58.54581521324483
37.06111238269627
11.963073167009995
-14.209201190203707
-41.651026169222554
-65.38185702296482
-82.27664606698711
-89.1126878767071
-86.67124437323568
-79.83520256351568
-69.38582436865796
-58.1551842526894
-48.09643701838712
-39.79552910658427
-31.00633249408713
-7.666132600900283
45.26436255436027
127.39452201113909
199.0753032730602
195.55962462806133
89.01503013656824
-74.46402685587854
-200.14953841458762
-223.78271152819104
-160.1098649576562
-68.79987792782482
-2.490272373540856
25.049210345616846
26.318760967421987
17.13893339436942
11.572442206454566
10.79118028534371
11.865415426871138
13.232623788815136
13.13496604867628
13.916227969787137
17.236591134508277
25.63515678644999
37.549401083390556
47.51049057755398
54.639505607690545
54.7371633478294
46.63157091630426
34.32669565880827
25.146868085755703
27.588311589227132
39.69787136644541
53.07698176546884
59.13176165407798
54.83482108796826
49.26832990005341
46.63157091630426
43.21355001144427
32.6665140764477
14.209201190203707
-2.783245593957427
-14.209201190203707
-21.63118944075685
-30.518043793392845
-44.38544289311055
-57.471580071717405
-65.6748302433814
-67.33501182574197
-63.42870222018769
-57.66689555199512
-47.998779278248264
-34.131380178530556
-18.40848401617456
-5.810635538261997
1.2207217517357138
6.591897459372854
7.861448081177996
4.736400396734569
1.8066681925688564
1.2207217517357138
4.541084916456855
10.79118028534371
22.412451361867703
37.64705882352941
45.16670481422141
35.303273060196844
6.982528419928283
-22.705424582284277
-34.61966887922484
-29.346150911726557
-18.40848401617456
-7.861448081177996
8.154421301594567
30.71335927367056
48.78004119935912
56.49500267032883
52.881666285191116
39.893186846723125
17.724879835202564
-12.353704127565424
-41.651026169222554
-63.233386739909974
-73.87808041504539
-77.00312809948882
-79.15159838254368
-78.37033646143283
-71.72961013199054
-58.74113069352254
-45.45967803463798
-39.20958266575113
-32.56885633630884
-9.619287403677424
46.92454413672083
129.8359655146105
190.96971084153506
172.9030289158465
58.936446173800256
-94.09323262378882
-197.21980621042192
-203.3722438391699
-134.62119478141452
-51.90508888380255
4.541084916456855
31.68993667505913
42.236972610055695
45.362020294499125
35.596246280613414
14.209201190203707
-4.052796215762569
-7.763790341039139
2.392614633401999
14.50217441062028
21.826504921034562
24.072632944228275
22.119478141451133
21.24055848020142
22.998397802700847
29.834439612420844
40.96742198825055
49.46364538033112
53.07698176546884
51.80743114366369
49.26832990005341
48.97535667963683
51.90508888380255
58.936446173800256
63.91699092088197
63.819333180743115
60.401312275883114
53.85824368657969
43.50652323186084
26.90470740825513
8.44739452201114
-7.959105821316854
-22.314793621728846
-31.396963454642556
-37.15877012283513
-42.13931486991684
-46.72922865644312
-51.51445792324712
-54.54184786755169
-56.1043717097734
-54.346532387273975
-50.44022278171969
-48.584725719081405
-46.92454413672083
-44.38544289311055
-38.91660944533455
-31.201647974364842
-26.025787747005417
-23.19371328297856
-21.92416266117342
-18.994430457007706
-14.306858930342566
-10.009918364232853
-4.443427176317998
0.04882887006942855
1.416037232013428
-0.6347753109025711
-4.248111696040284
-0.537117570763714
13.037308308537423
32.27588311589227
49.56130312046998
60.49897001602197
68.70222018768597
72.80384527351796
69.77645532921339
57.08094911116198
33.252460517280845
3.466849774929427
-26.90470740825513
-51.51445792324712
-67.62798504615854
-77.19844357976653
-80.32349126420996
-80.03051804379339
-75.2452887769894
-64.50293736171511
-52.39337758449683
-41.943999389639124
-31.592278934920273
-8.05676356145571
42.236972610055695
114.21072709239338
172.41474021515222
160.98878461890592
58.25284199282826
-87.45250629434653
-189.60250247959107
-194.87602044708933
-127.10154879072252
-46.04562447547112
7.177843900205997
27.97894254978256
32.6665140764477
29.443808651865414
23.974975204089418
22.60776684214542
25.146868085755703
30.71335927367056
36.475165941863125
40.86976424811169
40.28381780727855
33.545433737697415
27.392996108949415
23.682001983672848
23.779659723811704
27.1976806286717
28.076600289921416
25.63515678644999
22.60776684214542
23.87731746395056
27.783627069504846
30.908674753948272
35.98687724116884
40.479133287556266
41.5533684290837
39.40489814602884
34.61966887922484
29.053177691309987
19.971007858396277
8.74036774242771
-2.197299153124285
-12.74433508812085
-21.728847180895706
-32.08056763561456
-42.13931486991684
-47.51049057755398
-48.48706797894255
-46.92454413672083
-47.0222018768597
-47.0222018768597
-44.873731593804834
-41.26039520866713
-34.91264209964141
-27.97894254978256
-19.87335011825742
-10.79118028534371
-6.103608758678568
-7.275501640344854
-12.939650568398566
-16.84596017395285
-17.236591134508277
-16.943617914091707
-15.381094071869994
-13.13496604867628
-8.44739452201114
-0.8300907911802854
5.322346837567712
8.74036774242771
8.545052262149996
9.130998702983138
12.939650568398566
19.58037689784085
31.103990234225986
42.62760357061112
48.48706797894255
43.89715419241627
25.342183566033416
-5.224689097428855
-44.67841611352712
-80.2258335240711
-99.95269703212024
-103.27306019684139
-95.06981002517739
-83.6438544289311
-70.26474402990769
-56.006713969634546
-45.947966735332265
-41.26039520866713
-40.86976424811169
-32.95948729686427
-1.1230640115968566
64.69825284199283
155.03166247043563
218.11856260013732
191.45799954222935
64.9912260624094
-90.47989623865111
-177.1999694819562
-160.89112687876707
-82.56961928740368
-7.763790341039139
25.63515678644999
24.756237125200276
12.060730907148852
5.0293736171511405
7.080186160067139
10.986495765621424
14.990463111314565
18.799114976729992
22.021820401312276
19.18974593728542
7.568474860761425
-1.9043259327077133
-2.0996414129854277
5.615320057984283
14.697489890897993
21.14290074006256
27.97894254978256
32.37354085603113
31.592278934920273
27.295338368810558
24.65857938506142
30.811017013809415
40.67444876783398
46.04562447547112
44.67841611352712
40.08850232700084
38.03768978408484
36.57282368200198
35.10795757991913
32.86182955672541
24.560921644922562
7.666132600900283
-16.064698252841993
-37.4517433432517
-49.56130312046998
-53.56527046616312
-51.02616922255284
-47.31517509727627
-44.19012741283284
-41.16273746852827
-37.256427862973986
-28.66254673075456
-18.21316853589685
-10.302891584649425
-5.908293278400855
-3.7598229953459983
-0.7324330510414282
-0.14648661020828566
-0.6347753109025711
1.1230640115968566
4.638742656595713
8.74036774242771
9.42397192339971
8.349736781872283
8.252079041733426
8.349736781872283
7.568474860761425
3.5645075150682843
2.197299153124285
9.033340962844282
21.728847180895706
37.256427862973986
51.123826962691695
61.96383611810483
67.33501182574197
63.526359960326545
52.10040436408026
33.93606469825284
12.45136186770428
-10.79118028534371
-35.98687724116884
-56.49500267032883
-66.45609216449226
-63.819333180743115
-54.346532387273975
-45.947966735332265
-39.307240405889985
-34.22903791866941
-29.150835431448844
-22.21713588158999
-7.568474860761425
28.95551995117113
90.57755397878996
155.91058213168535
184.0360112916762
142.43381399252308
37.94003204394598
-87.25719081406882
-175.24681467917907
-192.14160372320134
-151.12535286488136
-89.21034561684596
-40.772106507972836
-17.334248874647134
-12.549019607843137
-14.11154345006485
-10.400549324788281
-1.0254062714579995
10.400549324788281
19.092088197146563
22.412451361867703
25.439841306172273
29.834439612420844
35.889219501029984
42.529945830472265
47.0222018768597
49.46364538033112
47.0222018768597
41.74868390936141
35.596246280613414
28.95551995117113
25.342183566033416
24.95155260547799
29.053177691309987
35.98687724116884
40.86976424811169
41.5533684290837
35.79156176089113
28.369573510337986
23.096055542839704
17.724879835202564
11.181811245899137
2.8809033340962844
-3.7598229953459983
-8.252079041733426
-12.549019607843137
-15.771725032425422
-18.89677271686885
-21.14290074006256
-22.021820401312276
-23.096055542839704
-22.998397802700847
-22.705424582284277
-19.287403677424276
-10.595864805065995
-1.1230640115968566
5.615320057984283
6.787212939650568
5.420004577706569
3.8574807354848555
2.0996414129854277
2.197299153124285
1.3183794918745708
-1.6113527122911422
-5.517662317845426
-8.642710002288853
-8.154421301594567
-6.103608758678568
-2.490272373540856
2.68558785381857
9.912260624093996
21.728847180895706
35.010299839780274
47.998779278248264
59.62005035477226
67.13969634546426
67.33501182574197
53.07698176546884
25.830472266727703
-7.177843900205997
-39.893186846723125
-64.69825284199283
-79.24925612268254
-82.27664606698711
-77.29610131990539
-71.43663691157397
-66.45609216449226
-63.33104448004883
-60.30365453574426
-57.95986877241169
-55.22545204852369
-41.26039520866713
-4.931715877012284
58.8387884336614
132.57038223849852
171.14518959334706
132.27740901808195
15.283436331731137
-118.11703669794767
-191.84863050278477
-179.4460975051499
-111.76928358892195
-40.772106507972836
5.420004577706569
25.439841306172273
27.97894254978256
23.48668650339513
16.650644693675137
11.377126726176853
8.252079041733426
7.373159380483711
11.865415426871138
19.092088197146563
26.807049668116274
33.44777599755856
37.256427862973986
39.5025558861677
39.5025558861677
38.91660944533455
38.1353475242237
36.27985046158541
35.69390402075227
35.303273060196844
36.0845349813077
38.818951705195694
40.86976424811169
39.99084458686198
33.05714503700313
23.779659723811704
16.748302433813993
11.279468986037996
7.373159380483711
2.8809033340962844
-0.8300907911802854
-3.8574807354848555
-7.763790341039139
-11.865415426871138
-17.920195315480278
-25.049210345616846
-31.787594415197987
-37.74471656366827
-40.67444876783398
-42.33463035019455
-41.651026169222554
-37.549401083390556
-31.885252155336843
-25.342183566033416
-20.654612039368278
-17.041275654230564
-14.209201190203707
-12.549019607843137
-8.545052262149996
-3.2715342946517127
2.5879301136797133
7.959105821316854
10.888838025482567
12.45136186770428
11.08415350576028
8.154421301594567
5.908293278400855
6.39658197909514
14.795147631036851
29.2484931715877
45.55733577477684
59.22941939421683
66.74906538490883
68.11627374685283
60.987258716716255
46.826886396581976
26.416418707560844
-1.416037232013428
-32.27588311589227
-58.74113069352254
-71.43663691157397
-70.36240177004655
-64.9912260624094
-61.67086289768826
-63.03807125963226
-64.3076218814374
-63.526359960326545
-63.13572899977112
-61.08491645685512
-50.14724956130312
-15.381094071869994
52.6863508049134
137.8439002059968
190.57907988097963
152.78553444724193
21.24055848020142
-133.5469596398871
-221.73189898527505
-205.81368734264134
-124.26947432669566
-39.893186846723125
8.935683222705425
22.021820401312276
20.361638818951704
18.994430457007706
23.389028763256274
29.736781872281988
32.95948729686427
34.131380178530556
32.471198596169984
29.834439612420844
29.2484931715877
30.420386053253985
32.764171816586554
33.252460517280845
31.885252155336843
28.27191577019913
22.60776684214542
20.752269779507134
23.19371328297856
28.760204470893417
35.20561532005799
40.186160067139696
44.19012741283284
44.67841611352712
42.822919050888835
40.772106507972836
39.307240405889985
40.28381780727855
39.79552910658427
35.596246280613414
27.002365148393988
14.795147631036851
1.1230640115968566
-15.088120851453422
-31.592278934920273
-45.947966735332265
-58.25284199282826
-66.84672312504769
-71.1436636911574
-65.96780346379796
-50.53788052185855
-33.252460517280845
-22.021820401312276
-21.24055848020142
-25.049210345616846
-27.392996108949415
-26.90470740825513
-22.705424582284277
-17.920195315480278
-11.670099946593423
-3.9551384756237127
1.7090104524299992
3.5645075150682843
0.34180209048599985
-3.466849774929427
-5.71297779812314
-7.373159380483711
-5.322346837567712
1.9043259327077133
16.260013733119706
35.49858854047456
53.95590142671855
68.4092469672694
75.53826199740597
76.41718165865568
70.94834821087969
56.7879758907454
35.20561532005799
7.373159380483711
-21.045242999923705
-45.362020294499125
-63.42870222018769
-72.99916075379568
-77.29610131990539
-76.71015487907225
-71.8272678721294
-64.89356832227054
-57.86221103227283
-54.83482108796826
-49.951934081025406
-28.369573510337986
22.998397802700847
101.41756313420309
170.07095445181963
177.29762722209506
94.48386358434425
-47.998779278248264
-169.28969253070878
-205.52071412222477
-155.91058213168535
-72.02258335240711
-6.591897459372854
22.705424582284277
23.682001983672848
14.795147631036851
8.935683222705425
9.521629663538567
15.283436331731137
19.971007858396277
23.48668650339513
28.66254673075456
34.32669565880827
39.79552910658427
42.04165712977798
41.943999389639124
40.479133287556266
37.84237430380713
37.15877012283513
37.15877012283513
39.11192492561227
44.48310063324941
50.635538261997404
56.690318150606544
61.768520637827116
68.70222018768597
75.2452887769894
73.3897917143511
60.694285496299685
40.08850232700084
19.971007858396277
5.0293736171511405
-5.322346837567712
-10.10757610437171
-12.646677347981994
-16.16235599298085
-24.267948424505988
-37.4517433432517
-49.951934081025406
-60.108339055466544
-65.18654154268711
-64.11230640115969
-60.694285496299685
-55.03013656824598
-45.947966735332265
-31.9829098954757
-18.89677271686885
-12.353704127565424
-8.838025482566568
-8.154421301594567
-8.935683222705425
-9.521629663538567
-9.130998702983138
-5.517662317845426
-0.6347753109025711
3.1738765545128556
2.392614633401999
-0.8300907911802854
2.9785610742351416
13.916227969787137
25.732814526588847
34.0337224383917
40.38147554741741
49.75661860074769
59.815365835049974
66.45609216449226
67.62798504615854
64.11230640115969
56.59266041046769
40.86976424811169
19.58037689784085
-4.150453955901427
-32.86182955672541
-64.50293736171511
-90.18692301823454
-97.51125352864881
-88.13611047531853
-74.17105363546197
-62.9404135194934
-57.27626459143969
-52.588693064774546
-42.92057679102769
-23.87731746395056
15.576409552147707
84.52277409018082
170.26626993209734
220.36469062333106
177.39528496223392
43.018234531166556
-111.96459906919966
-200.54016937514305
-193.99710078583962
-131.10551613641564
-65.6748302433814
-28.95551995117113
-19.18974593728542
-24.4632639047837
-33.15480277714199
-32.37354085603113
-20.752269779507134
-4.345769436179141
6.103608758678568
4.248111696040284
-2.68558785381857
-4.736400396734569
3.076218814373999
13.720912489509422
18.799114976729992
18.89677271686885
15.283436331731137
12.646677347981994
14.404516670481422
19.287403677424276
25.342183566033416
28.95551995117113
31.00633249408713
31.00633249408713
27.1976806286717
22.60776684214542
18.310826276035705
15.576409552147707
12.84199282825971
7.275501640344854
-2.392614633401999
-19.48271915770199
-38.33066300450141
-51.80743114366369
-60.49897001602197
-66.45609216449226
-70.94834821087969
-69.28816662851911
-60.79194323643854
-51.709773403524835
-46.72922865644312
-48.19409475852598
-47.705806057831694
-37.64705882352941
-22.21713588158999
-8.349736781872283
1.1230640115968566
10.888838025482567
21.24055848020142
28.369573510337986
30.908674753948272
27.881284809643702
23.87731746395056
20.947585259784848
15.283436331731137
8.05676356145571
3.2715342946517127
6.298924238956283
14.599832150759136
22.119478141451133
28.174258030060273
31.592278934920273
34.91264209964141
39.79552910658427
44.48310063324941
47.412832837415124
44.873731593804834
35.98687724116884
20.45929655909056
-1.0254062714579995
-24.365606164644845
-47.998779278248264
-66.65140764476998
-76.51483939879454
-78.6633096818494
-74.07339589532312
-63.6240177004654
-45.947966735332265
-26.22110322728313
-12.74433508812085
-5.224689097428855
1.6113527122911422
22.510109102006563
67.33501182574197
126.80857557030595
172.41474021515222
166.26230258640422
92.5307087815671
-24.560921644922562
-129.05470359349965
-170.55924315251391
-146.9260700389105
-91.26115815976196
-40.38147554741741
-11.865415426871138
-0.7324330510414282
2.0019836728465705
4.931715877012284
10.205233844510566
16.260013733119706
23.682001983672848
30.811017013809415
38.1353475242237
43.311207751583126
43.604180971999696
42.04165712977798
40.67444876783398
44.09246967269398
52.6863508049134
60.49897001602197
62.9404135194934
57.56923781185626
49.75661860074769
43.70183871213855
38.72129396505684
35.889219501029984
34.0337224383917
33.64309147783627
32.56885633630884
27.881284809643702
20.45929655909056
10.10757610437171
-0.14648661020828566
-8.642710002288853
-16.16235599298085
-22.998397802700847
-30.518043793392845
-35.596246280613414
-37.4517433432517
-38.62363622491798
-38.42832074464027
-36.57282368200198
-30.811017013809415
-22.21713588158999
-14.599832150759136
-7.959105821316854
-3.8574807354848555
-0.14648661020828566
4.150453955901427
6.982528419928283
8.154421301594567
6.39658197909514
4.345769436179141
2.783245593957427
1.3183794918745708
1.8066681925688564
2.68558785381857
4.638742656595713
7.861448081177996
9.912260624093996
10.888838025482567
11.181811245899137
15.47875181200885
24.95155260547799
35.49858854047456
44.67841611352712
49.56130312046998
50.53788052185855
45.85030899519341
32.56885633630884
11.572442206454566
-16.650644693675137
-46.63157091630426
-71.63195239185168
-87.45250629434653
-91.8471046005951
-88.72205691615167
-79.44457160296025
-66.45609216449226
-54.44419012741283
-45.947966735332265
-43.11589227130541
-39.014267185473415
-20.947585259784848
23.291371023117417
95.55809872587167
164.0161745632105
174.0749217975128
90.96818493934539
-53.27229724574655
-171.0475318532082
-198.29404135194935
-139.89471274891278
-51.416800183108265
13.916227969787137
39.893186846723125
35.303273060196844
21.63118944075685
13.916227969787137
13.427939269092851
17.13893339436942
20.55695429922942
23.389028763256274
23.682001983672848
20.16632333867399
18.506141756313422
20.361638818951704
26.514076447699704
35.010299839780274
40.96742198825055
43.11589227130541
41.358052948805984
40.38147554741741
41.358052948805984
41.26039520866713
40.38147554741741
39.40489814602884
41.74868390936141
47.31517509727627
51.709773403524835
51.416800183108265
42.72526131074998
29.150835431448844
15.381094071869994
1.416037232013428
-12.158388647287708
-24.4632639047837
-31.2993057145037
-33.3501182574197
-35.4009308003357
-38.42832074464027
-43.604180971999696
-48.78004119935912
-52.295719844357976
-53.36995498588541
-49.46364538033112
-42.529945830472265
-32.471198596169984
-21.63118944075685
-15.576409552147707
-15.47875181200885
-19.48271915770199
-20.84992751964599
-16.84596017395285
-9.81460288395514
-1.0254062714579995
5.810635538261997
10.400549324788281
12.158388647287708
10.498207064927138
9.033340962844282
9.619287403677424
15.088120851453422
23.779659723811704
32.471198596169984
42.236972610055695
52.19806210421912
62.061493858243686
67.82330052643626
64.69825284199283
53.27229724574655
33.64309147783627
9.130998702983138
-18.21316853589685
-47.11985961699855
-71.33897917143511
-86.57358663309682
-89.21034561684596
-82.27664606698711
-72.31555657282368
-61.5732051575494
-53.27229724574655
-48.291752498664835
-46.240939955748836
-40.186160067139696
-12.353704127565424
49.365987640192266
133.5469596398871
191.45799954222935
166.5552758068208
50.04959182116426
-101.51522087434195
-200.24719615472648
-201.3214312962539
-133.7422751201648
-56.7879758907454
-10.10757610437171
6.005951018539712
8.44739452201114
8.154421301594567
8.05676356145571
5.322346837567712
3.1738765545128556
5.322346837567712
11.279468986037996
19.385061417563133
25.342183566033416
32.27588311589227
43.40886549172198
55.420767528801406
63.42870222018769
61.96383611810483
53.85824368657969
44.67841611352712
37.84237430380713
35.10795757991913
33.74074921797513
34.32669565880827
37.84237430380713
42.822919050888835
47.998779278248264
48.78004119935912
44.77607385366598
36.27985046158541
22.998397802700847
9.912260624093996
0.537117570763714
-4.736400396734569
-11.963073167009995
-24.95155260547799
-38.03768978408484
-47.90112153810941
-52.588693064774546
-51.80743114366369
-47.412832837415124
-42.236972610055695
-41.651026169222554
-40.86976424811169
-33.05714503700313
-20.84992751964599
-10.302891584649425
-6.005951018539712
-3.2715342946517127
1.1230640115968566
5.322346837567712
7.666132600900283
6.298924238956283
5.127031357289998
7.080186160067139
9.130998702983138
7.373159380483711
-1.1230640115968566
-10.10757610437171
-13.427939269092851
-10.302891584649425
-1.0254062714579995
10.595864805065995
23.779659723811704
37.74471656366827
49.85427634088655
58.74113069352254
59.71770809491112
51.709773403524835
36.27985046158541
15.47875181200885
-6.884870679789426
-30.22507057297627
-50.73319600213626
-64.3076218814374
-68.70222018768597
-62.84275577935454
-52.49103532463569
-42.43228809033341
-37.06111238269627
-39.11192492561227
-42.43228809033341
-36.86579690241855
-7.959105821316854
52.10040436408026
132.1797512779431
192.53223468375677
176.02807660028992
65.18654154268711
-86.47592889295797
-193.41115434500648
-207.18089570458534
-151.0276951247425
-77.68673228046082
-24.365606164644845
1.9043259327077133
12.158388647287708
14.013885709925994
13.623254749370565
13.720912489509422
14.990463111314565
18.701457236591136
20.84992751964599
20.55695429922942
20.263981078812847
21.14290074006256
23.096055542839704
23.58434424353399
25.342183566033416
28.95551995117113
30.908674753948272
31.787594415197987
32.6665140764477
35.79156176089113
40.86976424811169
46.72922865644312
53.07698176546884
54.83482108796826
50.928511482413974
43.50652323186084
34.0337224383917
24.65857938506142
15.088120851453422
7.373159380483711
0.04882887006942855
-10.400549324788281
-20.55695429922942
-28.857862211032273
-36.0845349813077
-44.97138933394369
-55.127794308384836
-60.987258716716255
-63.03807125963226
-61.182574196993976
-54.15121690699626
-41.74868390936141
-26.709391927977418
-16.748302433813993
-12.158388647287708
-8.642710002288853
-3.466849774929427
3.662165255207141
6.494239719233997
3.1738765545128556
-2.68558785381857
-7.275501640344854
-7.666132600900283
-5.908293278400855
-2.392614633401999
-0.8300907911802854
-5.420004577706569
-11.767757686732281
-12.74433508812085
-2.0996414129854277
16.45532921339742
34.22903791866941
47.0222018768597
53.36995498588541
58.44815747310597
62.745098039215684
59.03410391393912
43.604180971999696
18.60379949645228
-7.177843900205997
-30.908674753948272
-53.07698176546884
-68.70222018768597
-75.63591973754482
-75.04997329671168
-72.12024109254597
-69.28816662851911
-62.64744029907683
-52.881666285191116
-42.92057679102769
-34.131380178530556
-19.775692378118563
15.869382772564279
78.17502098115511
150.93003738460365
193.41115434500648
163.91851682307163
59.522392614633404
-72.60852979324025
-161.67238879987792
-170.26626993209734
-118.89829861905852
-54.83482108796826
-14.209201190203707
-0.14648661020828566
0.04882887006942855
-1.6113527122911422
0.9277485313191425
4.150453955901427
7.177843900205997
12.256046387426567
18.994430457007706
24.365606164644845
23.291371023117417
19.678034637979707
19.775692378118563
24.756237125200276
32.37354085603113
37.64705882352941
42.04165712977798
48.19409475852598
53.85824368657969
56.7879758907454
54.639505607690545
50.635538261997404
47.0222018768597
42.72526131074998
38.91660944533455
35.10795757991913
31.494621194781413
25.830472266727703
17.041275654230564
8.252079041733426
-0.6347753109025711
-10.009918364232853
-19.58037689784085
-29.053177691309987
-35.79156176089113
-40.96742198825055
-43.99481193255512
-45.75265125505455
-46.72922865644312
-43.21355001144427
-35.596246280613414
-25.732814526588847
-16.943617914091707
-11.47478446631571
-7.275501640344854
-4.443427176317998
-0.24414435034714274
5.810635538261997
9.521629663538567
8.838025482566568
2.68558785381857
-4.638742656595713
-10.10757610437171
-12.939650568398566
-11.181811245899137
-7.568474860761425
-1.9043259327077133
5.0293736171511405
11.377126726176853
19.287403677424276
29.541466392004274
42.62760357061112
53.66292820630198
57.27626459143969
54.639505607690545
46.33859769588769
33.545433737697415
14.990463111314565
-9.81460288395514
-35.10795757991913
-56.39734493018997
-69.19050888838025
-73.97573815518425
-74.17105363546197
-70.16708628976883
-63.72167544060426
-53.66292820630198
-42.72526131074998
-37.35408560311284
-34.61966887922484
-23.58434424353399
12.256046387426567
75.2452887769894
138.9181353475242
158.05905241474022
98.48783093003739
-19.385061417563133
-130.91020065613793
-177.49294270237277
-149.07454032196537
-84.13214312962539
-24.65857938506142
8.74036774242771
18.40848401617456
18.701457236591136
17.13893339436942
17.236591134508277
18.701457236591136
19.385061417563133
20.84992751964599
22.510109102006563
24.65857938506142
26.123445487144274
26.318760967421987
28.66254673075456
31.885252155336843
36.0845349813077
39.893186846723125
40.28381780727855
38.33066300450141
35.4009308003357
34.61966887922484
35.303273060196844
34.52201113908598
34.32669565880827
35.4009308003357
38.91660944533455
41.16273746852827
37.64705882352941
30.127412832837415
19.678034637979707
9.71694514381628
1.8066681925688564
-5.322346837567712
-11.963073167009995
-19.87335011825742
-26.709391927977418
-31.396963454642556
-36.0845349813077
-40.57679102769512
-45.16670481422141
-47.31517509727627
-46.04562447547112
-42.43228809033341
-35.10795757991913
-26.22110322728313
-15.771725032425422
-5.224689097428855
0.9277485313191425
2.5879301136797133
-0.04882887006942855
-4.052796215762569
-8.05676356145571
-12.45136186770428
-14.404516670481422
-13.525597009231708
-7.177843900205997
3.1738765545128556
11.767757686732281
15.967040512703136
15.967040512703136
17.13893339436942
21.92416266117342
28.760204470893417
37.74471656366827
46.04562447547112
52.39337758449683
52.97932402532997
42.72526131074998
22.021820401312276
-7.666132600900283
-38.818951705195694
-63.819333180743115
-79.63988708323797
-85.79232471198596
-86.47592889295797
-81.49538414587624
-70.65537499046312
-57.471580071717405
-44.580758373388264
-36.475165941863125
-29.053177691309987
-9.619287403677424
37.15877012283513
116.26153963530938
195.95025558861676
215.38414587624933
130.42191195544365
-29.9320973525597
-170.75455863279163
-218.02090485999847
-172.61005569542993
-91.65178912031739
-29.150835431448844
-0.34180209048599985
3.5645075150682843
0.9277485313191425
2.783245593957427
9.71694514381628
18.994430457007706
25.342183566033416
28.66254673075456
29.736781872281988
28.27191577019913
26.123445487144274
21.826504921034562
18.11551079575799
18.21316853589685
22.705424582284277
31.9829098954757
40.96742198825055
47.51049057755398
50.14724956130312
48.877698939497975
47.998779278248264
49.17067215991455
53.85824368657969
58.8387884336614
59.42473487449455
55.51842526894026
45.55733577477684
32.37354085603113
19.092088197146563
6.298924238956283
-4.052796215762569
-13.13496604867628
-19.775692378118563
-26.22110322728313
-34.91264209964141
-42.236972610055695
-47.0222018768597
-48.97535667963683
-50.73319600213626
-54.7371633478294
-57.56923781185626
-56.59266041046769
-47.998779278248264
-33.05714503700313
-18.60379949645228
-9.033340962844282
-6.982528419928283
-8.154421301594567
-7.568474860761425
-4.150453955901427
2.783245593957427
10.79118028534371
20.55695429922942
31.592278934920273
39.79552910658427
42.13931486991684
35.010299839780274
21.92416266117342
10.693522545204852
8.154421301594567
17.13893339436942
31.103990234225986
44.48310063324941
53.760585946440834
56.1043717097734
50.73319600213626
35.010299839780274
11.670099946593423
-14.50217441062028
-40.96742198825055
-63.91699092088197
-81.10475318532082
-87.06187533379111
-80.9094377050431
-68.21393148699168
-52.588693064774546
-40.186160067139696
-34.131380178530556
-34.52201113908598
-34.424353398947126
-17.041275654230564
29.2484931715877
105.0308995193408
181.20393682764936
203.07927061875333
133.25398641947052
-7.666132600900283
-140.09002822919052
-192.82520790417334
-160.50049591821164
-87.25719081406882
-22.60776684214542
12.060730907148852
18.701457236591136
9.521629663538567
0.7324330510414282
-0.43945983062485694
4.931715877012284
11.377126726176853
13.81857022964828
14.013885709925994
13.232623788815136
15.283436331731137
20.068665598535134
22.998397802700847
24.365606164644845
25.92813000686656
30.615701533531702
35.10795757991913
33.44777599755856
27.100022888532845
22.60776684214542
28.66254673075456
43.311207751583126
52.97932402532997
50.24490730144198
38.91660944533455
34.22903791866941
40.38147554741741
43.99481193255512
34.717326619363696
14.306858930342566
-5.420004577706569
-18.60379949645228
-26.416418707560844
-31.396963454642556
-40.479133287556266
-54.44419012741283
-69.48348210879682
-82.37430380712597
-88.81971465629053
-87.06187533379111
-74.85465781643397
-56.88563363088426
-42.33463035019455
-32.08056763561456
-24.95155260547799
-17.236591134508277
-8.838025482566568
-4.052796215762569
-2.197299153124285
-0.7324330510414282
3.076218814373999
6.591897459372854
6.201266498817426
4.052796215762569
-0.537117570763714
-6.787212939650568
-11.377126726176853
-12.45136186770428
-7.861448081177996
3.1738765545128556
23.58434424353399
48.38941023880369
65.96780346379796
72.80384527351796
70.65537499046312
65.6748302433814
58.350499732967116
41.943999389639124
14.50217441062028
-20.068665598535134
-50.44022278171969
-68.4092469672694
-74.07339589532312
-69.77645532921339
-63.526359960326545
-58.350499732967116
-53.07698176546884
-47.412832837415124
-40.479133287556266
-34.52201113908598
-25.049210345616846
-1.3183794918745708
47.11985961699855
118.11703669794767
178.37186236362248
183.45006485084306
110.49973296711681
-16.84596017395285
-134.4258793011368
-186.7704280155642
-164.21149004348823
-102.68711375600824
-45.947966735332265
-12.646677347981994
-2.68558785381857
-4.345769436179141
-7.177843900205997
-6.982528419928283
-2.5879301136797133
1.2207217517357138
4.931715877012284
10.10757610437171
16.16235599298085
23.58434424353399
29.834439612420844
33.838406958113985
35.10795757991913
34.52201113908598
35.596246280613414
37.15877012283513
38.72129396505684
39.11192492561227
36.67048142214084
35.69390402075227
39.11192492561227
47.60814831769284
55.713740749217976
56.690318150606544
51.61211566338598
41.943999389639124
31.2993057145037
20.55695429922942
9.130998702983138
-1.3183794918745708
-13.525597009231708
-26.807049668116274
-38.525978484779124
-46.533913176165406
-49.85427634088655
-51.31914244296941
-49.658960860608836
-44.48310063324941
-38.91660944533455
-34.22903791866941
-31.494621194781413
-28.076600289921416
-21.92416266117342
-13.81857022964828
-4.345769436179141
2.68558785381857
7.373159380483711
10.400549324788281
11.377126726176853
12.549019607843137
12.74433508812085
10.986495765621424
6.201266498817426
-0.8300907911802854
-4.931715877012284
-3.7598229953459983
4.345769436179141
17.52956435492485
30.71335927367056
41.651026169222554
48.38941023880369
52.6863508049134
56.59266041046769
58.74113069352254
56.006713969634546
40.86976424811169
13.232623788815136
-20.45929655909056
-50.53788052185855
-66.65140764476998
-70.55771725032426
-68.60456244754711
-66.55374990463112
-66.74906538490883
-66.94438086518655
-65.6748302433814
-58.74113069352254
-46.826886396581976
-34.22903791866941
-14.892805371175708
23.096055542839704
88.03845273517967
159.32860303654536
186.0868238345922
127.88281071183337
-2.68558785381857
-134.03524834058138
-195.55962462806133
-172.41474021515222
-101.31990539406424
-33.74074921797513
4.541084916456855
15.185778591592278
11.08415350576028
7.177843900205997
8.05676356145571
14.697489890897993
24.267948424505988
30.908674753948272
33.74074921797513
32.86182955672541
31.201647974364842
30.22507057297627
28.95551995117113
28.95551995117113
28.857862211032273
31.00633249408713
36.37750820172427
41.943999389639124
46.63157091630426
48.38941023880369
48.877698939497975
48.19409475852598
44.28778515297169
39.014267185473415
33.64309147783627
30.22507057297627
28.076600289921416
24.267948424505988
19.48271915770199
11.865415426871138
2.392614633401999
-7.080186160067139
-16.55298695353628
-24.65857938506142
-31.885252155336843
-36.27985046158541
-37.84237430380713
-38.62363622491798
-38.1353475242237
-38.72129396505684
-39.79552910658427
-39.307240405889985
-37.256427862973986
-33.838406958113985
-30.420386053253985
-23.779659723811704
-13.037308308537423
-2.783245593957427
3.8574807354848555
4.638742656595713
2.490272373540856
1.6113527122911422
2.392614633401999
4.736400396734569
5.420004577706569
6.494239719233997
9.81460288395514
13.623254749370565
19.48271915770199
28.27191577019913
40.772106507972836
53.17463950560769
60.49897001602197
63.42870222018769
62.15915159838254
57.56923781185626
46.63157091630426
26.22110322728313
-0.34180209048599985
-29.346150911726557
-54.346532387273975
-71.24132143129626
-80.51880674448768
-82.0813305867094
-78.07736324101626
-66.16311894407569
-48.38941023880369
-34.61966887922484
-30.127412832837415
-33.05714503700313
-30.029755092698558
-3.9551384756237127
55.22545204852369
138.0392156862745
197.5127794308385
178.46952010376134
66.74906538490883
-80.9094377050431
-174.75852597848478
-173.48897535667965
-107.47234302281224
-36.86579690241855
2.0019836728465705
12.256046387426567
8.44739452201114
4.443427176317998
6.103608758678568
9.326314183260854
10.302891584649425
6.787212939650568
1.513694972152285
-1.7090104524299992
0.14648661020828566
9.71694514381628
20.361638818951704
28.174258030060273
32.764171816586554
33.252460517280845
32.6665140764477
32.86182955672541
35.889219501029984
40.08850232700084
42.236972610055695
43.79949645227741
44.28778515297169
45.55733577477684
48.291752498664835
48.78004119935912
43.50652323186084
28.564888990615703
8.44739452201114
-8.935683222705425
-19.678034637979707
-23.096055542839704
-24.560921644922562
-26.318760967421987
-30.518043793392845
-38.91660944533455
-47.21751735713741
-53.467612726024264
-56.49500267032883
-58.1551842526894
-59.91302357518883
-58.25284199282826
-53.07698176546884
-44.09246967269398
-32.86182955672541
-23.291371023117417
-13.81857022964828
-4.638742656595713
3.1738765545128556
7.080186160067139
5.615320057984283
2.392614633401999
-2.2949568932631417
-6.884870679789426
-9.81460288395514
-11.377126726176853
-8.838025482566568
-2.8809033340962844
5.420004577706569
14.795147631036851
23.19371328297856
32.95948729686427
42.62760357061112
51.61211566338598
56.7879758907454
54.15121690699626
44.48310063324941
27.49065384908827
4.736400396734569
-21.24055848020142
-48.48706797894255
-71.24132143129626
-85.6946669718471
-87.84313725490196
-79.54222934309911
-68.11627374685283
-56.49500267032883
-48.78004119935912
-46.92454413672083
-48.68238345922026
-44.873731593804834
-17.82253757534142
42.822919050888835
128.2734416723888
196.53620202944992
190.38376440070192
87.64782177462425
-69.77645532921339
-192.04394598306249
-214.89585717555505
-151.80895704585336
-62.745098039215684
1.0254062714579995
28.857862211032273
33.44777599755856
28.564888990615703
25.146868085755703
25.439841306172273
28.467231250476843
31.787594415197987
33.44777599755856
34.32669565880827
32.764171816586554
32.37354085603113
36.182192721446555
41.16273746852827
44.38544289311055
43.11589227130541
39.5025558861677
38.23300526436255
42.92057679102769
55.127794308384836
67.23735408560312
71.63195239185168
66.65140764476998
56.7879758907454
48.877698939497975
39.79552910658427
27.1976806286717
15.185778591592278
7.275501640344854
2.490272373540856
-4.931715877012284
-14.599832150759136
-23.48668650339513
-31.68993667505913
-37.94003204394598
-43.89715419241627
-48.584725719081405
-50.53788052185855
-51.02616922255284
-50.24490730144198
-49.75661860074769
-46.33859769588769
-38.525978484779124
-30.029755092698558
-21.43587396047913
-15.088120851453422
-12.646677347981994
-14.990463111314565
-20.263981078812847
-21.826504921034562
-19.87335011825742
-16.943617914091707
-16.16235599298085
-18.310826276035705
-16.748302433813993
-9.619287403677424
-0.43945983062485694
4.541084916456855
2.783245593957427
0.8300907911802854
4.834058136873426
19.48271915770199
41.84634164950027
60.30365453574426
68.01861600671397
63.72167544060426
53.27229724574655
40.57679102769512
22.412451361867703
-1.9043259327077133
-30.420386053253985
-52.78400854505226
-61.37788967727169
-60.59662775616083
-57.471580071717405
-57.86221103227283
-57.764553292133975
-51.80743114366369
-42.822919050888835
-36.57282368200198
-34.32669565880827
-22.119478141451133
18.310826276035705
91.8471046005951
174.9538414587625
210.98954757000075
153.66445410849164
14.50217441062028
-135.01182574196994
-214.40756847486077
-198.48935683222706
-122.21866178377967
-43.21355001144427
1.1230640115968566
12.060730907148852
6.201266498817426
-0.7324330510414282
-4.443427176317998
-7.275501640344854
-8.252079041733426
-7.373159380483711
-2.0019836728465705
6.982528419928283
14.11154345006485
18.40848401617456
22.21713588158999
28.95551995117113
35.4009308003357
34.52201113908598
28.467231250476843
23.389028763256274
25.830472266727703
33.3501182574197
37.35408560311284
38.03768978408484
40.86976424811169
50.53788052185855
60.79194323643854
59.42473487449455
47.0222018768597
30.518043793392845
16.748302433813993
6.6895551995117115
-1.416037232013428
-7.763790341039139
-16.650644693675137
-27.881284809643702
-36.768139162279695
-41.943999389639124
-43.311207751583126
-43.40886549172198
-43.018234531166556
-43.21355001144427
-43.604180971999696
-38.33066300450141
-28.564888990615703
-17.334248874647134
-6.494239719233997
1.3183794918745708
6.005951018539712
6.298924238956283
5.615320057984283
6.298924238956283
6.39658197909514
6.39658197909514
4.052796215762569
0.04882887006942855
-3.5645075150682843
-6.201266498817426
-3.662165255207141
3.7598229953459983
13.720912489509422
21.338216220340275
24.4632639047837
29.443808651865414
37.74471656366827
48.38941023880369
58.25284199282826
62.2568093385214
59.03410391393912
47.31517509727627
28.95551995117113
4.931715877012284
-23.389028763256274
-48.97535667963683
-68.4092469672694
-79.54222934309911
-82.66727702754254
-80.61646448462653
-73.78042267490653
-64.60059510185397
-53.66292820630198
-43.70183871213855
-36.96345464255741
-23.87731746395056
8.935683222705425
71.8272678721294
150.1487754634928
198.1963836118105
172.7077134355688
70.65537499046312
-59.13176165407798
-153.85976958876935
-180.9109636072328
-147.70733196002135
-90.38223849851225
-40.186160067139696
-9.81460288395514
1.0254062714579995
1.7090104524299992
-0.34180209048599985
0.8300907911802854
6.6895551995117115
12.646677347981994
18.017853055619135
21.92416266117342
25.537499046311133
28.467231250476843
28.467231250476843
27.881284809643702
28.076600289921416
30.322728313115128
32.86182955672541
31.103990234225986
27.100022888532845
23.096055542839704
22.21713588158999
25.732814526588847
30.22507057297627
34.131380178530556
36.768139162279695
40.67444876783398
46.43625543602655
50.24490730144198
50.928511482413974
45.069047074082555
33.05714503700313
18.701457236591136
4.052796215762569
-8.05676356145571
-17.52956435492485
-22.314793621728846
-23.87731746395056
-26.807049668116274
-31.68993667505913
-40.186160067139696
-50.34256504158083
-57.95986877241169
-62.35446707866026
-62.45212481879911
-59.62005035477226
-52.97932402532997
-43.89715419241627
-35.889219501029984
-28.369573510337986
-23.87731746395056
-22.021820401312276
-19.87335011825742
-16.943617914091707
-12.353704127565424
-6.884870679789426
1.6113527122911422
12.74433508812085
22.60776684214542
33.15480277714199
45.26436255436027
59.62005035477226
74.85465781643397
87.45250629434653
98.6831464103151
107.96063172350652
113.03883421072709
108.15594720378424
89.30800335698481
60.8896009765774
25.342183566033416
-11.377126726176853
-42.72526131074998
-66.65140764476998
-82.66727702754254
-93.80025940337224
-100.14801251239795
-102.1011673151751
-101.41756313420309
-97.51125352864881
-94.28854810406654
-91.8471046005951
-81.00709544518196
-48.68238345922026
14.990463111314565
91.94476234073396
132.27740901808195
89.1126878767071
-28.174258030060273
-142.6291294728008
-182.4734874494545
-137.64858472571908
-53.85824368657969
15.869382772564279
52.002746623941405
61.08491645685512
60.108339055466544
59.91302357518883
59.522392614633404
57.08094911116198
50.44022278171969
40.38147554741741
27.392996108949415
10.986495765621424
-3.7598229953459983
-15.088120851453422
-22.119478141451133
-26.514076447699704
-31.396963454642556
-33.838406958113985
-32.95948729686427
-26.807049668116274
-15.088120851453422
-1.3183794918745708
12.549019607843137
25.439841306172273
40.67444876783398
59.42473487449455
77.00312809948882
90.77286945906768
96.6323338673991
94.87449454489968
90.67521171892882
88.13611047531853
88.52674143587396
87.06187533379111
81.49538414587624
71.53429465171283
58.1551842526894
45.85030899519341
33.838406958113985
21.045242999923705
8.05676356145571
-3.466849774929427
-9.033340962844282
-10.009918364232853
-10.009918364232853
-12.256046387426567
-17.13893339436942
-17.43190661478599
-10.888838025482567
-1.0254062714579995
6.6895551995117115
10.205233844510566
12.549019607843137
13.720912489509422
15.185778591592278
17.82253757534142
18.701457236591136
19.092088197146563
19.775692378118563
21.43587396047913
24.65857938506142
32.178225375753414
48.38941023880369
67.82330052643626
76.12420843823911
69.58113984893568
68.11627374685283
74.26871137560083
57.95986877241169
23.87731746395056
3.8574807354848555
-5.908293278400855
-27.588311589227132
-62.64744029907683
-91.8471046005951
-101.90585183489738
-101.12458991378652
-96.92530708781567
-87.7454795147631
-75.44060425726711
-67.82330052643626
-63.72167544060426
-54.053559166857404
-35.20561532005799
6.201266498817426
81.00709544518196
160.89112687876707
186.37979705500877
112.06225680933852
-39.99084458686198
-183.8406958113985
-236.96650644693676
-189.40718699931335
-103.17540245670253
-35.010299839780274
0.537117570763714
9.81460288395514
7.275501640344854
5.908293278400855
10.205233844510566
14.306858930342566
13.623254749370565
11.47478446631571
8.349736781872283
9.521629663538567
18.506141756313422
25.732814526588847
24.65857938506142
17.627222095063708
11.670099946593423
6.39658197909514
-2.2949568932631417
-11.377126726176853
-16.357671473258563
-10.986495765621424
5.615320057984283
24.267948424505988
38.42832074464027
45.654993514915695
47.90112153810941
46.33859769588769
39.893186846723125
30.127412832837415
16.650644693675137
3.36919203479057
-5.224689097428855
-10.693522545204852
-15.967040512703136
-27.002365148393988
-45.069047074082555
-66.06546120393683
-85.40169375143053
-97.60891126878766
-104.73792629892424
-107.66765850308995
-106.59342336156253
-104.05432211795224
-98.29251544975968
-90.67521171892882
-82.7649347676814
-74.75700007629511
-69.58113984893568
-68.70222018768597
-74.46402685587854
-84.42511635004196
-95.46044098573282
-100.44098573281453
-93.31197070267795
-91.65178912031739
-88.81971465629053
-60.79194323643854
-38.818951705195694
-40.28381780727855
-29.9320973525597
-4.931715877012284
5.615320057984283
5.0293736171511405
15.967040512703136
39.11192492561227
59.22941939421683
65.6748302433814
63.6240177004654
60.2059967956054
47.11985961699855
31.103990234225986
25.830472266727703
21.728847180895706
12.549019607843137
6.787212939650568
2.9785610742351416
-12.84199282825971
-40.57679102769512
-62.64744029907683
-69.28816662851911
-63.42870222018769
-55.61608300907912
-44.48310063324941
-11.377126726176853
47.705806057831694
111.28099488822767
132.76569771877624
70.06942854962998
-42.04165712977798
-108.74189364461738
-109.62081330586709
-103.66369115739681
-87.15953307392996
-39.99084458686198
-7.959105821316854
-0.9277485313191425
11.377126726176853
31.68993667505913
51.123826962691695
58.8387884336614
66.3584344243534
94.09323262378882
120.26550698100252
127.98046845197223
136.28137636377508
148.0979629205768
147.1213855191882
143.21507591363394
147.21904325932707
142.04318303196766
131.10551613641564
133.5469596398871
140.09002822919052
141.2619211108568
143.80102235446708
146.53543907835507
140.77363241016252
119.19127183947509
86.47592889295797
74.75700007629511
80.51880674448768
58.350499732967116
33.64309147783627
40.28381780727855
32.27588311589227
6.787212939650568
10.693522545204852
18.701457236591136
1.513694972152285
-1.8066681925688564
11.08415350576028
3.1738765545128556
-6.39658197909514
4.541084916456855
5.517662317845426
-6.005951018539712
-2.197299153124285
1.3183794918745708
-31.103990234225986
-107.76531624322881
-185.20790417334248
-216.65369649805447
-230.13046463721676
-253.17769130998704
-251.51750972762645
-224.27100022888533
-211.7708094911116
-201.22377355611505
-167.82482642862593
-142.33615625238423
-130.3242542153048
-101.41756313420309
-66.55374990463112
-43.21355001144427
-16.16235599298085
13.427939269092851
27.295338368810558
41.84634164950027
73.19447623407339
93.2143129625391
92.5307087815671
89.99160753795681
78.76096742198825
52.10040436408026
28.564888990615703
14.306858930342566
-2.8809033340962844
-16.748302433813993
-15.967040512703136
-13.81857022964828
-12.84199282825971
-2.8809033340962844
4.443427176317998
-0.34180209048599985
-6.39658197909514
-3.076218814373999
13.427939269092851
57.08094911116198
129.93362325474936
189.11421377889678
183.64538033112078
99.17143511100939
-34.131380178530556
-150.3440909437705
-196.24322880903335
-171.7311360341802
-116.06622415503166
-63.819333180743115
-28.076600289921416
-14.795147631036851
-14.306858930342566
-11.963073167009995
-7.666132600900283
-4.150453955901427
-1.0254062714579995
1.3183794918745708
2.8809033340962844
7.666132600900283
19.092088197146563
28.857862211032273
33.3501182574197
35.4009308003357
34.91264209964141
35.889219501029984
40.57679102769512
46.33859769588769
48.291752498664835
45.45967803463798
42.92057679102769
41.45571068894484
44.97138933394369
56.20202944991226
67.23735408560312
70.75303273060197
62.15915159838254
44.28778515297169
24.95155260547799
9.912260624093996
0.14648661020828566
-9.228656443121995
-16.45532921339742
-18.40848401617456
-20.55695429922942
-25.732814526588847
-33.545433737697415
-40.38147554741741
-43.89715419241627
-42.529945830472265
-33.64309147783627
-23.19371328297856
-16.260013733119706
-12.158388647287708
-9.033340962844282
-4.150453955901427
-0.537117570763714
-1.513694972152285
-6.884870679789426
-14.404516670481422
-18.11551079575799
-17.724879835202564
-13.623254749370565
-7.763790341039139
-4.150453955901427
-0.8300907911802854
2.8809033340962844
6.884870679789426
11.181811245899137
16.84596017395285
27.392996108949415
39.40489814602884
49.56130312046998
56.690318150606544
58.44815747310597
56.1043717097734
47.80346379797055
32.6665140764477
11.572442206454566
-14.50217441062028
-39.5025558861677
-58.057526512550545
-67.23735408560312
-68.60456244754711
-67.13969634546426
-60.694285496299685
-50.24490730144198
-39.11192492561227
-30.127412832837415
-24.4632639047837
-17.43190661478599
-3.36919203479057
29.053177691309987
86.67124437323568
148.87922484168766
172.2194247348745
116.55451285572595
-7.373159380483711
-133.93759060044252
-196.8291752498665
-177.39528496223392
-110.10910200656139
-39.69787136644541
8.44739452201114
29.150835431448844
33.93606469825284
33.64309147783627
33.838406958113985
34.131380178530556
31.885252155336843
29.736781872281988
27.68596932936599
26.514076447699704
27.100022888532845
27.295338368810558
29.443808651865414
33.93606469825284
38.818951705195694
41.065079728389414
37.94003204394598
32.471198596169984
27.392996108949415
27.68596932936599
35.20561532005799
44.19012741283284
50.04959182116426
49.85427634088655
45.362020294499125
39.69787136644541
32.08056763561456
24.560921644922562
19.18974593728542
18.21316853589685
18.40848401617456
11.572442206454566
-2.0996414129854277
-19.287403677424276
-34.22903791866941
-43.89715419241627
-50.73319600213626
-54.54184786755169
-55.03013656824598
-47.705806057831694
-33.05714503700313
-20.55695429922942
-14.013885709925994
-11.963073167009995
-10.595864805065995
-7.373159380483711
-2.68558785381857
3.36919203479057
5.71297779812314
4.638742656595713
5.908293278400855
9.71694514381628
14.013885709925994
13.81857022964828
8.252079041733426
0.24414435034714274
-7.373159380483711
-10.693522545204852
-10.205233844510566
-3.9551384756237127
10.595864805065995
28.27191577019913
43.99481193255512
53.56527046616312
57.95986877241169
57.37392233157855
46.72922865644312
25.63515678644999
-4.345769436179141
-36.27985046158541
-62.745098039215684
-81.20241092545967
-89.99160753795681
-92.72602426184481
-91.26115815976196
-84.22980086976425
-72.90150301365682
-59.32707713435569
-50.14724956130312
-46.533913176165406
-40.479133287556266
-18.994430457007706
31.787594415197987
106.30045014114596
169.4850080109865
168.8014038300145
74.17105363546197
-74.85465781643397
-193.02052338445105
-218.99748226138703
-162.74662394140535
-80.61646448462653
-17.920195315480278
8.935683222705425
9.619287403677424
2.0019836728465705
-2.197299153124285
2.197299153124285
10.888838025482567
17.724879835202564
20.654612039368278
20.263981078812847
23.48668650339513
30.908674753948272
37.84237430380713
40.772106507972836
39.40489814602884
39.20958266575113
41.16273746852827
42.72526131074998
41.74868390936141
37.74471656366827
36.86579690241855
40.38147554741741
45.654993514915695
50.44022278171969
52.002746623941405
51.123826962691695
47.80346379797055
43.11589227130541
38.1353475242237
31.494621194781413
23.682001983672848
12.158388647287708
-1.9043259327077133
-13.623254749370565
-21.728847180895706
-27.100022888532845
-33.3501182574197
-38.525978484779124
-38.62363622491798
-35.303273060196844
-30.420386053253985
-29.053177691309987
-31.201647974364842
-31.9829098954757
-30.22507057297627
-26.025787747005417
-22.60776684214542
-18.60379949645228
-11.08415350576028
-2.5879301136797133
5.908293278400855
10.986495765621424
11.865415426871138
11.181811245899137
10.10757610437171
10.888838025482567
10.595864805065995
8.349736781872283
6.39658197909514
6.005951018539712
11.181811245899137
21.92416266117342
36.0845349813077
50.635538261997404
59.71770809491112
61.96383611810483
57.764553292133975
49.951934081025406
38.72129396505684
20.16632333867399
-3.466849774929427
-29.834439612420844
-53.95590142671855
-71.33897917143511
-81.88601510643167
-84.52277409018082
-81.78835736629281
-74.75700007629511
-64.9912260624094
-57.37392233157855
-51.02616922255284
-42.04165712977798
-19.48271915770199
29.346150911726557
104.05432211795224
177.49294270237277
193.99710078583962
114.79667353322652
-33.74074921797513
-168.8014038300145
-215.57946135652705
-172.41474021515222
-92.72602426184481
-28.564888990615703
0.04882887006942855
4.736400396734569
0.24414435034714274
-2.490272373540856
0.8300907911802854
7.177843900205997
17.13893339436942
30.518043793392845
44.67841611352712
55.61608300907912
59.62005035477226
59.32707713435569
55.81139848935683
51.80743114366369
49.75661860074769
46.63157091630426
41.84634164950027
36.0845349813077
32.95948729686427
33.05714503700313
30.908674753948272
26.416418707560844
21.24055848020142
18.799114976729992
19.678034637979707
18.701457236591136
13.330281528953995
2.392614633401999
-10.205233844510566
-19.971007858396277
-28.467231250476843
-35.889219501029984
-43.50652323186084
-51.709773403524835
-61.182574196993976
-70.65537499046312
-73.48744945448996
-69.87411306935225
-64.20996414129854
-57.86221103227283
-50.73319600213626
-40.08850232700084
-28.467231250476843
-17.52956435492485
-6.494239719233997
4.443427176317998
18.994430457007706
35.4009308003357
50.34256504158083
61.86617837796597
66.3584344243534
61.86617837796597
46.43625543602655
27.881284809643702
17.724879835202564
15.771725032425422
15.185778591592278
9.42397192339971
2.9785610742351416
3.9551384756237127
12.939650568398566
26.514076447699704
38.62363622491798
47.80346379797055
54.639505607690545
56.39734493018997
51.61211566338598
35.20561532005799
5.71297779812314
-29.9320973525597
-62.45212481879911
-84.03448538948653
-96.33936064698253
-99.3667505912871
-90.67521171892882
-74.26871137560083
-55.51842526894026
-43.018234531166556
-40.57679102769512
-44.67841611352712
-47.0222018768597
-31.2993057145037
15.088120851453422
92.5307087815671
171.0475318532082
193.31349660486762
125.44136720836194
-5.322346837567712
-121.24208438239108
-161.2817578393225
-129.8359655146105
-70.16708628976883
-22.90074006256199
-0.6347753109025711
3.36919203479057
-3.2715342946517127
-10.595864805065995
-12.158388647287708
-9.130998702983138
-7.959105821316854
-11.963073167009995
-14.697489890897993
-16.84596017395285
-22.60776684214542
-28.369573510337986
-25.732814526588847
-8.252079041733426
14.306858930342566
27.97894254978256
28.467231250476843
21.338216220340275
18.017853055619135
21.045242999923705
29.736781872281988
45.16670481422141
64.69825284199283
81.98367284657053
89.21034561684596
88.4290836957351
85.20637827115281
76.8078126192111
63.91699092088197
51.31914244296941
42.822919050888835
35.69390402075227
24.365606164644845
10.400549324788281
-5.0293736171511405
-19.775692378118563
-33.93606469825284
-51.80743114366369
-69.28816662851911
-78.37033646143283
-77.00312809948882
-72.80384527351796
-73.87808041504539
-75.83123521782254
-73.48744945448996
-65.57717250324254
-55.81139848935683
-50.928511482413974
-49.951934081025406
-49.56130312046998
-47.51049057755398
-43.11589227130541
-36.768139162279695
-28.95551995117113
-27.002365148393988
-31.103990234225986
-32.764171816586554
-30.322728313115128
-23.48668650339513
-12.060730907148852
5.127031357289998
25.63515678644999
45.16670481422141
64.69825284199283
80.12817578393225
86.28061341268025
81.5930418860151
66.3584344243534
47.11985961699855
28.66254673075456
14.599832150759136
6.39658197909514
1.513694972152285
-0.7324330510414282
-5.420004577706569
-13.623254749370565
-21.43587396047913
-26.709391927977418
-26.61173418783856
-23.58434424353399
-17.82253757534142
-1.7090104524299992
35.4009308003357
97.02296482795452
160.1098649576562
184.0360112916762
135.89074540321965
17.236591134508277
-117.3357747768368
-199.17296101319906
-197.41512169069964
-137.94155794613565
-70.75303273060197
-25.24452582589456
-6.494239719233997
-2.9785610742351416
-0.8300907911802854
3.8574807354848555
10.498207064927138
14.599832150759136
16.55298695353628
19.678034637979707
23.48668650339513
28.857862211032273
32.56885633630884
32.764171816586554
30.908674753948272
27.783627069504846
26.709391927977418
26.90470740825513
27.97894254978256
29.346150911726557
28.760204470893417
30.127412832837415
35.49858854047456
43.79949645227741
52.19806210421912
55.90905622949569
54.44419012741283
46.826886396581976
35.4009308003357
24.365606164644845
14.50217441062028
5.127031357289998
-7.959105821316854
-24.756237125200276
-39.600213626306555
-50.24490730144198
-55.03013656824598
-56.1043717097734
-54.15121690699626
-49.46364538033112
-44.580758373388264
-37.549401083390556
-28.760204470893417
-19.87335011825742
-12.45136186770428
-7.373159380483711
-1.3183794918745708
5.127031357289998
10.400549324788281
13.427939269092851
13.232623788815136
14.404516670481422
17.52956435492485
20.947585259784848
23.87731746395056
25.146868085755703
26.123445487144274
24.4632639047837
20.55695429922942
18.017853055619135
19.775692378118563
30.811017013809415
49.951934081025406
70.75303273060197
86.57358663309682
92.14007782101167
89.21034561684596
78.76096742198825
60.694285496299685
34.91264209964141
1.6113527122911422
-34.424353398947126
-68.70222018768597
-93.70260166323338
-105.0308995193408
-106.78873884184024
-102.49179827573053
-94.67917906462196
-81.88601510643167
-64.79591058213168
-50.73319600213626
-40.28381780727855
-26.807049668116274
2.0019836728465705
55.03013656824598
121.63271534294651
168.21545738918135
148.19562066071566
46.43625543602655
-92.43305104142824
-191.84863050278477
-202.4933241779202
-141.55489433127337
-61.5732051575494
-2.8809033340962844
22.803082322423133
27.881284809643702
24.65857938506142
22.803082322423133
26.318760967421987
31.68993667505913
38.1353475242237
43.99481193255512
47.21751735713741
46.533913176165406
42.236972610055695
40.67444876783398
42.33463035019455
44.48310063324941
44.77607385366598
40.772106507972836
34.91264209964141
28.467231250476843
23.682001983672848
22.21713588158999
21.92416266117342
24.072632944228275
27.68596932936599
31.00633249408713
32.56885633630884
29.346150911726557
22.705424582284277
12.74433508812085
2.68558785381857
-3.5645075150682843
-7.763790341039139
-11.279468986037996
-17.52956435492485
-26.90470740825513
-37.15877012283513
-46.240939955748836
-48.97535667963683
-46.43625543602655
-43.89715419241627
-44.38544289311055
-48.38941023880369
-50.14724956130312
-47.90112153810941
-41.26039520866713
-31.00633249408713
-21.533531700617992
-13.037308308537423
-6.103608758678568
-1.513694972152285
0.6347753109025711
0.04882887006942855
0.04882887006942855
1.3183794918745708
3.662165255207141
6.6895551995117115
7.763790341039139
7.666132600900283
6.494239719233997
6.298924238956283
10.400549324788281
18.506141756313422
30.71335927367056
42.43228809033341
51.123826962691695
56.690318150606544
57.08094911116198
51.61211566338598
37.256427862973986
13.525597009231708
-17.041275654230564
-52.49103532463569
-84.52277409018082
-105.81216144045166
-112.06225680933852
-105.22621499961852
-93.60494392309452
-80.9094377050431
-70.4600595101854
-62.54978255893797
-55.51842526894026
-47.80346379797055
-29.2484931715877
12.646677347981994
82.66727702754254
158.64499885557336
186.67277027542534
122.51163500419624
-20.752269779507134
-162.25833524071106
-219.48577096208132
-181.30159456778821
-97.41359578850995
-24.65857938506142
13.916227969787137
26.123445487144274
26.025787747005417
25.537499046311133
26.709391927977418
28.174258030060273
29.736781872281988
31.00633249408713
34.0337224383917
35.889219501029984
35.596246280613414
35.49858854047456
34.81498435950255
35.4009308003357
36.86579690241855
38.33066300450141
38.72129396505684
36.0845349813077
33.838406958113985
33.545433737697415
36.96345464255741
43.70183871213855
49.658960860608836
54.44419012741283
56.59266041046769
56.006713969634546
52.78400854505226
45.16670481422141
35.20561532005799
24.365606164644845
14.013885709925994
4.150453955901427
-7.373159380483711
-18.21316853589685
-28.076600289921416
-36.475165941863125
-41.84634164950027
-44.97138933394369
-45.75265125505455
-45.947966735332265
-43.79949645227741
-37.74471656366827
-31.2993057145037
-24.4632639047837
-17.236591134508277
-10.498207064927138
-5.810635538261997
-5.0293736171511405
-4.248111696040284
-2.0019836728465705
1.9043259327077133
6.787212939650568
7.959105821316854
5.908293278400855
1.9043259327077133
-0.04882887006942855
2.68558785381857
8.154421301594567
14.11154345006485
17.43190661478599
21.045242999923705
30.22507057297627
43.11589227130541
56.690318150606544
66.06546120393683
68.4092469672694
61.86617837796597
44.28778515297169
20.361638818951704
-6.201266498817426
-32.471198596169984
-54.932478828107115
-72.02258335240711
-79.54222934309911
-77.68673228046082
-69.67879758907453
-60.59662775616083
-55.32310978866255
-52.49103532463569
-51.61211566338598
-48.09643701838712
-32.56885633630884
4.248111696040284
71.1436636911574
155.61760891126877
214.70054169527734
192.9228656443122
71.72961013199054
-90.08926527809568
-199.17296101319906
-204.73945220111392
-133.15632867933166
-49.26832990005341
6.201266498817426
27.97894254978256
29.443808651865414
22.90074006256199
14.209201190203707
8.154421301594567
4.736400396734569
5.615320057984283
12.353704127565424
19.87335011825742
25.439841306172273
27.295338368810558
26.318760967421987
24.267948424505988
23.291371023117417
26.416418707560844
30.322728313115128
33.545433737697415
38.1353475242237
42.92057679102769
48.48706797894255
52.39337758449683
52.588693064774546
47.90112153810941
38.91660944533455
32.6665140764477
31.2993057145037
30.420386053253985
24.65857938506142
12.939650568398566
2.197299153124285
-4.150453955901427
-8.154421301594567
-13.232623788815136
-21.533531700617992
-28.857862211032273
-34.424353398947126
-39.99084458686198
-46.92454413672083
-55.03013656824598
-57.66689555199512
-53.17463950560769
-46.04562447547112
-42.33463035019455
-42.92057679102769
-41.16273746852827
-36.27985046158541
-29.63912413214313
-20.947585259784848
-12.74433508812085
-3.9551384756237127
4.736400396734569
12.353704127565424
15.771725032425422
12.353704127565424
5.615320057984283
-1.6113527122911422
-5.517662317845426
-2.490272373540856
4.052796215762569
12.256046387426567
20.654612039368278
30.518043793392845
42.33463035019455
54.15121690699626
65.47951476310368
70.36240177004655
63.72167544060426
45.069047074082555
16.260013733119706
-16.748302433813993
-50.53788052185855
-79.73754482337682
-98.97611963073167
-106.2027924010071
-100.24567025253681
-87.35484855420768
-72.99916075379568
-59.71770809491112
-51.123826962691695
-46.826886396581976
-42.92057679102769
-26.90470740825513
17.236591134508277
92.23773556115053
171.14518959334706
193.6064698252842
114.4060425726711
-39.307240405889985
-177.59060044251163
-221.24361028458077
-171.63347829404134
-88.62439917601282
-28.760204470893417
-10.302891584649425
-14.990463111314565
-20.752269779507134
-15.381094071869994
1.2207217517357138
19.385061417563133
33.3501182574197
40.772106507972836
44.28778515297169
45.75265125505455
43.70183871213855
41.358052948805984
39.79552910658427
39.893186846723125
40.28381780727855
35.79156176089113
27.97894254978256
20.55695429922942
16.943617914091707
17.334248874647134
18.506141756313422
20.361638818951704
22.119478141451133
26.416418707560844
35.49858854047456
45.654993514915695
51.61211566338598
46.43625543602655
30.811017013809415
12.256046387426567
-3.2715342946517127
-12.646677347981994
-19.678034637979707
-26.22110322728313
-30.615701533531702
-32.37354085603113
-30.127412832837415
-27.783627069504846
-28.857862211032273
-33.64309147783627
-39.5025558861677
-39.69787136644541
-33.44777599755856
-23.291371023117417
-13.330281528953995
-8.642710002288853
-6.6895551995117115
-3.9551384756237127
0.43945983062485694
3.466849774929427
1.7090104524299992
-1.416037232013428
-5.908293278400855
-11.670099946593423
-16.064698252841993
-18.506141756313422
-19.48271915770199
-20.84992751964599
-18.310826276035705
-5.810635538261997
13.037308308537423
30.22507057297627
37.64705882352941
37.64705882352941
39.893186846723125
48.291752498664835
56.7879758907454
51.123826962691695
25.830472266727703
-11.670099946593423
-49.951934081025406
-77.29610131990539
-91.8471046005951
-96.72999160753795
-93.2143129625391
-81.39772640573739
-61.08491645685512
-39.40489814602884
-21.63118944075685
-10.302891584649425
-4.736400396734569
8.154421301594567
44.77607385366598
112.74586099031052
194.4853894865339
239.6032654306859
195.8525978484779
57.95986877241169
-103.17540245670253
-196.53620202944992
-193.70412756542305
-132.57038223849852
-68.4092469672694
-28.369573510337986
-11.47478446631571
-9.228656443121995
-10.498207064927138
-9.42397192339971
-4.248111696040284
1.6113527122911422
5.322346837567712
10.205233844510566
14.892805371175708
16.16235599298085
15.576409552147707
15.088120851453422
15.576409552147707
14.013885709925994
14.013885709925994
21.92416266117342
36.182192721446555
53.85824368657969
71.43663691157397
88.72205691615167
104.1519798580911
111.47631036850538
108.64423590447852
96.72999160753795
83.93682764934768
75.34294651712825
64.9912260624094
49.658960860608836
32.08056763561456
18.017853055619135
7.666132600900283
-5.517662317845426
-22.90074006256199
-41.651026169222554
-54.7371633478294
-59.62005035477226
-62.9404135194934
-66.65140764476998
-68.89753566796368
-65.28419928282597
-55.03013656824598
-42.529945830472265
-29.63912413214313
-20.947585259784848
-18.310826276035705
-18.994430457007706
-19.775692378118563
-17.43190661478599
-13.916227969787137
-9.619287403677424
-3.076218814373999
2.490272373540856
5.420004577706569
3.8574807354848555
0.24414435034714274
-2.490272373540856
-4.541084916456855
-4.345769436179141
-3.662165255207141
-1.8066681925688564
4.052796215762569
14.11154345006485
27.392996108949415
39.11192492561227
48.38941023880369
54.932478828107115
53.56527046616312
42.04165712977798
21.728847180895706
-2.2949568932631417
-27.1976806286717
-50.928511482413974
-67.23735408560312
-73.97573815518425
-72.70618753337911
-66.06546120393683
-57.178606851300835
-45.55733577477684
-34.717326619363696
-27.295338368810558
-21.728847180895706
-13.232623788815136
9.619287403677424
56.29968719005112
124.46478980697337
186.0868238345922
193.8017853055619
123.58587014572366
0.537117570763714
-110.40207522697796
-156.1058976119631
-132.76569771877624
-73.58510719462882
-18.310826276035705
14.209201190203707
25.146868085755703
22.021820401312276
15.967040512703136
11.279468986037996
9.326314183260854
10.693522545204852
12.353704127565424
13.13496604867628
11.670099946593423
10.205233844510566
10.205233844510566
9.130998702983138
7.959105821316854
5.71297779812314
4.248111696040284
6.494239719233997
12.158388647287708
19.87335011825742
25.537499046311133
29.053177691309987
30.811017013809415
27.588311589227132
21.43587396047913
15.869382772564279
14.50217441062028
16.748302433813993
18.21316853589685
18.017853055619135
14.50217441062028
9.228656443121995
5.517662317845426
2.5879301136797133
-0.537117570763714
-7.080186160067139
-15.576409552147707
-22.998397802700847
-28.857862211032273
-32.178225375753414
-34.91264209964141
-36.182192721446555
-34.424353398947126
-30.908674753948272
-24.65857938506142
-18.701457236591136
-15.47875181200885
-14.697489890897993
-15.771725032425422
-15.674067292286564
-15.47875181200885
-14.404516670481422
-10.595864805065995
-5.322346837567712
0.43945983062485694
3.9551384756237127
5.322346837567712
6.591897459372854
6.103608758678568
4.834058136873426
4.541084916456855
9.42397192339971
19.58037689784085
28.95551995117113
35.69390402075227
38.62363622491798
36.57282368200198
27.68596932936599
11.377126726176853
-7.763790341039139
-28.467231250476843
-48.68238345922026
-65.57717250324254
-78.46799420157168
-84.52277409018082
-83.74151216906996
-75.04997329671168
-59.815365835049974
-44.28778515297169
-31.787594415197987
-24.17029068436713
-15.869382772564279
5.224689097428855
51.416800183108265
124.8554207675288
191.75097276264592
193.21583886472877
96.43701838712138
-59.22941939421683
-180.71564812695507
-205.32539864194706
-144.38696879530022
-57.08094911116198
4.736400396734569
29.834439612420844
30.029755092698558
21.826504921034562
16.16235599298085
14.209201190203707
16.260013733119706
20.361638818951704
25.049210345616846
28.27191577019913
28.857862211032273
30.908674753948272
34.81498435950255
39.893186846723125
44.67841611352712
44.28778515297169
37.84237430380713
26.709391927977418
16.84596017395285
12.158388647287708
11.572442206454566
16.55298695353628
24.756237125200276
32.95948729686427
37.84237430380713
38.03768978408484
36.67048142214084
34.0337224383917
30.029755092698558
22.998397802700847
10.400549324788281
-3.5645075150682843
-15.771725032425422
-24.365606164644845
-30.615701533531702
-37.74471656366827
-44.580758373388264
-50.53788052185855
-53.07698176546884
-51.709773403524835
-49.365987640192266
-46.14328221560998
-43.50652323186084
-39.79552910658427
-33.3501182574197
-25.439841306172273
-16.55298695353628
-8.545052262149996
-1.2207217517357138
4.834058136873426
6.39658197909514
4.931715877012284
1.6113527122911422
-0.6347753109025711
-0.43945983062485694
0.04882887006942855
1.9043259327077133
4.345769436179141
7.568474860761425
10.693522545204852
12.74433508812085
18.994430457007706
30.908674753948272
46.72922865644312
62.9404135194934
74.5616845960174
78.85862516212711
72.12024109254597
54.83482108796826
29.443808651865414
-1.7090104524299992
-32.178225375753414
-56.59266041046769
-72.21789883268482
-79.44457160296025
-81.49538414587624
-78.07736324101626
-71.53429465171283
-64.20996414129854
-58.350499732967116
-56.39734493018997
-52.49103532463569
-37.35408560311284
3.36919203479057
80.03051804379339
175.05149919890135
233.84145876249332
193.21583886472877
51.31914244296941
-114.4060425726711
-209.03639276722362
-195.8525978484779
-117.82406347753108
-40.96742198825055
-1.0254062714579995
3.466849774929427
-4.736400396734569
-9.42397192339971
-4.736400396734569
3.5645075150682843
7.470817120622568
8.349736781872283
9.521629663538567
15.381094071869994
26.318760967421987
36.96345464255741
44.873731593804834
48.97535667963683
51.123826962691695
50.04959182116426
43.50652323186084
36.37750820172427
32.37354085603113
32.86182955672541
36.67048142214084
40.479133287556266
43.89715419241627
45.55733577477684
45.947966735332265
44.77607385366598
40.479133287556266
36.57282368200198
33.44777599755856
29.346150911726557
22.21713588158999
10.302891584649425
-5.71297779812314
-28.66254673075456
-55.22545204852369
-77.19844357976653
-88.62439917601282
-88.23376821545739
-83.6438544289311
-79.93286030365454
-75.53826199740597
-67.82330052643626
-55.81139848935683
-44.48310063324941
-35.4009308003357
-27.002365148393988
-19.287403677424276
-10.302891584649425
-1.513694972152285
6.103608758678568
10.400549324788281
7.080186160067139
-1.513694972152285
-10.498207064927138
-13.232623788815136
-8.545052262149996
-0.7324330510414282
8.44739452201114
15.47875181200885
20.947585259784848
29.053177691309987
41.16273746852827
55.81139848935683
67.13969634546426
74.36636911573969
79.54222934309911
79.05394064240483
68.99519340810254
47.998779278248264
22.21713588158999
-2.9785610742351416
-28.95551995117113
-52.588693064774546
-68.70222018768597
-74.17105363546197
-74.17105363546197
-74.07339589532312
-69.48348210879682
-58.74113069352254
-44.580758373388264
-31.494621194781413
-21.045242999923705
-3.8574807354848555
32.764171816586554
96.33936064698253
163.5278858625162
179.05546654459448
106.00747692072939
-30.322728313115128
-150.8323796444648
-192.62989242389563
-158.5473411154345
-92.04242008087282
-33.64309147783627
1.513694972152285
12.939650568398566
6.005951018539712
-4.443427176317998
-9.033340962844282
-5.322346837567712
4.345769436179141
16.064698252841993
29.346150911726557
41.5533684290837
51.02616922255284
53.27229724574655
44.77607385366598
32.27588311589227
22.60776684214542
20.84992751964599
27.002365148393988
34.0337224383917
36.27985046158541
31.2993057145037
25.342183566033416
24.853894865339132
28.174258030060273
33.05714503700313
37.4517433432517
43.21355001144427
50.635538261997404
53.467612726024264
46.33859769588769
27.881284809643702
6.6895551995117115
-9.326314183260854
-20.654612039368278
-28.076600289921416
-33.64309147783627
-38.03768978408484
-42.33463035019455
-47.90112153810941
-51.90508888380255
-52.881666285191116
-49.073014419775696
-42.529945830472265
-38.33066300450141
-35.20561532005799
-31.494621194781413
-25.63515678644999
-18.701457236591136
-13.525597009231708
-7.568474860761425
-0.537117570763714
7.861448081177996
15.185778591592278
16.064698252841993
10.986495765621424
1.7090104524299992
-5.71297779812314
-6.39658197909514
-2.8809033340962844
0.6347753109025711
1.7090104524299992
6.494239719233997
18.60379949645228
32.471198596169984
44.09246967269398
52.588693064774546
61.182574196993976
68.99519340810254
69.0928511482414
56.20202944991226
27.68596932936599
-8.154421301594567
-40.96742198825055
-66.26077668421455
-80.9094377050431
-83.93682764934768
-75.53826199740597
-62.15915159838254
-52.881666285191116
-47.60814831769284
-43.79949645227741
-37.549401083390556
-26.807049668116274
-6.494239719233997
37.256427862973986
105.81216144045166
173.00068665598536
193.50881208514534
136.18371862363622
17.13893339436942
-108.35126268406195
-178.86015106431677
-174.0749217975128
-125.14839398794537
-75.14763103685054
-46.533913176165406
-33.64309147783627
-24.95155260547799
-18.21316853589685
-12.549019607843137
-6.298924238956283
3.36919203479057
14.209201190203707
20.16632333867399
21.338216220340275
20.068665598535134
24.072632944228275
37.4517433432517
51.02616922255284
55.03013656824598
48.19409475852598
41.16273746852827
40.772106507972836
44.28778515297169
48.38941023880369
50.928511482413974
54.24887464713512
59.815365835049974
63.526359960326545
62.15915159838254
52.97932402532997
38.818951705195694
23.58434424353399
9.81460288395514
1.2207217517357138
-4.052796215762569
-8.74036774242771
-14.013885709925994
-20.752269779507134
-26.90470740825513
-32.08056763561456
-34.22903791866941
-33.838406958113985
-35.20561532005799
-38.42832074464027
-43.11589227130541
-44.28778515297169
-38.33066300450141
-27.392996108949415
-14.013885709925994
-2.490272373540856
5.810635538261997
9.521629663538567
7.470817120622568
4.248111696040284
1.9043259327077133
2.0996414129854277
4.931715877012284
7.666132600900283
9.42397192339971
8.44739452201114
6.298924238956283
4.443427176317998
2.392614633401999
3.466849774929427
8.642710002288853
19.287403677424276
33.838406958113985
47.90112153810941
59.71770809491112
66.26077668421455
66.26077668421455
57.27626459143969
35.889219501029984
6.591897459372854
-24.365606164644845
-49.951934081025406
-67.33501182574197
-77.88204776073853
-80.61646448462653
-78.17502098115511
-72.41321431296254
-64.50293736171511
-56.006713969634546
-46.63157091630426
-40.479133287556266
-35.303273060196844
-20.361638818951704
14.892805371175708
72.80384527351796
131.59380483710993
152.3949034866865
102.7847714961471
-9.42397192339971
-124.46478980697337
-178.5671778439002
-152.59021896696422
-79.73754482337682
-10.595864805065995
27.002365148393988
32.95948729686427
24.072632944228275
14.599832150759136
9.42397192339971
11.47478446631571
16.943617914091707
22.803082322423133
27.100022888532845
28.27191577019913
28.760204470893417
29.2484931715877
30.811017013809415
32.86182955672541
33.74074921797513
35.49858854047456
36.182192721446555
36.475165941863125
38.03768978408484
40.772106507972836
44.77607385366598
46.92454413672083
47.80346379797055
48.584725719081405
48.38941023880369
48.09643701838712
44.873731593804834
37.549401083390556
28.27191577019913
19.678034637979707
13.232623788815136
4.248111696040284
-7.568474860761425
-19.87335011825742
-31.201647974364842
-39.307240405889985
-45.45967803463798
-47.998779278248264
-45.45967803463798
-41.651026169222554
-39.40489814602884
-40.67444876783398
-42.236972610055695
-42.43228809033341
-42.04165712977798
-38.03768978408484
-31.787594415197987
-24.756237125200276
-18.40848401617456
-15.088120851453422
-14.209201190203707
-16.357671473258563
-18.40848401617456
-18.506141756313422
-18.017853055619135
-15.674067292286564
-12.549019607843137
-6.982528419928283
1.513694972152285
11.08415350576028
22.803082322423133
36.57282368200198
52.588693064774546
67.0420386053254
74.17105363546197
74.85465781643397
69.58113984893568
58.936446173800256
40.772106507972836
12.74433508812085
-21.045242999923705
-54.639505607690545
-79.24925612268254
-91.45647364003968
-95.2651255054551
-92.72602426184481
-86.08529793240254
-75.34294651712825
-62.2568093385214
-51.709773403524835
-42.04165712977798
-25.732814526588847
11.47478446631571
76.61249713893339
154.93400473029678
208.05981536583505
186.86808575570305
76.02655069810025
-76.51483939879454
-186.7704280155642
-201.41908903639276
-141.35957885099566
-63.42870222018769
-9.912260624093996
10.693522545204852
14.11154345006485
12.45136186770428
13.232623788815136
18.799114976729992
25.537499046311133
30.322728313115128
30.22507057297627
27.588311589227132
25.63515678644999
26.025787747005417
31.00633249408713
35.79156176089113
37.15877012283513
34.91264209964141
29.834439612420844
25.732814526588847
23.779659723811704
26.025787747005417
31.592278934920273
37.15877012283513
43.99481193255512
50.14724956130312
53.17463950560769
50.928511482413974
43.21355001144427
32.95948729686427
19.287403677424276
4.834058136873426
-7.470817120622568
-18.40848401617456
-27.002365148393988
-34.32669565880827
-41.45571068894484
-49.365987640192266
-57.471580071717405
-61.768520637827116
-62.9404135194934
-62.35446707866026
-61.37788967727169
-61.182574196993976
-58.44815747310597
-52.49103532463569
-41.84634164950027
-27.97894254978256
-15.088120851453422
-4.052796215762569
2.8809033340962844
6.787212939650568
7.568474860761425
5.224689097428855
3.9551384756237127
4.443427176317998
6.591897459372854
9.033340962844282
10.10757610437171
12.353704127565424
15.576409552147707
19.385061417563133
22.510109102006563
26.61173418783856
37.84237430380713
56.29968719005112
76.71015487907225
90.57755397878996
91.1635004196231
78.37033646143283
52.295719844357976
17.13893339436942
-21.728847180895706
-58.74113069352254
-85.40169375143053
-99.65972381170367
-101.71053635461966
-94.97215228503853
-84.13214312962539
-71.24132143129626
-60.8896009765774
-53.66292820630198
-48.38941023880369
-43.018234531166556
-26.90470740825513
11.963073167009995
80.81177996490425
160.89112687876707
199.17296101319906
146.53543907835507
7.470817120622568
-142.43381399252308
-218.6068513008316
-199.36827649347677
-123.78118562600137
-47.31517509727627
0.24414435034714274
17.627222095063708
17.13893339436942
15.967040512703136
21.92416266117342
34.91264209964141
47.51049057755398
54.053559166857404
56.7879758907454
57.37392233157855
60.987258716716255
69.9717708094911
77.19844357976653
76.51483939879454
67.53032730601969
58.936446173800256
55.90905622949569
55.51842526894026
54.053559166857404
47.90112153810941
40.86976424811169
39.600213626306555
43.604180971999696
46.533913176165406
39.69787136644541
25.63515678644999
11.572442206454566
-0.6347753109025711
-10.009918364232853
-16.064698252841993
-18.21316853589685
-21.338216220340275
-31.9829098954757
-47.80346379797055
-62.2568093385214
-68.4092469672694
-68.50690470740825
-70.94834821087969
-75.34294651712825
-76.31952391851682
-70.55771725032426
-63.91699092088197
-62.745098039215684
-61.96383611810483
-57.27626459143969
-47.51049057755398
-35.889219501029984
-27.1976806286717
-22.412451361867703
-21.63118944075685
-18.89677271686885
-11.08415350576028
-4.052796215762569
-4.150453955901427
-11.572442206454566
-16.357671473258563
-12.84199282825971
-5.908293278400855
0.43945983062485694
5.127031357289998
12.84199282825971
26.318760967421987
42.13931486991684
56.39734493018997
66.45609216449226
74.36636911573969
77.19844357976653
68.31158922713054
50.04959182116426
27.49065384908827
4.150453955901427
-19.775692378118563
-42.43228809033341
-58.1551842526894
-67.7256427862974
-70.75303273060197
-67.62798504615854
-62.54978255893797
-55.713740749217976
-46.04562447547112
-32.95948729686427
-20.654612039368278
-8.154421301594567
21.24055848020142
81.00709544518196
160.5981536583505
214.01693751430534
187.84466315709162
73.78042267490653
-74.95231555657283
-177.6882581826505
-192.2392614633402
-140.48065918974595
-72.99916075379568
-27.588311589227132
-8.545052262149996
-5.517662317845426
-8.252079041733426
-6.787212939650568
0.04882887006942855
8.935683222705425
14.697489890897993
16.16235599298085
18.40848401617456
23.48668650339513
31.787594415197987
39.40489814602884
42.04165712977798
42.236972610055695
41.26039520866713
40.28381780727855
39.5025558861677
38.72129396505684
39.014267185473415
39.20958266575113
41.84634164950027
46.92454413672083
50.635538261997404
51.90508888380255
50.83085374227512
50.04959182116426
47.60814831769284
39.307240405889985
26.416418707560844
11.08415350576028
-1.3183794918745708
-11.08415350576028
-23.682001983672848
-39.20958266575113
-53.467612726024264
-58.54581521324483
-53.85824368657969
-45.654993514915695
-37.94003204394598
-33.545433737697415
-31.103990234225986
-29.150835431448844
-26.61173418783856
-20.55695429922942
-13.037308308537423
-5.127031357289998
2.5879301136797133
8.349736781872283
10.79118028534371
7.080186160067139
1.3183794918745708
-1.6113527122911422
-0.9277485313191425
3.1738765545128556
6.884870679789426
9.619287403677424
11.865415426871138
12.74433508812085
13.330281528953995
13.81857022964828
17.627222095063708
25.537499046311133
34.0337224383917
43.40886549172198
52.97932402532997
61.67086289768826
64.60059510185397
55.81139848935683
35.69390402075227
6.39658197909514
-24.267948424505988
-48.97535667963683
-64.3076218814374
-70.16708628976883
-71.43663691157397
-69.38582436865796
-63.233386739909974
-54.7371633478294
-45.26436255436027
-39.307240405889985
-36.86579690241855
-33.545433737697415
-19.775692378118563
19.58037689784085
84.81574731059739
150.73472190432594
171.0475318532082
114.30838483253224
-0.43945983062485694
-114.60135805294881
-170.26626993209734
-154.25040054932478
-98.09719996948196
-40.57679102769512
-5.71297779812314
6.201266498817426
5.810635538261997
1.7090104524299992
1.3183794918745708
5.420004577706569
12.84199282825971
19.87335011825742
23.87731746395056
26.90470740825513
28.27191577019913
30.518043793392845
35.79156176089113
41.358052948805984
43.50652323186084
39.99084458686198
35.010299839780274
31.787594415197987
30.22507057297627
31.2993057145037
32.764171816586554
34.52201113908598
36.57282368200198
38.1353475242237
39.69787136644541
38.818951705195694
36.0845349813077
31.494621194781413
23.291371023117417
13.13496604867628
2.490272373540856
-6.591897459372854
-14.795147631036851
-23.48668650339513
-32.08056763561456
-42.13931486991684
-52.19806210421912
-59.62005035477226
-62.54978255893797
-59.03410391393912
-52.19806210421912
-42.92057679102769
-32.08056763561456
-23.096055542839704
-17.724879835202564
-17.52956435492485
-18.89677271686885
-18.799114976729992
-17.920195315480278
-15.674067292286564
-13.81857022964828
-9.912260624093996
-2.197299153124285
5.420004577706569
9.521629663538567
8.74036774242771
8.44739452201114
11.670099946593423
16.650644693675137
24.072632944228275
34.424353398947126
49.85427634088655
67.82330052643626
82.0813305867094
88.91737239642939
84.52277409018082
71.1436636911574
51.80743114366369
26.514076447699704
-3.662165255207141
-37.06111238269627
-65.57717250324254
-82.86259250782025
-88.4290836957351
-83.4485389486534
-73.09681849393453
-60.30365453574426
-49.75661860074769
-44.97138933394369
-44.19012741283284
-46.43625543602655
-43.50652323186084
-20.752269779507134
33.64309147783627
114.30838483253224
181.7898832684825
182.76646066987107
91.45647364003968
-56.983291371023114
-179.34843976501105
-213.82162203402763
-163.91851682307163
-83.05790798809797
-21.045242999923705
8.05676356145571
14.697489890897993
15.576409552147707
17.920195315480278
20.55695429922942
22.998397802700847
23.389028763256274
24.072632944228275
26.123445487144274
27.295338368810558
27.1976806286717
25.92813000686656
26.318760967421987
29.053177691309987
32.08056763561456
35.49858854047456
36.475165941863125
34.91264209964141
32.95948729686427
32.178225375753414
34.52201113908598
36.96345464255741
39.20958266575113
41.45571068894484
42.62760357061112
42.62760357061112
39.5025558861677
33.838406958113985
25.830472266727703
16.357671473258563
7.861448081177996
-2.197299153124285
-14.306858930342566
-26.514076447699704
-37.06111238269627
-43.89715419241627
-49.85427634088655
-54.346532387273975
-56.1043717097734
-55.32310978866255
-51.51445792324712
-46.72922865644312
-40.67444876783398
-33.93606469825284
-27.97894254978256
-20.947585259784848
-14.209201190203707
-7.177843900205997
-0.537117570763714
2.68558785381857
3.2715342946517127
1.3183794918745708
0.9277485313191425
3.076218814373999
6.103608758678568
9.912260624093996
11.377126726176853
10.888838025482567
10.009918364232853
9.81460288395514
13.330281528953995
20.361638818951704
31.885252155336843
45.947966735332265
58.936446173800256
69.0928511482414
71.04600595101854
62.061493858243686
42.529945830472265
17.041275654230564
-8.349736781872283
-34.52201113908598
-61.28023193713283
-85.6946669718471
-102.19882505531396
-103.85900663767453
-94.19089036392768
-79.24925612268254
-64.9912260624094
-54.54184786755169
-47.31517509727627
-42.13931486991684
-27.49065384908827
13.330281528953995
87.55016403448539
175.34447241931792
220.0717174029145
167.33653772793164
21.826504921034562
-135.7930876630808
-213.33333333333334
-190.38376440070192
-116.45685511558709
-51.80743114366369
-20.45929655909056
-10.595864805065995
-7.373159380483711
-1.416037232013428
8.349736781872283
18.60379949645228
27.392996108949415
32.178225375753414
34.22903791866941
33.545433737697415
29.541466392004274
25.92813000686656
23.682001983672848
25.732814526588847
31.885252155336843
37.15877012283513
39.11192492561227
37.06111238269627
35.49858854047456
37.256427862973986
42.43228809033341
51.709773403524835
61.5732051575494
69.77645532921339
72.5108720531014
67.13969634546426
57.471580071717405
46.14328221560998
35.49858854047456
24.560921644922562
11.670099946593423
-0.6347753109025711
-12.060730907148852
-21.045242999923705
-28.174258030060273
-36.768139162279695
-48.68238345922026
-63.72167544060426
-75.44060425726711
-78.95628290226597
-75.04997329671168
-64.79591058213168
-50.928511482413974
-32.08056763561456
-11.572442206454566
1.2207217517357138
3.36919203479057
-1.0254062714579995
-3.076218814373999
-2.8809033340962844
-5.615320057984283
-9.228656443121995
-11.08415350576028
-8.74036774242771
-5.615320057984283
-5.615320057984283
-5.615320057984283
-3.36919203479057
1.513694972152285
5.517662317845426
8.154421301594567
14.892805371175708
25.146868085755703
37.35408560311284
51.22148470283055
66.16311894407569
77.68673228046082
73.48744945448996
50.24490730144198
14.599832150759136
-23.682001983672848
-56.29968719005112
-79.44457160296025
-87.7454795147631
-81.98367284657053
-70.26474402990769
-59.815365835049974
-55.420767528801406
-53.56527046616312
-51.02616922255284
-47.51049057755398
-39.40489814602884
-21.045242999923705
17.82253757534142
83.05790798809797
160.50049591821164
207.9621576256962
173.48897535667965
51.22148470283055
-98.87846189059282
-195.46196688792247
-198.58701457236592
-136.28137636377508
-63.819333180743115
-17.82253757534142
-0.537117570763714
4.638742656595713
5.615320057984283
4.834058136873426
3.9551384756237127
6.005951018539712
12.74433508812085
20.068665598535134
28.467231250476843
38.91660944533455
46.240939955748836
45.069047074082555
35.10795757991913
26.416418707560844
25.342183566033416
29.2484931715877
