ExG_CH1;ExG_CH2;ExG_CH3;ExG_CH4;ExG_CH5;ExG_CH6
537;536;549;545;516;472
536;529;538;544;538;525
521;643;731;786;802;769
522;523;549;577;600;597
524;455;425;420;434;463
508;587;637;672;694;700
502;561;610;646;669;666
519;433;396;386;398;434
511;535;547;557;566;585
507;604;670;711;729;719
524;462;439;436;446;464
522;487;465;456;461;486
495;607;675;714;728;714
489;485;499;514;529;535
475;412;380;368;376;407
433;525;582;619;638;645
401;473;531;574;598;600
452;363;326;318;333;372
578;555;538;533;532;543
713;732;744;749;738;707
791;662;584;535;504;492
779;713;655;609;572;562
715;821;871;885;863;815
644;656;670;676;671;653
580;543;525;517;518;536
523;635;707;753;774;775
489;568;633;682;715;716
485;419;398;403;429;474
464;507;535;561;587;617
449;556;633;686;720;724
460;403;388;392;415;449
455;431;418;418;432;470
439;552;623;666;688;684
447;435;445;460;479;493
455;385;348;333;340;375
446;527;574;604;618;623
446;494;533;563;578;574
463;376;334;319;326;359
453;483;497;507;513;527
445;541;605;645;661;649
465;398;372;365;373;392
466;436;418;409;412;436
452;559;625;663;674;658
460;443;447;457;468;474
468;397;357;339;340;368
454;537;584;613;625;623
449;496;536;564;577;570
463;378;338;322;328;360
452;487;503;514;520;532
440;537;602;644;661;648
453;389;365;359;369;389
446;424;410;406;411;436
429;541;610;651;666;653
433;418;425;437;452;460
434;369;334;320;326;357
418;507;560;592;607;609
415;461;501;532;549;545
425;343;304;292;301;335
411;450;469;485;493;507
398;495;562;606;626;614
408;344;319;317;328;351
404;383;371;369;377;403
392;501;570;611;627;616
404;383;386;397;411;421
416;346;307;291;294;325
411;495;543;573;584;583
419;455;488;512;524;518
448;355;308;288;292;319
452;480;491;497;498;505
459;541;596;628;637;617
498;414;374;357;357;368
516;480;453;437;430;442
525;617;670;697;697;670
553;514;500;496;494;489
575;493;441;412;400;416
577;652;690;709;706;689
589;613;635;648;649;628
612;515;460;433;426;443
610;639;648;649;643;640
605;687;742;770;775;748
621;542;505;489;487;495
616;593;574;564;560;571
601;705;768;802;809;786
606;578;575;578;585;588
608;540;500;481;481;505
590;680;732;761;771;765
585;619;652;675;688;680
596;509;466;448;453;483
584;623;643;655;659;668
575;662;723;759;773;757
588;512;480;469;475;495
578;562;550;544;547;568
562;670;736;774;787;770
567;540;537;543;556;566
568;504;467;451;455;485
553;645;700;732;744;741
552;585;616;639;653;648
565;480;437;419;425;455
553;596;617;630;636;644
540;629;691;728;743;727
554;480;448;437;445;465
545;533;523;519;524;545
531;639;707;746;760;746
540;510;507;513;525;537
545;482;445;429;432;463
533;626;680;713;724;721
533;562;591;614;626;622
545;460;417;399;404;434
536;579;600;614;620;627
529;613;672;708;721;705
547;467;432;419;426;446
541;528;516;512;514;534
526;632;698;737;749;733
534;502;496;501;512;524
537;475;439;422;425;455
519;616;673;705;718;714
521;548;576;599;611;608
534;449;406;388;393;423
523;569;592;606;614;620
515;599;656;692;706;691
532;454;418;405;412;435
526;517;508;504;507;527
512;619;686;725;737;722
524;489;483;488;498;509
528;468;432;417;418;449
516;612;668;702;713;706
519;542;568;589;601;597
532;447;403;385;388;417
520;569;593;608;615;619
513;595;652;688;702;685
528;449;413;401;407;429
519;514;507;505;509;527
507;612;680;719;733;718
518;480;473;478;488;502
520;461;426;412;415;446
506;604;662;696;708;702
506;527;552;573;587;585
517;434;391;374;378;408
507;557;583;599;606;612
498;579;635;671;685;670
509;430;395;383;391;415
494;494;490;491;496;516
480;588;657;698;715;702
497;458;449;454;467;481
504;446;412;398;401;432
490;589;647;682;693;688
487;507;532;553;566;565
502;420;378;359;363;392
500;550;575;591;598;602
502;576;628;661;673;655
526;439;398;383;386;407
526;519;509;505;506;521
517;618;681;717;728;710
532;488;475;475;482;491
537;480;443;425;426;452
524;623;680;711;721;710
524;539;560;577;588;584
536;453;407;389;390;417
527;579;606;621;628;631
520;595;648;681;693;676
535;451;413;398;405;426
530;529;523;522;526;542
520;622;688;726;739;724
523;482;472;474;484;498
507;461;432;422;427;457
473;586;652;693;710;705
442;473;506;534;556;562
421;361;334;328;345;383
409;478;522;551;571;586
491;542;585;616;634;624
678;520;437;396;385;399
787;707;644;601;568;560
802;852;865;858;828;778
782;717;674;641;611;590
713;673;637;608;584;584
612;751;828;866;868;841
552;601;648;681;700;695
524;475;461;463;482;517
484;569;626;667;697;713
459;552;626;677;715;718
467;396;373;376;402;447
457;470;481;495;516;552
444;552;625;676;704;706
458;415;405;413;432;462
458;411;384;376;386;426
442;549;612;652;669;668
445;456;476;496;513;520
461;381;338;322;327;360
452;512;545;565;575;581
447;518;569;601;617;604
463;379;340;326;333;361
456;465;465;468;473;490
444;549;617;658;673;659
460;413;399;400;410;426
461;414;386;375;378;407
451;555;617;654;666;656
455;461;478;495;508;509
465;386;344;326;330;358
452;515;551;572;581;585
444;514;566;599;614;601
457;375;337;324;332;359
449;461;465;469;475;492
436;541;609;651;668;655
449;401;388;389;400;418
446;402;376;367;372;402
430;538;602;640;655;646
428;434;454;473;488;492
429;356;318;303;310;341
408;479;520;546;560;566
397;469;524;560;579;571
407;328;293;283;295;328
395;413;421;430;440;461
385;490;559;604;624;616
400;351;337;339;352;373
405;361;335;327;333;363
398;503;565;603;616;606
410;409;422;437;450;453
431;350;304;284;285;312
430;492;524;543;549;549
441;497;538;566;575;560
476;380;332;310;310;333
490;492;487;482;479;486
500;587;641;672;676;654
534;466;435;422;420;425
555;498;458;435;425;439
560;652;701;725;724;697
580;564;563;565;565;553
601;511;456;426;415;429
598;655;682;694;691;679
601;652;689;709;711;687
622;526;476;451;448;465
616;626;625;621;617;621
604;699;760;793;800;778
617;557;533;525;528;537
615;572;543;528;526;547
602;706;767;799;807;788
604;597;606;616;626;624
610;532;487;465;466;491
593;663;702;723;731;730
580;641;687;715;729;716
590;505;464;448;456;484
577;598;607;613;619;634
566;666;732;772;788;776
577;521;500;496;506;524
573;536;512;502;506;533
554;663;729;766;779;765
555;550;561;575;589;593
560;486;446;428;431;461
545;619;661;687;699;700
539;597;642;672;688;679
555;468;426;411;419;449
546;568;576;582;587;603
535;633;697;738;754;741
549;489;466;461;470;489
546;510;486;476;479;504
535;641;705;741;752;737
544;532;540;551;563;565
550;474;431;412;414;440
537;610;652;675;686;686
530;584;627;655;669;659
546;458;415;399;405;434
537;560;569;575;579;593
527;623;688;727;742;728
540;479;455;449;457;475
538;506;483;472;475;499
526;634;698;734;745;730
531;520;528;538;550;553
538;465;424;404;406;433
525;601;646;671;681;681
518;571;614;642;656;648
535;448;405;390;396;426
524;550;562;569;575;588
516;612;676;716;731;719
531;468;443;437;445;463
530;497;476;467;469;493
517;624;689;725;736;722
525;510;515;526;536;541
530;457;416;397;398;425
519;596;640;666;677;676
518;566;605;631;645;636
534;444;402;384;390;420
524;551;562;570;574;586
513;607;672;711;725;712
526;462;436;430;436;455
523;493;473;465;468;491
509;617;682;720;732;716
518;502;505;515;527;532
527;454;412;393;395;422
510;591;638;664;675;674
500;551;592;620;634;626
504;423;384;371;378;410
493;527;544;555;563;576
489;584;649;691;708;696
509;442;415;409;417;437
504;477;457;451;455;479
489;598;663;702;714;700
503;484;486;495;507;513
518;443;401;381;382;409
509;588;633;658;667;666
517;556;590;613;624;614
539;446;399;378;380;408
532;560;571;576;577;585
522;613;673;710;721;704
538;468;438;429;432;448
534;507;488;479;480;500
521;627;692;728;739;721
529;507;508;516;526;531
533;463;423;404;406;432
525;606;654;681;692;689
523;564;599;623;636;627
539;450;406;388;393;422
528;562;576;586;590;600
513;607;670;709;724;709
510;449;424;418;427;447
490;477;467;466;473;498
452;574;650;696;716;705
428;425;441;460;483;498
402;357;335;332;349;389
422;510;566;603;626;635
560;552;562;574;583;576
735;564;466;412;391;405
805;766;723;686;650;629
791;843;860;855;825;774
755;679;629;593;563;549
667;670;660;648;631;629
574;720;809;857;867;839
530;543;571;598;621;628
502;464;454;459;481;520
466;576;652;704;738;753
449;504;557;601;636;651
455;381;352;352;377;427
442;488;516;539;562;590
433;528;595;643;670;670
450;381;354;351;366;399
445;428;417;417;426;457
431;540;608;651;669;660
440;416;417;427;442;456
447;383;347;331;338;370
436;526;580;612;626;626
439;475;508;533;548;544
457;371;329;312;317;349
449;489;509;521;527;536
442;530;591;629;644;629
460;387;354;345;351;371
456;440;427;424;426;446
448;554;619;658;671;654
460;430;428;434;444;453
466;401;363;346;349;377
448;541;595;627;639;636
443;478;512;536;551;547
453;370;330;315;322;353
440;485;509;523;531;542
431;520;582;621;638;625
445;372;341;334;342;366
436;425;415;415;420;442
420;530;598;640;657;643
426;399;398;407;422;435
426;367;335;321;328;360
407;505;563;599;615;614
401;436;471;498;516;515
408;330;292;280;289;324
397;446;472;490;501;513
391;479;541;582;600;588
412;337;305;296;305;330
411;399;388;387;392;414
401;508;574;613;628;613
419;385;379;384;396;407
434;368;330;313;314;343
437;524;575;603;612;605
454;473;495;511;519;512
485;390;339;314;312;336
498;530;543;549;545;545
513;580;626;652;655;630
549;455;407;384;378;388
562;536;513;498;489;495
568;659;711;737;736;706
595;545;524;517;514;510
608;535;487;460;450;465
601;687;732;755;755;735
605;621;640;652;655;639
621;529;479;453;449;468
613;655;673;681;680;677
606;683;735;765;772;748
621;538;497;481;482;497
612;603;591;585;585;597
595;700;765;801;811;791
605;567;558;559;568;577
605;546;510;493;494;522
586;685;741;773;784;776
585;607;632;653;665;661
595;511;468;450;453;482
578;630;656;672;679;684
567;649;706;742;756;740
580;501;465;453;460;484
570;566;560;559;564;583
558;664;730;770;783;770
568;529;520;523;535;548
565;509;475;461;465;496
546;646;706;740;753;748
546;565;591;611;626;625
556;473;430;414;418;450
544;596;623;640;648;655
537;615;670;704;719;705
552;470;433;421;427;451
544;541;535;534;538;557
531;636;702;741;755;741
544;503;492;494;505;519
548;491;457;441;445;475
537;635;693;725;736;728
536;553;575;593;605;603
549;466;423;404;406;434
536;591;619;635;641;645
528;605;660;694;707;691
543;462;425;412;418;441
533;534;530;531;535;552
521;627;693;733;748;733
535;492;482;484;496;509
539;484;452;437;441;471
526;625;685;718;731;722
525;540;562;579;592;592
535;453;410;392;396;425
523;579;609;627;633;639
516;590;643;678;690;676
531;448;410;397;403;428
527;528;524;524;528;545
516;618;684;723;737;722
531;485;472;472;482;496
531;478;447;432;435;464
516;617;676;711;723;715
518;529;549;566;579;579
529;448;404;386;388;417
516;574;605;623;631;634
512;584;636;668;681;667
529;445;406;392;398;422
522;526;524;524;528;544
512;614;680;719;733;717
526;479;466;466;475;489
524;474;445;432;435;463
503;609;671;707;720;711
497;511;533;552;567;569
506;429;389;373;378;409
495;556;590;612;621;627
488;560;612;647;662;650
502;420;382;370;377;405
496;502;502;506;512;530
488;589;655;695;711;698
509;458;441;441;451;465
519;465;433;418;420;447
514;611;668;700;710;698
522;523;536;548;558;556
535;451;405;383;382;407
524;583;614;631;635;635
521;587;634;664;673;656
538;452;409;393;396;419
528;536;536;537;540;553
517;618;683;722;735;719
530;481;465;463;471;485
531;484;456;443;446;472
519;622;684;719;730;717
524;527;542;557;569;569
535;455;412;392;394;421
520;584;618;639;647;650
505;575;625;657;672;659
506;428;393;382;389;418
481;502;512;521;529;548
441;558;636;684;707;699
419;389;390;401;423;448
409;380;368;371;387;425
475;560;616;653;670;665
654;582;553;543;540;534
799;631;524;460;427;429
826;828;805;778;741;707
789;827;839;830;801;751
734;657;607;572;549;544
636;684;702;706;699;694
553;694;788;843;862;842
520;503;515;536;562;582
490;476;478;490;516;556
461;586;671;728;764;770
456;469;498;530;565;587
462;394;362;358;378;425
447;521;566;599;622;641
439;506;560;597;621;625
453;373;336;327;341;381
444;464;472;481;492;516
438;539;607;649;669;663
453;400;383;382;394;415
454;415;391;382;388;417
442;549;613;651;664;654
447;445;459;474;488;492
456;381;341;323;327;357
446;516;555;579;590;592
444;503;549;579;595;583
463;376;335;320;327;356
456;474;480;484;490;504
444;544;609;649;665;652
456;401;382;379;390;407
454;417;394;385;389;416
441;548;613;650;663;651
445;441;453;468;481;486
453;378;338;321;325;353
440;513;554;579;590;593
431;492;538;569;585;575
445;361;323;309;318;349
432;457;467;475;482;498
418;521;589;632;649;639
425;374;357;357;368;388
417;387;370;364;371;400
399;512;581;622;639;629
406;401;415;432;449;456
410;339;302;288;295;327
392;471;516;545;559;566
390;449;495;527;545;540
411;325;286;273;282;315
407;429;438;446;453;469
406;501;564;604;620;607
428;365;340;334;343;360
437;398;373;360;361;385
441;539;598;630;638;621
465;444;445;450;457;455
494;407;355;329;324;345
502;564;594;609;610;602
520;558;586;603;605;585
557;454;398;371;364;381
567;576;572;566;557;557
572;654;706;732;733;706
599;523;488;470;464;468
604;561;528;509;500;510
596;696;750;778;778;750
610;589;587;590;592;584
622;541;493;467;460;478
609;682;720;740;742;734
604;651;688;710;717;701
621;530;485;464;465;488
609;634;643;647;648;655
595;690;753;789;801;784
608;544;517;508;515;529
604;573;551;541;542;563
587;694;757;794;804;787
589;575;579;589;601;604
592;520;479;460;463;490
576;655;701;728;739;739
569;617;657;685;699;691
580;494;452;436;443;474
570;598;611;619;626;639
558;652;716;755;771;758
571;505;479;472;480;499
567;539;519;510;515;538
552;659;723;760;773;757
557;540;544;553;565;572
562;491;450;432;434;463
547;628;675;703;714;714
544;591;628;654;668;661
557;471;429;413;418;449
546;577;592;601;607;619
537;631;694;733;748;735
550;484;457;449;457;476
544;519;502;494;498;521
532;639;705;742;754;739
541;521;524;532;544;550
548;478;437;418;420;448
536;618;665;693;704;704
534;576;612;638;650;643
548;461;418;401;406;436
537;569;584;594;600;610
529;621;682;721;735;721
548;477;447;437;444;463
543;517;500;491;494;516
528;634;700;736;747;732
535;513;515;522;534;539
540;471;431;413;415;443
524;610;659;689;700;699
524;564;600;625;638;632
538;451;408;391;397;427
529;563;579;589;594;605
520;611;672;710;725;711
533;463;434;424;432;451
527;506;491;485;488;510
514;622;688;726;738;722
524;501;501;509;520;527
529;462;423;405;408;436
515;602;653;684;695;693
513;552;586;611;624;619
529;443;400;383;389;419
519;556;574;584;591;600
510;600;662;700;715;699
523;452;422;413;420;440
511;495;483;478;483;504
490;601;670;710;725;711
493;472;475;484;499;509
501;436;399;385;389;421
493;581;633;665;678;678
492;528;559;585;599;595
503;418;375;360;365;397
496;535;553;565;571;581
496;581;640;677;690;676
522;443;408;396;401;419
527;503;485;477;476;494
521;621;682;717;725;705
535;502;495;498;504;509
539;472;431;410;409;434
526;615;666;695;703;696
526;558;588;610;620;612
539;453;409;391;394;421
526;568;588;600;605;611
521;607;667;703;717;699
538;462;429;417;423;442
532;517;504;499;502;520
521;626;691;729;741;724
533;502;497;501;512;521
536;472;434;417;418;447
511;608;664;696;708;704
495;532;568;593;609;606
490;415;380;369;378;411
450;509;542;564;580;593
411;516;591;639;666;660
411;351;333;335;356;388
475;447;433;430;440;468
636;672;697;711;709;688
791;668;598;559;534;520
842;710;615;549;506;499
801;868;884;874;840;797
734;767;785;783;764;726
649;600;571;552;544;552
562;651;704;733;744;744
504;628;718;778;808;798
486;440;435;449;480;516
462;475;490;510;538;577
442;562;647;704;741;747
450;426;431;451;481;513
450;397;370;365;383;430
434;536;598;639;663;673
432;463;495;523;545;554
446;366;327;314;325;365
434;485;512;530;543;557
428;513;573;611;630;620
445;367;335;325;335;362
441;434;428;426;431;454
435;539;605;645;660;646
449;412;405;410;421;434
455;395;359;344;347;378
442;539;595;628;640;635
442;466;492;513;526;523
456;373;330;314;317;347
447;497;521;537;544;550
439;521;577;613;627;612
453;375;340;329;337;359
446;442;436;436;441;460
434;541;608;648;664;649
446;410;403;407;420;433
448;392;360;347;351;381
431;533;592;628;642;636
428;452;480;501;517;517
434;357;318;303;310;342
417;474;505;526;535;544
403;489;549;588;607;595
414;339;309;301;313;340
404;406;406;409;419;442
387;497;568;612;632;622
396;362;358;365;381;399
398;346;316;307;314;350
386;488;549;587;602;600
393;411;435;456;472;475
414;329;286;269;273;305
409;460;486;501;509;515
411;484;535;569;580;565
439;352;311;295;300;320
450;440;430;425;426;439
457;550;607;640;649;629
490;436;415;409;412;417
513;444;400;377;371;391
521;607;653;676;677;658
545;544;552;558;558;544
578;480;422;391;381;395
580;622;637;642;635;625
587;650;691;712;711;681
612;518;469;445;439;448
612;604;592;582;576;578
604;701;759;789;793;767
623;571;552;545;547;551
625;568;530;510;505;524
614;711;766;794;799;784
613;622;638;651;658;651
622;539;492;471;469;492
605;662;690;706;711;710
593;666;717;748;760;743
603;520;481;466;473;495
594;598;596;596;600;616
579;682;749;787;801;787
587;541;528;529;539;554
584;534;504;491;494;524
569;672;733;769;780;771
567;577;596;614;626;628
576;496;453;435;438;468
562;623;654;673;681;686
555;626;677;709;723;710
567;484;446;431;438;464
558;565;566;567;572;589
544;648;715;754;770;756
557;510;496;496;506;522
557;509;480;468;471;499
543;646;708;744;756;746
544;552;569;585;598;600
552;473;431;412;415;445
539;602;635;655;663;667
535;603;652;685;698;685
550;465;425;410;416;442
543;552;552;554;558;574
532;633;698;737;752;738
546;495;479;477;487;502
545;498;469;456;459;487
530;635;696;732;743;732
535;538;553;568;581;582
545;465;421;402;404;433
533;595;629;648;657;660
526;592;640;671;684;671
542;456;415;400;406;432
534;545;547;549;553;568
523;623;689;728;743;729
535;483;467;465;474;490
535;490;463;451;454;481
521;626;689;726;736;725
524;526;540;556;568;570
534;456;413;395;397;425
523;589;623;644;653;656
517;581;629;659;673;660
531;446;406;390;397;424
524;538;542;545;550;565
516;615;681;720;734;721
529;476;458;455;464;480
526;484;458;447;450;476
512;619;682;718;731;718
516;515;528;543;556;558
527;449;405;387;390;418
515;581;618;640;649;651
510;571;617;647;661;649
523;437;396;381;387;416
503;524;531;537;543;558
482;588;658;700;718;706
495;444;429;428;440;459
503;460;436;427;432;460
490;596;659;696;709;698
495;491;502;517;530;534
503;427;384;367;369;398
498;566;602;625;634;636
499;557;600;628;640;628
527;435;390;372;376;402
528;541;542;543;544;556
523;617;678;713;724;707
538;479;455;448;452;465
534;495;469;456;455;478
521;627;690;725;733;716
528;521;530;542;552;552
539;461;418;398;398;423
525;596;635;659;666;665
522;578;622;650;662;650
538;450;408;392;397;423
531;550;557;562;566;578
520;617;681;720;734;720
533;474;452;447;454;471
523;489;467;458;461;487
494;608;676;716;729;716
484;485;500;517;534;540
463;403;372;362;372;405
420;512;569;605;626;636
394;468;526;568;595;597
471;373;330;318;331;369
626;584;557;541;535;543
754;768;772;769;752;716
812;689;611;560;526;510
783;723;666;621;584;572
707;821;877;892;873;826
632;652;672;682;681;663
571;535;519;514;519;539
515;624;695;741;766;771
480;560;629;679;714;717
476;410;390;395;424;471
456;497;524;548;575;607
439;546;624;677;711;717
449;396;381;387;410;445
448;420;405;404;419;458
436;546;614;657;678;674
445;434;442;456;475;488
455;383;343;326;333;367
446;523;567;594;608;613
443;493;535;562;578;573
459;372;331;316;323;355
447;477;490;498;506;520
438;534;600;640;657;646
456;392;369;363;371;391
456;425;406;398;402;426
443;550;616;653;666;651
450;436;442;453;465;470
459;388;348;331;333;361
444;525;572;601;612;612
441;490;531;560;575;567
456;371;330;316;323;354
447;478;493;502;509;522
435;532;597;637;655;643
449;386;362;356;366;385
442;418;402;397;401;426
425;536;604;645;659;647
431;416;423;436;450;458
436;368;331;316;321;351
420;504;553;585;599;601
412;461;502;532;550;545
421;339;301;289;299;333
409;445;463;476;487;501
400;496;562;604;623;613
416;351;326;321;332;354
412;388;373;369;375;400
400;508;575;615;630;617
411;391;395;405;419;427
422;352;312;295;298;328
419;500;545;574;585;584
431;468;500;524;535;527
462;368;319;298;301;328
472;496;503;506;506;511
483;563;615;646;653;632
517;435;396;378;375;386
532;496;468;450;442;454
539;633;685;713;711;684
567;530;517;514;512;506
587;505;453;424;413;428
586;659;697;716;714;699
594;623;648;662;664;644
615;520;468;441;435;453
612;640;649;651;646;644
605;689;745;775;781;756
623;545;509;493;493;503
619;592;572;562;558;571
605;708;769;803;810;786
611;584;580;583;591;593
614;545;503;483;482;506
594;682;731;760;769;764
586;624;658;682;694;686
594;509;467;450;455;485
581;620;639;651;657;667
572;660;721;759;774;760
585;511;481;470;477;498
578;559;545;540;543;565
562;670;736;774;786;771
566;541;540;547;558;567
571;506;468;451;454;483
558;647;699;730;742;740
555;590;622;645;658;655
564;480;437;421;427;457
551;593;614;626;633;642
543;631;692;730;745;730
558;484;452;441;448;470
551;535;523;519;521;543
537;645;711;750;763;747
546;517;514;520;531;541
548;485;446;430;433;463
534;625;678;710;722;720
532;564;595;618;631;628
544;458;416;399;405;435
533;575;597;609;616;624
524;610;670;706;722;706
540;464;431;419;426;448
536;521;509;505;507;528
524;629;694;732;744;729
534;501;497;501;512;522
536;473;435;419;422;451
522;615;670;702;713;709
523;552;582;603;616;612
536;451;408;390;395;424
525;569;592;606;611;619
518;602;661;697;712;695
530;454;420;409;416;437
521;512;503;499;503;523
513;618;685;724;736;722
526;491;485;490;501;511
528;467;430;415;417;446
515;609;664;697;708;703
516;542;570;591;604;600
529;444;401;383;387;417
519;565;588;602;608;615
511;592;650;685;699;684
525;447;412;400;406;429
521;511;501;498;502;521
512;616;680;719;731;716
525;488;479;482;492;503
532;470;432;416;417;445
515;611;666;699;709;702
506;533;561;582;595;592
510;430;391;375;381;411
492;546;575;592;602;610
486;570;629;667;683;670
506;427;392;381;390;415
503;496;488;486;491;512
491;596;662;702;715;701
501;465;457;461;472;485
511;451;416;400;404;433
506;600;655;686;697;690
514;531;553;571;581;577
538;448;401;379;379;405
531;577;599;611;613;615
525;601;654;685;695;675
538;457;419;404;407;428
533;527;519;516;518;533
525;627;691;728;739;722
537;495;485;486;495;505
540;482;447;431;432;460
527;624;681;713;723;715
525;543;566;585;597;594
537;454;411;392;395;422
525;577;605;620;627;631
516;593;648;682;697;680
523;444;409;398;405;429
506;509;507;509;516;535
478;590;662;706;725;713
465;437;437;446;464;483
431;397;380;377;390;429
397;516;591;638;663;668
472;474;492;513;531;538
644;497;415;375;365;389
753;730;702;678;654;637
782;802;804;794;768;719
768;664;596;549;519;508
701;709;698;681;660;649
609;743;823;863;866;834
556;550;564;579;594;602
520;499;495;502;518;553
482;606;689;745;777;782
465;497;537;574;608;624
468;400;372;369;391;438
451;517;558;588;613;634
442;521;581;624;652;652
457;378;346;338;355;393
450;456;457;463;475;503
439;544;612;655;675;670
453;410;398;402;417;437
456;406;377;366;372;405
445;547;607;644;658;653
448;459;479;497;511;514
463;383;341;322;326;355
453;512;544;562;571;575
449;520;572;605;619;605
464;382;344;331;337;362
456;464;464;466;471;488
444;548;616;657;672;659
457;411;399;401;412;428
458;410;383;371;375;405
446;550;612;648;661;653
452;459;477;495;509;510
460;381;339;322;326;355
447;509;544;564;573;578
439;510;562;595;609;598
453;370;334;321;329;356
443;453;456;460;466;485
425;531;600;642;661;648
433;389;378;382;394;412
430;388;362;355;361;392
415;522;587;626;641;634
415;423;443;463;480;484
418;344;306;292;299;330
400;469;507;532;546;552
395;465;518;553;571;562
414;331;293;282;291;321
411;422;425;431;437;455
402;504;571;612;629;616
420;370;354;354;364;381
431;383;354;342;344;373
432;531;589;622;633;620
449;444;455;466;476;474
478;390;340;316;314;337
487;540;566;578;579;575
500;552;589;611;615;595
535;436;385;359;355;372
545;544;536;529;521;525
551;639;692;721;723;697
578;513;483;471;467;470
590;535;497;476;466;480
588;681;734;759;759;734
599;588;592;597;599;589
612;526;476;449;442;459
603;663;693;708;709;700
599;655;696;720;727;707
616;525;479;458;458;479
608;619;619;619;618;626
595;692;754;790;801;782
605;549;528;523;528;540
601;559;532;519;520;543
583;690;752;787;798;781
585;583;594;607;620;620
590;514;472;452;455;482
573;644;683;706;715;716
564;626;673;702;716;706
578;493;452;437;443;473
567;585;592;598;603;619
552;653;719;760;776;763
561;507;488;486;496;514
560;522;498;488;492;519
545;652;716;753;766;753
548;543;555;569;582;586
554;478;436;418;422;450
542;612;652;676;687;689
537;593;637;666;682;671
552;464;423;406;413;443
541;561;568;573;578;593
530;629;693;732;748;735
542;485;464;459;468;485
541;504;481;471;474;499
528;634;697;734;746;732
538;529;536;547;560;563
546;470;427;406;409;435
531;604;645;669;678;679
527;582;626;654;667;656
544;457;415;398;404;434
535;558;565;571;576;589
526;623;687;726;741;727
538;479;456;450;458;476
534;500;479;469;472;496
520;628;693;729;741;726
528;517;526;537;549;553
536;461;419;401;403;430
523;598;640;665;676;676
520;572;614;641;656;647
538;450;408;391;397;426
533;555;563;568;573;586
524;618;681;720;734;720
539;476;450;443;451;468
535;502;480;470;471;495
522;628;692;728;740;723
531;517;522;532;543;546
538;463;420;401;403;429
522;600;643;668;679;678
517;568;608;636;650;641
529;444;402;386;393;423
519;546;559;567;573;585
510;606;669;709;725;712
526;462;437;431;439;457
522;492;472;464;467;491
508;616;681;719;731;715
511;497;504;515;527;532
507;440;402;386;390;418
487;572;621;651;665;666
485;536;579;608;625;619
509;421;380;365;372;404
503;530;542;551;557;571
491;586;649;689;705;692
505;441;415;408;416;435
506;478;457;450;453;476
502;605;667;703;714;698
519;496;496;503;513;517
533;456;410;388;388;413
526;602;643;667;674;670
526;567;601;624;633;622
541;452;406;387;389;416
534;562;573;580;583;590
525;616;677;714;727;710
540;472;443;434;438;454
537;509;490;482;483;503
526;630;694;731;741;724
532;512;514;521;532;536
537;468;428;408;410;436
526;609;656;683;694;692
524;566;603;627;640;632
528;445;404;389;394;425
502;543;563;576;585;597
477;579;648;693;713;702
459;408;392;393;408;433
423;420;420;427;442;473
398;522;601;652;679;675
473;438;436;447;465;479
649;512;432;392;381;402
772;772;759;745;723;698
810;787;767;744;715;675
795;683;605;552;517;511
721;763;770;760;737;717
619;744;820;859;861;828
565;535;532;537;548;562
520;532;545;561;579;607
476;610;702;763;797;795
465;463;484;513;548;573
464;410;387;386;410;458
445;541;604;647;677;694
443;487;528;562;590;601
456;375;337;328;344;388
448;488;510;526;540;560
437;530;595;636;657;651
451;383;355;349;360;386
446;430;418;416;423;449
436;544;611;652;668;657
444;420;421;430;444;455
451;386;350;335;339;370
440;530;583;615;629;628
444;479;512;536;551;546
457;372;330;314;320;351
447;488;508;520;527;536
440;530;591;629;644;629
456;383;352;344;351;371
452;435;423;419;423;444
441;547;613;652;666;650
451;423;421;428;440;448
453;390;354;338;342;371
437;530;585;618;632;629
435;469;502;527;543;540
448;365;324;310;316;348
436;481;503;518;525;535
424;514;576;616;633;619
434;363;333;326;336;359
424;414;406;407;413;435
405;517;587;630;647;634
409;385;386;397;413;426
410;353;321;310;317;350
395;493;552;588;604;605
394;428;462;488;506;506
407;327;287;274;282;316
399;445;469;485;495;506
398;483;543;581;597;584
423;344;309;299;306;328
427;411;399;395;397;416
424;526;589;624;636;619
450;410;401;401;409;417
474;401;358;336;333;357
480;562;608;633;636;625
502;514;531;543;547;535
535;436;380;352;345;365
543;574;585;587;582;576
554;622;667;692;692;663
584;492;444;421;414;422
592;570;548;535;524;530
590;684;738;766;767;738
609;563;546;540;540;538
616;547;504;480;472;489
604;694;744;769;772;755
604;624;646;660;666;653
619;531;484;460;458;480
608;653;674;685;686;685
597;677;732;764;774;753
606;527;489;476;480;499
597;591;581;578;580;596
583;688;753;791;804;786
588;552;544;547;559;569
587;529;495;480;483;513
568;668;726;760;772;767
565;588;614;635;649;648
576;493;451;434;439;469
561;612;639;656;664;671
551;631;687;722;738;723
563;483;447;436;444;467
557;552;546;545;550;569
545;649;714;753;768;754
557;516;506;508;520;533
559;501;467;451;454;484
542;641;700;733;744;738
541;559;583;602;615;614
554;470;427;409;413;442
540;592;620;636;643;649
534;611;665;699;712;697
549;468;429;417;423;446
541;540;535;534;538;555
529;634;700;739;752;738
540;499;489;491;501;515
542;487;454;440;443;473
529;629;689;722;734;726
529;545;567;585;598;597
542;460;417;399;401;430
529;584;613;630;638;642
521;598;651;685;699;683
537;454;417;404;410;434
530;531;527;527;532;549
519;621;687;726;741;726
531;487;475;476;486;500
536;481;448;434;437;465
524;624;683;715;727;718
527;538;557;574;586;585
538;456;411;392;394;422
526;582;611;628;635;638
520;593;645;677;690;674
538;453;413;399;404;428
531;533;530;530;534;549
520;621;687;725;739;724
532;487;473;473;482;496
534;483;452;438;440;468
520;623;683;718;729;719
522;532;551;568;581;580
533;453;409;391;393;422
520;579;611;629;637;641
511;584;636;668;681;668
525;443;405;391;397;423
518;524;524;527;531;548
505;608;675;716;732;717
517;471;458;459;470;484
517;468;440;428;433;461
497;603;666;703;717;707
493;503;524;542;558;561
500;423;384;367;373;403
492;553;587;608;618;624
494;560;609;641;655;643
508;422;382;368;374;401
497;506;506;510;514;530
488;590;656;695;710;696
509;457;441;439;448;463
516;465;433;420;421;449
513;611;669;702;711;698
523;521;533;545;554;553
537;453;406;385;383;408
525;586;617;634;640;639
520;586;632;661;671;656
534;448;407;391;395;419
527;538;539;541;543;556
518;618;683;722;735;720
531;480;462;460;469;483
533;487;459;446;449;474
522;625;687;722;733;719
527;527;540;554;566;567
539;460;415;395;397;423
522;588;623;644;652;654
504;573;624;656;670;658
504;426;391;379;388;417
473;498;510;520;531;551
428;547;627;677;702;696
408;378;378;390;412;440
421;387;371;371;386;424
522;592;638;667;679;670
696;614;576;558;550;539
800;644;541;476;440;441
797;817;806;785;751;718
746;798;819;818;795;749
685;617;577;550;534;536
594;647;673;683;683;685
527;665;759;815;840;825
506;483;492;510;537;562
484;467;466;477;501;542
456;580;663;718;751;756
452;461;487;517;549;570
458;390;358;351;369;416
448;522;567;597;620;637
443;505;555;591;614;615
458;375;337;326;338;377
446;468;477;486;496;519
436;538;605;648;667;660
452;397;379;378;389;410
453;415;393;383;389;417
442;549;614;652;664;653
453;445;456;469;483;487
464;386;344;326;329;357
452;523;562;586;596;598
448;505;549;579;592;582
468;380;338;322;328;358
459;480;487;493;497;512
449;547;612;652;667;654
463;405;384;381;389;406
456;422;401;393;397;423
441;551;617;655;668;654
446;440;452;466;480;484
454;382;342;326;330;359
438;515;559;586;598;600
433;491;536;567;582;575
446;364;324;312;320;351
433;461;473;483;490;507
420;521;589;632;650;640
427;373;354;354;366;386
416;389;374;369;377;405
398;511;581;623;640;630
403;397;410;426;443;451
409;340;303;289;296;328
399;476;522;552;566;570
396;449;493;524;541;535
416;329;288;275;283;315
414;438;447;455;462;477
411;504;567;606;621;609
434;369;343;335;342;359
448;409;383;371;372;393
455;551;608;639;647;627
480;454;451;454;460;459
507;421;369;342;335;355
515;578;610;627;627;617
535;569;594;610;611;592
570;468;411;383;375;392
577;591;589;584;576;574
581;663;714;741;742;715
604;529;493;475;469;474
608;569;540;522;514;523
600;701;758;786;787;759
611;588;587;588;591;586
619;542;495;472;466;484
607;683;724;746;750;742
604;648;683;705;713;699
619;529;483;462;463;489
606;635;646;651;653;661
594;686;748;784;797;780
607;540;512;502;507;523
601;572;552;543;544;565
585;692;756;792;802;785
585;567;571;580;592;596
586;517;477;459;461;489
569;652;701;729;741;740
565;610;648;674;688;683
576;490;447;431;438;470
565;597;612;621;628;641
552;645;709;748;764;751
565;498;470;462;470;489
559;535;518;511;516;539
546;654;719;757;769;754
552;532;535;543;555;562
557;488;448;430;433;462
543;628;676;705;717;717
542;584;620;645;658;652
557;470;426;410;416;446
545;580;596;606;612;623
536;627;689;727;742;729
549;480;451;442;449;468
543;521;506;499;502;523
530;638;704;742;754;738
537;514;515;524;535;542
545;476;436;418;420;449
533;617;667;697;707;705
530;568;602;627;640;634
543;456;413;396;400;431
533;569;585;596;601;611
520;611;673;711;726;711
536;465;434;425;433;452
530;510;495;489;493;514
517;624;690;727;740;724
528;502;500;507;518;527
533;466;426;409;411;440
521;608;659;689;700;699
522;558;590;614;626;621
538;452;407;389;393;423
526;566;584;595;599;608
518;607;668;705;719;703
536;463;431;421;427;445
533;514;499;493;496;516
521;627;692;729;741;724
530;502;500;505;516;523
532;467;430;413;415;443
517;608;661;692;704;702
517;551;583;606;620;616
528;443;400;384;389;420
517;559;579;591;599;607
509;596;656;694;709;693
523;448;416;406;413;434
517;501;489;485;489;509
508;612;678;716;729;714
516;486;482;488;499;508
518;455;418;401;404;433
505;597;651;683;695;692
500;533;564;588;601;598
508;425;384;369;374;406
492;539;562;577;586;595
482;571;633;672;688;674
500;425;394;384;392;416
497;484;474;470;475;496
486;592;659;697;711;696
496;464;460;465;477;488
505;441;404;388;390;420
499;590;642;674;684;679
507;531;557;577;588;583
527;438;391;371;373;400
524;565;583;593;596;600
523;602;656;689;698;678
541;460;422;407;410;427
537;523;510;503;505;519
528;630;693;729;739;720
535;500;492;495;504;512
539;477;440;423;424;450
527;621;674;707;717;709
525;550;576;597;609;604
536;452;408;391;394;422
525;572;595;610;616;622
516;598;656;691;705;688
522;446;414;402;409;433
501;499;496;496;503;523
466;583;658;702;721;709
443;425;432;447;467;486
410;375;359;357;373;414
398;508;578;624;649;656
492;490;506;525;541;545
677;519;429;384;369;389
783;750;713;684;653;633
803;828;831;819;788;737
784;684;617;570;537;524
707;713;702;683;661;649
607;748;831;873;877;843
552;553;573;592;611;618
514;491;486;493;513;550
474;598;681;738;772;781
457;496;542;582;618;636
460;391;363;362;387;436
444;505;543;572;597;621
436;521;583;627;656;656
451;375;344;337;356;392
444;444;442;445;459;487
433;540;609;651;672;665
446;407;401;405;420;440
452;397;365;352;358;392
444;542;600;635;649;644
445;463;486;506;519;519
458;377;334;317;321;351
448;503;532;549;557;562
447;523;577;611;624;609
463;381;345;332;338;361
457;457;453;453;458;475
444;550;616;656;671;657
452;413;404;408;420;434
454;402;373;361;365;396
440;542;604;640;653;647
443;459;482;502;516;517
454;375;333;316;321;351
439;498;530;549;559;564
432;508;563;599;615;601
446;366;330;319;327;354
437;441;441;443;450;469
421;527;596;638;656;645
426;387;379;383;397;416
424;376;349;340;346;380
405;511;575;616;631;626
401;419;443;466;483;487
408;333;294;281;289;322
395;457;492;514;527;535
389;464;520;556;574;563
405;324;289;278;288;316
400;406;408;411;418;437
393;497;565;605;622;610
413;366;353;355;366;382
423;371;340;327;330;359
421;519;576;610;620;610
442;442;456;469;478;476
476;384;332;308;305;328
487;533;554;565;564;560
502;557;595;617;620;596
537;439;387;361;355;369
552;543;530;519;511;514
560;647;700;726;727;699
588;525;497;484;480;481
601;539;498;475;464;479
599;690;740;764;763;739
612;605;611;617;617;605
625;536;484;456;448;465
612;668;695;708;707;699
606;669;712;738;744;721
620;531;487;468;468;486
612;618;617;615;615;624
596;697;761;798;808;789
604;553;536;534;541;553
602;556;527;513;516;541
587;692;753;787;798;785
588;591;606;620;632;633
596;517;473;453;456;483
581;646;680;700;709;711
574;639;687;717;730;716
588;502;461;445;451;478
574;588;591;594;599;614
556;660;727;768;783;770
565;515;500;498;510;527
564;522;496;486;489;519
548;655;718;755;768;758
555;555;568;583;596;600
566;486;442;423;426;455
553;618;653;674;683;686
547;608;655;684;698;685
561;474;433;417;423;451
548;563;568;572;577;592
537;637;703;743;758;745
550;496;477;474;484;500
550;508;482;470;473;500
536;641;704;740;752;739
540;536;548;562;574;578
550;472;428;409;410;439
538;605;643;665;673;675
529;590;637;666;679;667
543;458;417;402;408;436
533;552;558;563;568;583
521;622;688;728;744;731
535;480;461;457;466;484
535;496;472;461;464;491
518;626;691;727;739;727
525;519;531;544;557;561
534;458;416;398;399;427
523;593;632;656;666;667
521;577;621;650;663;652
538;451;408;392;398;426
532;550;556;560;563;577
521;618;682;721;735;721
534;475;454;449;457;473
532;495;471;460;463;488
518;625;688;725;735;721
523;515;524;537;548;551
532;456;414;396;397;424
518;591;632;656;666;666
512;569;611;640;654;643
528;441;399;384;390;420
520;542;550;556;561;575
510;607;672;710;726;712
522;463;441;436;445;462
522;488;465;455;459;484
513;618;682;718;729;714
520;508;516;527;539;542
529;455;412;392;393;420
515;591;632;657;666;667
514;565;607;634;648;638
533;444;402;385;389;419
522;546;557;563;568;579
509;606;671;710;725;711
520;460;437;432;440;458
518;487;467;458;461;486
502;610;675;713;726;712
502;492;500;514;527;533
508;437;397;381;384;414
492;571;617;645;657;660
485;537;579;608;625;619
495;411;372;358;367;399
483;513;527;536;545;560
478;573;637;678;695;684
501;435;408;401;410;429
499;468;447;438;440;464
487;592;656;693;704;688
503;484;486;495;506;510
516;441;396;376;375;401
508;585;626;651;659;657
512;555;591;614;625;614
533;442;397;377;379;405
527;553;563;568;570;577
519;611;673;708;720;703
538;469;441;431;435;450
536;506;485;476;476;495
522;628;692;727;737;718
527;510;513;521;531;534
536;465;423;404;405;431
526;606;651;679;688;686
519;563;601;627;640;632
531;445;404;387;393;422
519;551;567;576;582;593
498;595;661;702;719;706
497;437;415;410;422;443
466;456;448;448;457;485
421;547;626;675;698;690
398;400;420;443;468;486
421;359;328;321;335;374
528;574;602;623;633;635
703;661;642;634;623;602
816;647;541;476;440;442
815;801;767;730;691;663
759;839;877;882;857;806
691;642;615;594;578;569
602;618;624;624;623;630
531;677;772;828;850;832
502;512;542;573;603;618
485;441;427;432;457;500
457;561;631;681;714;732
448;499;549;590;624;638
456;380;348;345;367;416
445;487;512;532;552;577
436;530;598;642;668;667
451;383;357;353;368;398
449;429;418;415;424;454
436;544;611;652;669;659
446;422;423;433;447;460
454;387;349;334;338;370
442;531;582;613;626;626
444;480;514;539;553;549
458;373;331;315;321;352
450;489;507;519;526;536
445;534;594;632;647;632
462;389;358;348;355;375
454;437;424;420;424;445
443;551;617;656;669;654
452;427;426;433;445;454
455;393;356;341;344;374
439;532;587;620;632;630
439;475;509;534;549;546
450;368;328;313;320;351
438;482;504;518;526;537
429;520;582;621;638;624
442;370;341;333;342;365
431;420;412;410;416;439
414;525;594;637;653;640
420;395;396;407;421;434
420;361;327;316;322;355
403;498;556;592;608;608
398;433;467;495;512;512
406;326;288;276;285;320
395;442;467;484;494;506
389;477;539;579;597;585
408;333;302;295;304;327
410;396;385;383;388;410
406;509;573;612;625;610
429;392;384;388;398;409
448;379;336;316;316;343
448;534;582;609;616;607
465;484;505;521;527;517
500;404;351;326;323;344
511;543;553;557;553;551
525;594;640;665;668;640
561;468;421;397;391;401
571;547;524;509;499;505
576;668;720;747;747;717
601;554;535;527;525;523
615;543;495;468;457;473
606;692;739;762;761;743
606;625;645;659;662;647
623;533;484;460;456;475
614;656;675;683;683;680
607;684;737;767;775;752
622;539;499;483;485;501
611;602;591;585;585;599
595;699;763;800;810;791
603;566;557;559;568;578
604;544;508;492;492;519
584;681;738;771;781;774
576;600;627;647;661;658
584;502;461;444;449;479
571;621;648;663;672;679
563;643;699;734;750;734
576;496;460;448;455;479
565;562;556;554;559;578
550;656;723;762;777;763
558;521;514;518;530;545
559;503;470;456;459;491
547;645;704;737;749;744
549;568;591;611;624;622
560;477;434;416;419;449
546;598;626;641;648;654
538;617;673;707;721;705
554;473;435;422;429;453
546;544;539;538;542;560
534;637;703;742;756;742
545;504;494;497;507;521
546;490;456;442;445;476
531;631;689;723;734;728
533;549;571;590;602;601
546;463;419;401;403;433
533;587;614;630;638;642
525;601;655;689;702;686
540;458;420;407;414;437
535;534;530;529;533;551
524;627;692;731;745;730
538;494;482;483;492;507
539;485;452;438;440;469
527;628;686;719;731;722
530;543;563;580;592;591
542;460;416;397;399;427
530;586;615;631;638;642
525;598;651;683;696;680
539;456;419;404;410;433
530;534;532;532;536;552
519;623;689;728;743;728
533;488;476;477;487;501
535;483;451;439;441;470
520;622;682;717;729;720
523;533;551;569;582;582
538;455;411;392;394;423
525;582;612;629;637;641
521;591;642;672;686;671
535;450;411;396;402;427
526;531;530;531;535;551
514;616;682;722;736;722
527;480;466;467;477;491
529;479;449;436;438;466
517;619;679;714;726;715
519;526;543;559;572;573
533;451;408;388;390;418
522;582;613;631;638;640
515;585;635;666;679;663
532;447;407;392;398;423
525;533;533;534;538;553
515;616;682;721;735;721
528;479;464;463;472;488
533;485;454;441;444;471
522;624;684;719;729;718
520;526;542;557;570;570
525;449;408;389;392;420
509;575;611;632;641;644
502;571;623;655;670;657
510;428;391;379;387;415
497;511;516;522;529;547
480;584;654;697;716;704
494;446;432;434;446;464
503;456;428;418;422;452
496;597;657;693;705;695
500;500;513;528;540;543
515;434;389;369;371;398
508;569;602;621;629;630
508;569;614;641;654;639
528;439;395;378;381;406
528;537;536;536;537;549
522;618;680;716;727;710
536;482;461;457;462;475
538;493;464;450;450;475
526;630;691;725;733;718
529;528;540;553;564;563
540;461;417;398;399;424
528;594;630;651;659;658
524;585;632;660;673;659
539;452;410;395;400;427
528;545;550;553;557;571
514;615;681;721;736;722
517;468;451;451;460;478
502;468;448;440;447;476
468;585;656;699;716;707
448;459;482;505;526;536
421;365;340;334;348;386
402;485;537;572;595;608
491;526;560;588;605;600
665;508;423;382;372;393
762;705;653;616;587;578
773;822;839;835;809;764
748;676;630;595;569;553
679;654;627;604;584;583
594;731;811;850;853;824
542;571;606;633;652;650
515;470;453;453;471;504
478;573;637;681;711;724
459;533;596;643;679;684
466;392;365;365;390;436
456;485;502;519;540;571
447;549;620;668;696;697
461;406;389;390;408;438
460;426;407;401;410;445
446;555;622;661;678;671
450;444;455;471;487;496
458;386;347;331;336;368
448;522;565;591;604;608
446;500;544;573;589;582
463;376;334;320;327;360
456;479;488;496;501;516
447;544;608;648;664;652
461;402;379;375;383;402
460;427;405;397;400;425
447;555;620;657;669;655
457;446;454;466;477;481
466;392;351;334;336;363
454;529;573;599;610;610
449;501;544;572;586;577
463;377;337;322;329;359
452;480;493;501;508;521
440;538;605;646;662;650
451;392;371;368;377;397
446;418;400;394;399;425
430;541;608;649;663;650
433;423;432;447;462;468
434;367;330;316;322;352
416;500;548;579;594;597
407;462;507;539;558;553
418;337;300;289;300;334
406;439;455;468;479;495
393;492;559;603;624;615
406;346;324;322;334;357
408;379;362;358;364;392
402;508;572;611;625;613
415;397;400;411;423;430
430;356;314;295;297;324
432;506;548;573;582;580
446;483;516;539;548;538
478;381;331;308;309;334
487;506;510;511;509;515
495;576;629;659;665;643
526;447;410;393;390;400
543;503;473;456;447;459
550;643;695;721;721;693
573;540;530;528;527;520
589;508;457;428;418;433
586;659;696;714;714;700
593;627;655;671;674;655
612;518;467;442;438;457
603;631;640;643;640;641
595;683;740;774;782;759
611;539;506;493;494;506
606;579;559;549;547;563
590;696;759;794;802;782
593;571;571;577;587;590
595;526;486;467;468;494
579;663;712;740;752;749
574;614;649;674;687;680
585;498;456;438;444;474
569;606;623;633;640;650
557;648;711;749;765;752
571;501;471;463;470;489
565;544;528;522;525;548
548;656;722;760;773;758
554;530;531;539;551;560
560;492;453;436;439;468
546;633;684;714;726;724
543;581;615;639;653;648
553;469;426;409;415;446
541;580;599;611;617;627
534;623;685;723;738;723
551;479;447;437;443;464
544;526;511;506;509;530
528;637;703;741;754;738
537;511;510;517;528;537
540;475;437;421;424;452
525;615;668;700;712;709
525;559;593;616;631;626
537;451;409;392;398;428
528;568;587;598;606;615
522;608;667;704;719;704
539;464;430;419;425;445
536;518;503;497;500;520
525;630;694;731;742;726
534;503;499;504;514;523
540;474;435;418;419;447
527;617;669;700;710;706
525;556;587;608;621;615
538;452;409;392;396;425
526;569;590;604;609;616
516;603;663;700;715;698
532;457;423;413;419;440
527;514;502;498;502;521
513;620;686;725;738;723
522;492;488;493;506;515
525;463;427;412;415;444
512;606;660;693;705;701
513;542;571;593;607;603
528;442;399;381;387;416
519;563;585;598;604;611
510;594;653;688;702;686
529;451;416;404;410;431
524;512;501;497;499;518
512;616;681;720;732;716
520;487;480;485;496;506
526;464;427;411;413;442
514;607;662;695;706;700
512;537;565;585;599;596
526;441;397;379;384;414
515;562;586;600;606;613
509;590;647;682;696;680
528;448;411;398;404;426
521;512;502;499;502;520
505;611;677;716;729;713
515;481;474;478;488;500
515;458;424;410;413;442
499;598;656;690;703;698
497;522;549;571;586;584
504;424;384;368;374;404
490;543;571;588;597;605
483;565;623;660;676;662
505;425;388;377;385;409
504;497;488;486;491;510
494;598;662;700;713;699
505;466;458;460;470;482
515;455;419;403;405;434
504;600;656;687;697;690
508;525;548;565;576;573
525;439;393;373;375;402
521;569;591;605;609;612
519;593;644;676;686;667
538;453;413;397;401;421
532;526;518;514;516;531
520;623;687;723;735;718
533;490;479;480;489;499
535;479;444;428;429;457
524;622;679;712;721;712
525;540;562;579;591;588
537;455;411;392;394;421
527;580;608;623;629;633
513;591;646;680;694;677
516;440;406;395;402;426
495;504;505;509;515;535
459;576;652;699;718;708
440;416;419;432;452;474
410;379;366;365;382;422
454;547;607;646;667;667
594;555;546;548;553;549
712;563;473;422;401;412
742;748;732;712;685;663
722;771;793;795;776;732
692;609;560;528;510;509
620;644;649;647;639;639
551;684;769;817;833;812
527;509;519;535;556;572
504;475;464;469;488;526
477;594;671;723;752;756
472;493;526;556;585;600
479;405;371;363;380;423
465;528;566;592;611;628
458;533;588;626;649;645
470;390;355;345;358;392
462;471;473;478;487;510
453;557;625;668;687;678
468;422;410;413;425;444
471;422;393;383;387;418
458;562;623;660;674;665
463;471;490;507;521;523
474;394;353;335;339;368
462;524;558;577;587;591
461;529;579;612;625;613
476;392;353;340;346;373
471;479;479;482;486;502
458;561;627;668;683;670
473;423;409;409;420;436
475;429;399;387;391;419
461;565;627;663;676;665
461;467;485;501;516;517
468;390;349;332;337;367
449;515;553;575;585;590
441;511;563;597;612;601
458;375;337;325;333;362
448;461;465;471;477;495
433;538;606;648;665;654
441;395;382;384;396;414
434;395;371;364;371;401
417;527;594;634;649;641
417;424;443;463;480;486
425;351;313;298;305;337
413;481;520;544;557;564
407;474;525;559;576;567
424;341;303;291;300;331
420;435;439;445;451;468
418;516;581;622;637;625
437;383;364;362;370;387
445;399;371;359;360;386
444;544;603;637;647;631
461;454;462;473;482;481
493;403;354;329;325;348
503;556;582;596;598;593
518;564;599;619;623;602
546;447;394;370;365;383
553;556;550;544;537;541
558;645;699;728;730;705
583;516;486;473;470;475
590;540;506;485;477;491
583;681;736;763;765;740
595;583;586;592;595;587
609;525;475;449;443;461
597;662;695;711;714;706
592;647;687;713;720;702
604;516;472;453;454;477
592;611;615;619;619;629
578;677;741;779;792;775
591;533;512;507;514;528
590;550;525;514;515;539
577;682;744;779;789;773
579;572;581;593;604;606
585;509;468;448;449;475
570;642;682;705;715;716
561;618;662;691;705;695
572;487;446;431;438;468
560;582;591;598;603;619
545;645;710;751;767;755
555;497;477;475;484;502
553;517;495;486;491;517
541;647;711;747;760;747
545;536;544;556;569;573
550;476;434;416;418;447
533;609;652;677;688;689
530;583;626;655;669;661
546;458;416;400;407;438
536;560;569;575;580;594
525;622;686;725;740;728
540;479;455;449;457;475
538;505;483;474;477;500
525;632;697;733;743;728
535;521;528;539;550;553
542;468;427;407;409;434
530;606;649;674;684;684
526;576;618;644;658;648
543;455;412;396;401;431
532;558;568;576;581;593
519;617;681;721;735;722
534;472;447;441;449;467
531;501;480;472;476;499
520;625;689;726;738;723
526;510;516;525;537;541
534;460;419;400;402;429
519;598;643;669;680;679
516;564;604;630;644;635
532;445;402;386;392;422
525;553;563;571;576;588
517;610;672;710;725;711
532;466;439;431;438;455
532;502;482;471;475;496
518;624;688;724;735;719
527;509;512;520;531;535
532;461;421;401;402;429
517;599;646;673;684;683
513;559;598;624;637;630
529;443;400;385;389;419
520;551;565;575;580;591
512;606;668;707;722;708
528;461;433;425;432;451
524;498;480;473;475;498
511;618;683;720;731;716
521;500;503;511;523;528
526;456;416;397;400;427
511;595;643;672;683;682
505;548;586;613;627;621
521;435;392;376;383;414
508;543;559;569;575;587
494;588;652;692;708;695
498;434;409;403;413;433
492;472;459;455;461;485
487;592;659;697;712;698
500;476;476;484;498;504
506;436;396;377;380;409
493;577;627;656;668;666
494;532;567;591;604;598
515;426;381;364;367;398
511;544;558;567;570;579
509;596;654;690;702;685
531;456;422;409;412;429
529;505;487;478;477;495
520;623;686;721;730;711
530;503;500;505;514;518
534;466;426;407;407;432
521;608;658;687;697;693
523;558;591;613;625;617
539;452;408;390;393;421
527;565;583;593;598;606
520;608;668;706;719;703
534;461;428;418;425;444
529;511;496;490;493;513
512;619;684;723;736;720
507;485;486;495;509;518
494;437;406;392;399;430
454;558;621;659;678;679
428;478;523;557;581;584
418;352;323;318;336;377
457;491;511;528;541;559
598;629;657;676;680;662
738;587;502;455;434;436
776;703;640;594;559;551
740;823;857;861;836;788
693;669;657;644;628;610
621;585;561;543;534;545
546;673;751;795;809;799
509;570;625;666;693;692
500;439;418;420;443;484
475;536;575;606;631;654
455;554;628;680;712;714
465;399;377;378;400;436
458;452;448;454;471;504
446;556;626;672;696;692
456;427;426;436;455;476
458;398;365;353;362;399
445;540;597;632;649;652
448;476;506;530;546;548
463;379;336;321;328;361
454;499;522;537;545;556
446;531;589;626;641;627
465;387;353;342;350;373
461;451;441;438;442;462
450;555;621;660;674;658
463;428;422;426;438;449
468;407;372;356;359;388
458;552;608;640;652;646
461;485;512;532;545;541
473;391;347;330;334;363
463;512;536;551;557;563
456;539;596;632;646;630
469;392;358;347;354;376
461;456;450;450;455;474
447;554;621;663;678;664
454;421;417;422;435;449
450;396;366;354;359;392
432;534;596;633;648;645
429;455;485;510;526;527
439;360;321;308;315;348
423;478;507;527;537;547
412;497;556;595;612;600
429;352;318;310;319;346
419;418;415;417;424;446
408;514;582;624;642;630
420;383;377;382;396;412
425;369;337;324;330;362
416;514;571;607;620;616
425;441;464;483;496;496
449;362;316;297;299;328
452;497;519;532;536;539
459;528;576;606;614;595
490;400;355;338;337;355
504;491;477;468;464;475
513;603;658;688;693;670
541;487;466;458;459;462
561;493;449;424;416;433
562;650;698;721;720;701
576;579;591;598;600;586
600;506;453;425;417;433
596;642;661;669;665;658
593;661;707;733;735;710
612;523;479;458;456;470
607;603;594;589;586;594
596;695;756;790;799;777
609;561;545;542;548;555
609;553;519;501;500;524
591;691;749;781;790;777
590;601;619;635;646;643
597;515;471;451;453;480
581;639;669;687;692;696
571;645;697;730;742;727
586;501;463;449;455;479
577;580;578;580;584;600
562;664;730;769;784;770
571;526;513;513;525;539
569;519;490;477;480;510
552;656;718;754;766;757
552;562;582;599;612;614
560;482;440;422;425;454
545;607;640;660;668;673
539;610;662;695;709;696
556;471;432;418;424;451
549;556;555;557;561;577
537;639;705;744;759;745
550;502;488;486;496;511
553;503;474;460;463;491
541;644;704;739;750;739
545;549;564;579;591;593
554;473;430;410;412;440
541;602;635;654;662;664
534;601;650;681;695;680
546;462;422;407;413;439
539;549;550;553;557;572
527;628;694;733;748;734
538;489;473;471;482;497
537;491;463;452;456;485
526;629;691;728;739;728
530;531;545;562;574;575
542;462;417;399;401;429
530;594;628;648;656;659
524;590;636;667;680;667
537;453;412;397;403;430
529;543;546;549;553;568
519;620;686;725;740;726
535;482;465;462;472;486
535;491;464;452;454;481
521;627;689;724;736;722
524;524;538;552;564;566
533;456;413;395;397;425
520;588;624;646;655;657
515;578;625;656;668;657
531;445;403;389;394;423
521;537;542;546;550;566
509;609;675;715;730;717
523;468;450;447;457;473
522;481;456;445;448;475
511;615;678;714;726;713
517;513;523;537;550;552
526;449;405;387;389;417
514;583;619;642;651;653
509;568;613;642;656;644
523;437;395;380;386;414
514;532;539;544;548;562
504;604;668;708;723;709
515;461;441;438;447;464
512;476;452;443;447;472
499;607;672;709;721;708
506;501;511;524;537;541
510;437;397;379;382;410
486;562;606;633;644;647
476;538;586;619;636;627
493;409;370;357;367;399
488;510;519;526;533;549
483;579;644;685;701;689
496;438;417;412;421;440
498;461;436;427;430;456
495;598;659;694;704;690
512;497;501;511;520;522
530;449;401;379;377;401
524;592;627;648;653;650
524;573;610;635;643;629
544;453;406;387;388;412
535;557;562;566;568;576
525;619;681;718;730;713
538;477;452;445;451;465
538;502;479;468;469;492
523;629;693;728;739;721
530;518;524;534;545;547
540;466;423;404;404;430
527;603;645;670;679;678
520;572;613;641;654;644
528;444;403;389;395;424
503;536;552;562;571;584
477;582;653;697;717;707
463;416;402;404;419;443
431;419;414;417;431;463
397;522;603;653;679;674
437;422;432;450;472;486
578;459;391;361;357;384
721;718;707;698;682;665
791;768;748;730;704;664
799;673;588;533;497;492
739;763;757;740;712;691
643;763;833;866;864;826
581;555;553;555;562;569
534;540;548;558;574;597
491;625;716;774;805;799
476;481;506;536;569;591
472;416;392;392;414;461
451;543;602;644;673;691
442;496;543;581;610;620
455;375;340;332;350;394
446;482;500;516;530;554
437;533;600;643;666;661
454;390;365;360;372;398
456;430;414;409;416;443
446;553;618;657;672;659
455;436;439;448;461;470
461;393;354;338;340;370
450;535;583;612;624;624
448;491;530;556;570;565
462;378;336;321;327;358
451;487;504;516;523;534
441;533;598;638;655;642
456;388;361;354;364;383
454;431;415;410;416;439
443;550;615;653;667;653
452;429;431;440;452;460
458;390;351;334;338;367
448;533;582;612;624;623
444;484;520;545;559;553
455;371;330;315;321;352
440;480;499;512;520;531
428;521;586;627;644;630
439;372;346;340;350;372
433;417;405;402;409;432
416;527;596;638;654;642
418;399;403;415;430;441
417;357;324;312;318;352
399;493;549;584;601;603
394;437;475;504;522;521
409;327;289;277;287;321
403;444;465;480;489;502
398;487;550;590;607;594
419;346;316;307;315;337
421;401;387;383;387;408
416;520;583;621;633;618
439;405;400;403;413;421
459;385;342;321;320;346
463;543;587;613;619;611
484;505;526;542;547;536
522;422;366;340;335;356
533;559;566;567;561;559
546;617;662;687;688;660
579;489;443;419;412;419
589;560;535;517;506;513
587;681;735;762;761;730
605;564;549;544;543;539
619;545;498;472;463;479
610;695;740;763;763;748
611;636;659;673;677;663
623;534;486;463;460;481
611;652;671;679;680;680
604;686;742;774;783;761
617;539;503;488;491;507
605;593;582;576;578;593
587;695;761;798;810;791
594;562;557;562;573;581
595;534;498;482;485;514
579;673;729;762;773;769
577;604;632;653;667;664
588;503;459;441;446;477
574;620;643;657;664;671
562;645;704;739;753;739
576;497;462;450;458;481
564;556;548;545;550;570
551;657;723;763;776;762
559;525;518;522;534;547
562;502;467;451;454;486
547;643;700;732;744;739
548;572;597;618;631;628
559;475;431;414;418;448
546;595;620;634;641;648
535;618;675;711;725;709
551;472;437;425;433;455
542;537;530;528;534;551
531;636;703;742;756;741
541;504;496;499;510;524
544;486;452;437;440;472
530;628;685;719;730;725
530;551;576;596;608;607
540;458;415;398;401;431
527;580;607;623;631;636
522;601;657;692;706;690
539;458;421;408;415;438
532;527;521;520;525;543
519;623;689;727;742;728
531;490;481;483;494;507
532;476;443;428;431;462
517;616;675;709;720;715
519;536;559;578;591;590
532;449;405;387;390;419
522;575;602;619;625;630
516;591;644;678;691;675
531;449;411;398;404;426
524;523;518;517;522;538
512;616;681;720;735;720
525;483;472;473;484;497
528;474;442;428;430;460
515;615;674;708;719;712
517;531;552;570;582;581
528;447;404;385;388;416
514;571;601;619;627;631
509;583;636;669;684;669
526;443;406;392;398;422
519;521;518;519;523;540
510;612;678;717;731;716
524;479;466;467;476;490
525;473;441;428;431;461
513;614;672;707;719;709
515;525;544;560;573;572
527;445;401;382;385;413
513;572;602;621;629;633
504;576;629;662;675;660
519;435;397;384;390;415
511;516;516;517;522;539
497;600;668;708;724;710
510;463;451;451;462;478
507;459;431;419;423;452
492;596;658;695;708;700
489;500;520;539;553;556
493;418;378;362;367;398
480;544;579;601;611;617
478;548;599;632;648;636
500;414;375;361;369;395
496;502;502;503;508;524
486;587;652;691;705;691
506;454;437;435;445;460
516;464;432;417;418;445
511;609;667;700;709;695
519;519;531;544;553;552
533;450;404;382;380;405
525;584;615;632;637;636
522;585;631;660;669;653
540;451;409;391;394;417
534;542;542;541;543;555
522;622;686;724;737;720
535;482;465;462;470;484
538;491;462;449;451;476
528;630;690;724;734;722
532;532;544;558;568;569
541;461;417;398;399;424
520;588;624;646;654;656
500;570;621;654;669;658
497;422;388;377;387;418
460;490;505;517;528;549
413;536;618;670;696;693
404;372;372;385;408;436
449;403;381;377;389;425
584;636;668;689;692;678
742;656;611;588;571;555
820;670;568;503;464;459
799;830;825;806;771;736
738;797;825;829;808;762
663;605;573;552;541;546
577;635;666;680;686;691
521;656;750;809;838;827
506;478;485;503;532;559
486;467;463;474;498;541
457;579;660;714;747;753
457;463;487;515;546;567
463;394;360;353;369;414
446;522;567;599;620;637
440;503;553;589;612;613
455;372;334;323;337;376
445;467;478;486;496;519
436;536;603;646;665;658
451;396;377;376;387;409
454;417;394;385;390;419
445;551;614;652;664;652
452;446;455;470;482;486
463;388;346;329;331;358
451;525;565;590;600;601
446;504;548;578;591;582
460;376;336;323;330;358
453;476;486;493;499;513
444;543;608;649;665;652
460;401;380;376;385;403
459;424;403;394;398;423
442;551;616;655;668;653
447;439;449;463;477;482
454;381;341;325;328;357
437;514;559;586;599;601
429;485;530;561;577;569
441;358;319;306;316;348
427;455;469;479;488;504
411;512;581;624;643;633
419;363;345;344;357;377
414;386;370;365;372;402
397;509;576;619;635;625
402;393;405;419;436;444
405;336;299;286;292;323
389;470;519;549;563;568
386;439;484;516;533;527
406;321;282;268;277;310
402;429;442;451;459;473
401;495;558;597;613;601
426;359;332;325;331;349
441;404;380;369;368;390
446;544;601;633;639;620
473;447;442;446;450;449
501;417;365;338;331;351
512;577;610;627;626;616
529;561;588;603;604;584
564;462;407;379;371;388
572;586;585;582;574;572
575;656;706;734;736;708
601;523;484;466;461;466
606;568;539;521;512;523
601;698;754;781;781;755
614;587;582;583;584;578
622;545;497;472;465;483
609;687;728;750;753;744
604;645;678;700;707;692
619;529;483;463;464;487
604;635;648;654;657;663
591;683;745;781;794;776
601;534;505;496;502;518
596;572;554;546;548;569
581;688;753;790;800;784
587;565;567;575;585;591
590;520;481;463;464;492
570;656;706;736;747;746
562;606;643;669;684;678
574;489;448;432;440;471
559;596;614;625;633;645
550;642;705;744;760;748
563;494;465;456;464;486
557;536;520;515;519;543
540;647;713;752;766;752
547;524;524;532;544;553
556;487;446;429;431;461
542;628;677;707;719;717
541;577;610;634;647;642
555;468;425;407;412;442
544;581;598;608;614;623
533;622;684;721;736;720
549;476;445;434;441;461
546;525;510;504;507;528
531;637;701;740;752;736
542;514;511;518;528;537
547;480;440;424;425;453
532;622;673;704;714;711
530;565;597;621;634;628
542;457;415;398;403;433
530;572;592;603;610;619
521;610;671;708;723;708
539;464;432;421;429;449
533;517;504;499;503;523
523;628;693;732;743;728
532;503;499;505;516;525
534;471;433;416;418;447
519;612;665;697;708;705
518;550;580;604;618;613
531;446;403;387;393;422
521;563;584;597;603;612
513;599;659;695;709;694
531;454;420;408;415;436
526;511;500;495;498;518
510;616;682;721;734;718
520;488;484;490;501;512
526;462;425;408;411;441
512;605;660;691;703;699
511;539;568;589;603;599
524;440;397;379;383;413
517;561;584;596;602;609
510;593;652;686;700;683
524;447;413;400;407;428
516;507;498;495;498;517
507;612;678;716;729;714
518;484;477;482;493;503
525;463;426;410;412;441
510;605;661;693;704;700
507;533;561;582;595;592
518;435;394;377;382;411
504;553;579;595;602;610
493;577;636;673;688;673
509;430;396;386;394;418
498;493;486;485;491;512
480;587;656;697;713;700
484;452;447;454;468;483
492;434;400;387;392;425
487;581;637;671;683;679
493;511;534;554;566;564
501;418;374;356;359;389
494;543;567;581;587;592
495;571;624;657;669;652
522;435;394;379;383;403
526;514;502;496;495;510
522;621;681;716;724;704
538;495;480;479;484;492
542;482;444;426;423;448
527;625;680;712;719;707
524;544;566;584;595;589
535;453;411;391;394;419
527;579;605;620;626;629
523;599;653;685;698;682
540;456;418;404;409;430
531;529;524;522;525;542
521;625;690;728;741;725
531;491;480;482;492;504
522;471;440;427;430;459
489;598;663;701;716;710
467;495;526;551;570;574
447;383;354;346;359;395
404;480;526;557;578;593
403;489;554;599;625;621
526;411;358;340;348;376
687;611;558;528;512;518
775;801;806;800;776;736
797;706;647;605;573;553
759;693;636;593;560;555
672;791;850;873;862;826
592;640;680;703;710;694
546;503;487;485;497;523
503;591;649;687;712;724
472;569;645;699;733;734
472;406;387;392;419;462
456;474;487;504;527;563
444;555;631;683;714;717
456;416;410;419;442;472
456;410;384;378;391;432
443;549;613;653;672;672
449;459;479;499;516;525
464;384;342;325;331;364
454;514;546;566;576;583
450;520;570;604;619;607
467;382;343;330;337;364
459;467;468;470;476;493
449;551;617;658;673;661
462;415;401;401;412;428
464;416;387;375;379;408
452;555;617;653;666;657
457;462;479;495;508;510
468;388;345;327;331;359
457;519;553;573;582;586
454;520;570;601;615;602
468;384;344;330;337;362
458;471;473;477;482;497
445;550;616;658;674;660
459;411;396;397;407;424
456;413;388;378;383;410
438;547;612;650;664;654
437;443;462;481;496;500
441;368;330;314;320;351
421;492;533;558;571;577
413;483;536;571;589;581
423;343;308;298;308;340
412;430;438;446;455;475
400;504;573;617;636;628
413;363;348;351;364;385
411;370;347;340;346;378
397;505;570;609;624;615
407;406;420;437;452;456
425;345;301;284;288;317
422;486;520;541;550;552
431;486;528;555;567;553
460;367;320;300;303;327
469;476;474;472;471;481
479;566;622;655;662;640
513;444;415;403;402;409
533;478;441;421;413;428
540;632;682;707;706;681
563;543;542;544;544;533
588;497;442;412;401;415
587;645;672;684;681;668
590;638;672;691;693;669
611;516;465;441;436;453
607;620;620;617;612;615
600;693;752;783;789;766
614;552;526;517;518;526
610;570;543;529;526;543
598;703;762;796;802;782
606;594;600;609;617;615
611;533;488;466;466;489
594;666;705;727;735;732
587;641;684;710;723;710
599;511;469;451;456;484
587;609;617;623;626;639
571;669;734;773;788;775
581;522;500;496;504;521
577;543;520;511;514;540
561;669;733;769;781;767
565;555;563;574;586;590
571;497;456;437;439;467
555;631;674;699;710;711
546;600;644;672;687;678
558;473;433;417;425;456
548;574;586;594;600;615
539;635;700;740;755;744
552;490;466;461;469;488
547;515;495;487;490;515
534;641;706;743;755;741
542;528;534;544;556;561
552;478;435;416;418;445
537;615;658;684;695;693
533;582;622;648;662;653
547;460;417;400;406;436
539;566;577;584;589;602
530;623;686;724;739;726
544;480;453;445;452;471
542;511;490;482;484;506
531;636;699;734;745;729
540;522;524;532;543;547
545;472;431;411;413;439
531;610;655;681;692;689
528;573;611;636;649;641
542;454;411;394;399;429
530;561;574;582;587;598
520;614;676;715;729;715
536;471;442;434;441;459
536;508;488;480;481;503
526;630;693;729;739;723
532;512;513;521;531;535
538;468;427;407;408;434
524;607;654;680;691;688
522;565;601;626;639;630
533;448;406;389;394;423
519;554;570;580;586;596
509;602;665;704;719;705
528;460;431;422;429;448
526;501;483;476;479;500
513;619;682;720;732;715
519;497;498;505;517;523
522;455;416;398;400;428
508;593;642;673;685;682
508;548;582;606;621;614
519;434;392;375;381;412
506;544;561;572;578;589
490;583;647;687;703;689
498;432;406;400;408;429
497;477;463;460;465;488
489;595;660;698;711;697
500;475;474;481;493;501
503;438;399;383;386;414
493;580;631;661;673;671
500;534;566;589;601;596
520;431;387;368;371;400
516;551;567;575;578;586
513;597;655;690;701;683
532;456;422;409;413;430
532;511;494;486;487;503
523;626;688;723;733;713
534;504;500;503;511;517
539;473;434;414;414;440
525;613;665;694;704;698
523;555;586;608;620;613
535;450;407;390;394;422
523;564;585;597;603;611
517;602;661;698;712;696
534;458;425;414;420;440
527;512;499;494;497;516
501;612;679;718;733;717
497;474;476;484;498;510
479;427;399;388;397;430
434;544;611;652;672;676
397;450;498;535;561;567
418;345;315;309;326;367
531;538;541;547;553;564
678;688;698;704;696;668
779;631;541;487;457;452
785;729;674;630;592;578
731;827;870;879;856;807
671;655;651;644;634;619
597;570;553;543;541;556
528;658;741;790;810;803
495;552;606;648;678;682
487;426;405;408;433;477
465;527;568;600;627;651
453;545;615;665;698;700
465;394;367;367;388;426
459;453;450;455;470;502
445;553;623;668;689;685
457;424;419;428;445;465
461;403;370;357;364;400
451;547;604;638;654;652
454;477;504;525;540;540
468;385;343;325;330;361
459;507;532;547;555;562
452;533;589;625;640;625
467;388;354;342;349;373
461;456;450;449;453;472
451;557;623;663;677;662
463;426;419;423;435;447
464;408;376;362;366;396
452;551;609;643;656;651
455;476;502;522;535;533
467;384;343;326;331;360
451;506;534;550;558;565
442;523;581;617;632;617
457;379;344;334;343;367
456;453;448;448;453;472
442;548;614;655;670;656
448;411;404;409;421;436
448;396;366;354;360;391
431;533;594;631;646;641
427;448;474;496;512;513
432;355;317;303;310;342
415;474;507;528;540;549
405;486;544;582;600;588
415;339;307;299;309;337
409;413;411;416;424;446
398;504;572;615;633;622
413;371;362;367;381;398
419;366;334;323;328;360
415;514;573;607;619;613
429;439;457;474;485;485
453;366;320;299;298;325
455;504;529;542;545;545
466;531;576;604;611;591
502;408;360;339;338;356
515;505;491;483;479;487
523;612;666;696;699;675
555;496;471;461;459;462
574;508;466;441;432;447
576;664;713;735;735;712
592;589;596;602;602;589
612;519;465;436;427;443
608;658;679;688;684;675
605;667;711;734;737;712
622;532;486;464;462;477
615;617;610;606;603;610
604;702;763;798;806;785
612;562;545;541;547;556
608;559;528;513;513;537
594;696;755;789;798;784
597;601;616;631;642;640
607;525;480;459;460;487
592;652;684;701;708;710
581;650;699;729;741;727
590;507;468;453;459;485
578;589;591;594;599;614
563;666;734;774;790;775
568;522;508;509;521;537
566;522;496;486;491;519
553;657;721;757;770;760
553;558;574;590;605;608
560;483;441;423;427;458
548;612;648;669;679;683
542;607;655;687;702;691
557;472;432;418;423;452
545;558;561;565;570;586
533;634;700;740;755;743
546;494;477;476;485;503
545;501;474;463;466;494
531;636;699;734;746;734
534;534;548;562;575;578
542;464;422;403;406;434
528;595;631;654;663;666
524;586;633;664;678;666
543;456;414;398;404;433
535;548;552;556;560;575
523;622;687;726;740;727
536;482;463;460;469;485
537;496;470;459;461;487
524;630;693;728;739;725
528;525;537;551;563;565
534;459;417;399;401;428
523;592;630;654;663;664
520;579;624;654;667;656
539;452;409;393;399;428
529;547;552;557;561;575
523;620;684;722;737;723
537;480;460;454;462;478
534;496;472;461;463;488
520;626;689;726;736;722
528;520;530;543;555;558
536;459;416;398;400;428
523;594;633;656;666;667
517;573;617;646;661;649
534;447;405;390;395;425
524;545;552;557;562;576
515;612;676;715;730;717
529;470;448;443;451;468
520;486;464;455;459;485
498;608;675;713;726;713
496;492;505;519;534;540
502;432;393;377;383;412
498;572;614;639;652;654
495;549;591;620;635;626
509;424;383;368;375;405
499;524;534;542;548;561
495;590;654;694;710;696
515;452;427;420;429;446
522;484;460;449;451;474
515;618;679;712;721;704
525;510;513;522;531;532
536;460;415;395;393;417
527;601;642;666;672;670
526;572;612;637;648;637
541;452;408;391;394;422
532;557;566;572;575;586
523;617;679;717;731;716
536;472;446;439;445;462
532;501;481;471;473;495
521;627;690;727;738;721
529;513;517;527;538;542
537;464;422;402;404;430
518;598;644;671;682;681
504;556;598;626;641;635
507;428;389;376;385;417
468;512;534;550;561;578
422;538;616;667;692;687
404;363;357;364;386;415
424;402;393;396;411;446
540;605;648;676;687;673
710;611;562;538;526;517
801;655;555;492;455;454
787;828;830;816;785;749
738;775;792;790;768;727
672;608;569;544;530;536
584;654;690;708;711;710
522;651;742;799;825;812
504;466;465;479;505;533
478;476;481;496;521;559
453;575;658;714;748;752
455;445;460;483;514;539
457;396;365;359;377;422
441;530;585;623;647;661
439;484;524;556;579;585
455;372;332;320;332;372
449;484;502;515;525;543
439;532;595;636;654;646
456;388;360;353;362;385
451;431;416;412;418;442
438;547;613;652;667;653
449;427;429;438;451;460
458;391;353;336;339;368
447;534;584;614;627;627
445;484;519;545;559;554
459;376;334;319;324;355
449;488;507;520;526;537
440;532;594;633;649;635
456;386;357;349;357;377
454;435;422;417;422;444
443;549;615;654;668;652
451;427;427;434;447;456
454;390;353;337;341;370
435;527;581;614;627;626
430;468;504;531;547;544
441;359;320;307;314;347
430;473;494;509;519;530
417;509;572;613;630;618
428;358;331;324;334;358
415;404;396;396;403;427
400;511;581;623;640;629
405;381;384;394;409;423
405;345;313;301;308;341
389;485;542;578;594;595
389;424;459;486;503;503
406;324;283;271;278;311
401;444;465;481;489;500
398;484;543;581;597;582
424;346;311;300;307;328
434;415;400;393;395;414
440;537;596;630;640;621
470;427;415;414;419;424
496;421;373;349;343;366
505;584;627;648;649;636
526;539;555;567;567;552
557;459;403;374;366;383
563;595;604;607;599;593
571;641;686;711;711;682
600;509;463;440;433;441
602;581;560;547;539;544
596;692;748;777;780;751
613;570;556;551;553;552
621;552;510;486;480;498
610;699;749;775;778;764
614;632;653;668;674;663
624;536;489;467;465;489
608;655;676;688;689;690
594;676;732;765;776;757
605;527;491;478;483;502
592;587;580;577;581;598
579;685;751;789;804;787
586;550;543;546;559;570
584;527;494;479;482;512
566;665;724;758;770;765
566;588;614;635;649;647
575;493;451;434;439;469
562;614;640;656;663;671
556;635;690;725;740;725
567;487;451;439;446;470
562;557;550;549;554;572
547;651;717;756;771;756
556;517;508;510;522;536
557;501;468;452;456;487
539;639;698;732;745;739
536;556;580;600;614;614
552;469;426;409;412;442
540;592;620;636;643;649
531;608;662;697;710;695
546;464;427;414;420;444
539;538;533;532;538;555
527;631;697;735;750;735
542;498;488;488;498;512
543;488;455;441;444;473
529;630;689;722;733;726
530;545;567;584;596;595
539;459;416;399;401;430
527;584;613;631;638;642
521;596;648;683;696;681
537;455;416;404;409;433
530;532;528;530;534;551
518;621;687;726;741;727
531;487;474;475;486;500
532;481;449;435;439;468
517;619;680;714;727;718
520;530;550;567;580;581
532;450;407;388;391;420
519;577;607;625;633;637
516;586;637;669;682;667
532;447;408;393;399;423
526;530;528;528;532;548
514;616;682;720;734;719
522;477;464;464;475;489
515;468;441;429;433;463
494;601;665;703;717;710
495;505;525;545;560;563
508;429;387;370;375;407
495;557;591;612;621;626
485;557;609;643;658;646
501;419;380;367;375;402
499;506;507;510;515;532
497;595;659;698;713;699
521;467;448;445;453;468
528;476;444;429;428;454
518;618;676;709;717;703
526;526;539;552;561;559
537;456;410;389;388;413
527;589;620;638;643;643
524;589;634;664;675;659
538;451;410;394;398;422
531;541;542;544;547;560
520;620;685;723;738;721
536;483;465;462;471;485
533;488;461;448;450;478
520;624;686;721;733;720
522;523;537;552;565;566
531;453;410;392;394;423
514;581;618;640;649;652
496;564;615;648;662;652
493;416;382;373;382;412
459;487;502;514;525;546
415;535;616;667;693;688
399;368;368;380;403;431
430;390;372;369;383;420
555;613;651;675;682;669
721;635;592;570;557;542
816;661;558;491;452;450
802;828;819;798;763;728
745;799;823;824;801;754
675;613;576;553;539;542
583;641;671;685;688;691
519;657;752;811;838;825
500;476;484;503;532;559
479;462;461;472;498;540
452;575;657;712;746;751
451;457;481;509;541;563
455;387;355;348;366;413
441;517;563;595;618;635
438;499;547;582;606;608
455;370;332;320;333;373
448;469;478;487;496;518
439;538;604;645;664;656
454;397;377;375;384;406
452;417;395;387;391;419
441;549;613;652;664;652
450;442;452;465;478;483
464;389;347;328;330;358
454;527;568;593;601;602
450;505;548;577;590;580
464;379;338;324;330;359
456;481;491;498;504;517
444;543;609;650;667;653
457;399;378;375;384;402
455;423;404;396;400;425
442;551;616;655;668;654
448;439;448;460;475;480
455;384;344;327;331;359
439;517;562;589;602;604
431;485;530;560;576;570
441;359;320;307;316;348
432;460;474;484;493;508
419;517;584;626;646;635
428;369;349;347;358;380
420;393;377;373;380;406
399;512;582;624;640;628
402;393;404;420;437;445
409;341;304;290;297;329
393;476;524;556;570;575
392;442;485;516;534;528
413;327;286;273;281;314
407;436;449;459;467;481
405;498;560;600;617;604
428;361;334;326;334;351
438;405;382;372;374;395
443;542;601;633;642;624
474;445;440;443;449;448
507;421;369;342;334;355
520;584;616;632;632;621
539;568;591;605;605;585
572;470;413;384;376;392
578;596;597;593;584;581
582;661;711;738;740;711
605;526;488;468;464;468
608;573;545;528;521;530
600;699;756;784;786;759
611;583;578;579;582;578
618;544;498;474;468;487
607;686;729;753;757;748
603;641;674;695;703;690
617;527;481;461;462;487
605;638;651;658;660;666
592;682;743;779;792;774
603;533;503;492;498;514
594;572;556;549;552;571
576;684;750;788;799;784
584;560;561;569;580;586
590;521;481;464;466;493
572;660;709;739;750;748
563;605;640;666;680;674
572;488;447;431;438;469
560;599;618;630;637;648
550;641;704;742;759;745
564;493;463;454;462;483
562;542;526;521;524;547
549;655;720;758;770;756
557;529;528;535;546;555
562;494;455;437;439;469
544;633;684;716;727;725
537;574;607;632;646;641
551;465;422;407;412;443
541;580;599;611;618;627
531;619;680;717;732;718
544;471;440;429;436;458
536;520;508;503;507;529
526;632;697;736;749;734
537;507;504;509;520;530
544;478;438;422;423;453
530;621;673;705;715;711
527;560;591;613;625;621
541;456;413;395;399;430
533;576;595;607;613;620
528;613;672;707;721;704
542;467;433;421;427;447
537;523;511;506;509;528
525;631;696;735;747;730
534;502;498;503;514;524
536;474;437;421;424;453
521;615;670;703;715;710
519;549;579;601;615;612
532;447;405;387;393;424
522;567;589;603;610;618
519;600;658;693;708;692
538;458;422;408;415;436
528;517;507;502;505;524
508;616;684;723;737;721
508;479;476;483;496;508
511;453;419;406;412;443
498;595;652;686;701;697
502;527;555;577;591;590
512;429;386;369;375;406
501;549;574;589;597;604
500;581;637;672;687;671
521;440;403;390;396;418
523;511;501;496;498;515
518;619;682;717;728;712
533;492;482;482;490;500
539;478;440;421;420;448
528;622;677;709;716;707
532;552;574;592;602;596
545;460;415;396;396;423
534;583;607;621;625;629
525;605;660;693;706;688
542;461;424;411;416;436
538;531;523;521;524;540
524;627;693;732;745;729
531;492;483;487;497;510
536;479;445;430;433;463
520;618;677;710;722;716
512;533;559;579;592;592
509;433;395;380;386;417
474;539;575;598;610;620
437;531;598;642;665;656
421;360;340;341;360;393
394;412;424;438;457;488
439;535;600;644;668;663
614;510;464;447;447;458
765;624;531;475;446;455
811;843;841;826;793;752
791;775;757;735;704;666
742;662;605;564;535;531
644;730;770;784;776;758
561;676;756;801;816;793
528;482;475;482;502;529
491;522;546;570;595;625
459;585;674;736;773;777
461;432;438;458;490;525
453;414;396;398;420;469
436;545;615;662;690;700
440;455;482;507;532;547
453;374;335;322;334;375
441;501;534;558;571;584
436;510;563;599;617;609
454;372;335;323;332;361
451;455;455;457;463;483
441;544;610;650;666;654
457;410;397;398;409;425
461;411;381;369;372;402
449;551;612;648;659;651
454;462;480;497;509;510
465;385;343;325;328;356
452;515;547;567;576;579
447;517;568;601;615;600
465;381;343;329;336;361
454;464;467;470;475;491
441;545;613;655;671;658
456;409;395;396;408;424
457;411;384;373;378;407
443;549;611;649;662;652
445;452;470;488;502;504
453;377;336;319;324;353
434;502;539;562;572;577
422;494;546;581;598;589
430;351;317;306;316;346
415;432;440;448;458;477
398;505;577;622;643;633
409;363;352;355;371;392
407;367;344;338;345;378
394;502;567;607;624;617
397;401;419;438;454;460
407;331;291;276;283;313
397;464;501;525;537;542
398;461;509;541;557;546
420;333;292;278;284;312
425;435;436;438;442;456
432;525;585;621;633;617
465;401;376;368;372;384
485;432;396;378;373;393
493;585;637;664;666;645
520;504;504;508;508;500
551;458;402;372;361;377
556;610;634;645;640;629
569;615;647;665;665;639
599;499;446;418;411;425
601;607;601;594;586;587
595;686;742;772;775;748
615;550;522;510;509;514
620;572;540;522;515;532
610;710;766;795;798;775
616;606;610;618;623;617
624;543;496;472;468;489
608;677;713;734;738;733
600;655;697;724;735;721
608;522;479;462;467;493
596;617;624;628;632;645
581;680;745;783;799;785
591;533;513;507;516;534
589;552;528;517;521;546
577;683;746;781;792;777
579;571;579;591;603;606
582;508;467;448;450;477
568;642;685;709;719;719
563;617;660;689;703;693
575;489;447;432;438;468
561;586;596;603;609;623
546;646;712;752;769;757
558;499;478;473;483;502
554;521;500;493;497;524
536;645;711;750;762;750
542;531;539;553;565;570
548;475;433;416;420;448
537;612;654;681;693;695
530;582;623;651;666;658
543;456;415;399;407;437
534;560;571;578;584;598
525;620;684;723;739;727
541;478;452;445;452;472
540;507;485;476;479;504
526;632;695;732;743;728
533;519;523;533;543;548
542;468;425;406;408;434
532;609;652;678;688;687
526;575;613;639;653;644
540;454;412;394;400;430
529;559;572;579;584;596
518;614;678;718;733;719
529;465;441;435;444;462
526;499;480;473;477;501
515;622;687;724;737;722
524;506;510;519;531;536
533;460;419;400;402;429
518;599;646;674;685;684
510;557;595;623;638;630
519;435;395;381;388;419
504;538;555;566;574;587
497;591;655;695;713;701
513;445;418;411;420;440
505;481;464;458;463;488
493;600;665;704;717;704
505;484;485;494;506;513
517;444;402;384;386;414
510;590;636;663;673;671
518;554;586;608;620;611
539;447;401;380;382;410
530;561;573;579;582;590
522;611;670;706;718;701
535;465;435;425;429;445
529;507;491;483;485;505
517;624;689;726;737;720
526;503;503;511;520;527
530;463;423;406;407;434
519;605;655;685;696;693
519;557;591;615;628;621
537;449;405;387;392;421
527;563;580;589;594;603
517;607;669;705;719;704
527;458;428;418;424;443
510;496;484;481;486;508
478;594;665;708;725;712
462;450;459;474;491;505
436;388;363;359;370;407
392;502;571;616;642;651
401;445;489;524;551;557
525;406;347;325;331;365
687;647;615;595;580;577
787;793;789;779;754;711
819;692;609;553;515;497
774;741;700;663;627;610
684;806;871;895;881;835
602;612;629;641;645;637
545;521;513;514;525;551
498;622;704;758;787;791
475;531;586;632;667;677
473;406;382;385;412;460
455;510;546;574;600;627
443;538;608;657;688;690
457;387;362;360;380;417
449;441;435;437;451;484
432;544;615;659;680;675
445;416;416;426;443;462
455;393;357;345;351;387
447;540;594;628;642;642
445;474;504;528;543;542
461;376;334;318;324;355
449;495;518;533;540;549
442;527;586;623;638;623
461;383;350;339;346;369
457;446;436;433;437;457
447;552;617;657;670;655
458;424;418;424;435;446
461;400;365;350;353;383
447;544;600;633;646;640
450;476;503;525;539;535
464;380;338;321;326;355
449;499;526;540;548;555
437;523;584;620;636;621
450;375;344;333;342;365
440;437;433;433;439;460
423;533;603;645;662;649
431;400;396;403;418;433
430;376;345;335;341;375
411;514;575;612;628;626
408;435;466;490;508;509
417;339;301;288;295;329
401;457;487;507;518;528
393;478;538;576;594;583
408;331;299;291;301;328
402;400;397;398;407;429
393;497;565;608;624;613
409;370;362;368;380;395
420;361;326;312;316;347
415;510;565;598;610;604
430;442;462;478;490;487
461;369;320;297;297;322
469;510;528;538;539;538
482;546;591;617;622;599
519;423;374;352;348;362
533;516;498;487;480;487
540;630;683;710;711;684
568;513;490;480;478;479
585;518;473;447;437;452
584;673;721;743;742;721
599;602;613;620;620;606
617;526;474;445;437;453
609;657;679;687;685;677
604;673;721;747;752;726
618;531;489;469;468;484
611;609;603;599;597;607
598;699;763;799;808;787
606;561;547;547;553;563
605;551;518;504;504;530
590;690;749;782;792;782
591;601;619;635;647;645
596;515;472;452;454;482
580;638;669;687;695;698
569;643;695;727;742;727
583;499;461;447;454;479
575;579;578;579;583;600
561;663;729;769;783;770
570;524;510;512;522;537
569;519;488;476;480;509
554;657;718;753;765;756
553;563;581;597;611;612
562;483;441;423;426;455
546;609;642;661;670;674
538;609;661;694;708;696
552;469;430;417;424;451
542;551;553;556;561;577
527;631;699;739;755;743
538;492;478;479;490;506
540;492;464;452;457;487
526;630;692;728;741;732
530;535;552;567;580;582
539;460;417;399;402;431
528;589;623;643;652;656
523;588;636;667;681;670
539;452;412;396;402;429
530;540;541;544;548;564
520;621;685;724;739;725
534;482;465;463;472;488
532;487;458;447;449;476
509;617;681;718;731;719
504;510;527;545;560;563
511;436;396;380;386;415
504;569;605;627;639;642
502;565;613;643;659;649
520;434;392;377;383;412
513;527;530;533;537;553
506;605;669;708;722;709
521;468;449;446;453;469
526;481;453;441;442;469
518;621;681;716;725;710
528;523;533;545;555;555
541;461;415;394;394;419
528;594;629;650;657;656
523;583;628;657;669;655
541;453;410;394;398;425
534;549;553;556;559;572
525;622;686;724;738;724
537;481;461;456;464;480
534;493;467;457;459;485
518;625;689;725;735;722
522;518;529;543;556;558
532;455;412;394;396;423
521;590;628;651;660;661
512;571;616;646;660;649
514;433;393;379;388;418
488;517;529;539;547;564
448;562;637;685;708;700
427;391;386;394;413;439
399;384;378;383;399;437
438;540;606;648;668;664
603;537;513;508;510;511
748;591;493;436;409;417
789;799;784;763;732;702
764;791;798;790;765;719
720;637;583;545;523;523
629;681;701;704;697;691
548;684;774;826;844;824
520;494;499;515;536;558
492;484;486;498;521;558
463;590;674;730;764;766
460;463;485;514;547;568
463;398;367;361;381;425
451;531;580;614;638;654
446;502;549;583;607;612
461;377;338;328;341;381
454;480;493;503;513;534
446;543;608;650;669;662
463;402;379;375;385;406
459;428;408;401;406;433
449;556;621;659;672;659
456;444;450;462;476;481
462;392;351;334;337;365
451;530;575;602;613;614
449;500;541;570;584;576
467;381;339;324;330;360
460;487;500;508;514;526
449;546;610;650;665;652
465;402;378;372;381;399
465;436;416;409;412;436
451;559;625;663;676;660
454;441;448;459;472;477
459;390;352;336;339;367
442;525;574;603;617;618
439;489;531;559;576;569
452;367;327;313;322;354
440;473;489;500;508;523
428;525;590;632;649;639
438;376;352;348;358;380
427;406;391;388;394;420
407;520;590;632;649;637
412;398;406;420;436;445
416;350;315;301;308;339
402;487;538;570;587;590
402;448;488;517;534;531
421;335;294;279;287;321
420;450;465;476;482;495
420;509;569;608;622;609
446;373;341;333;337;355
453;423;402;393;393;412
453;554;613;647;655;635
482;450;443;445;451;452
508;427;378;352;347;366
517;588;626;645;647;636
534;561;584;598;600;583
564;465;410;382;375;394
568;592;597;596;589;587
572;651;702;730;733;706
599;517;477;459;453;460
605;572;546;531;523;532
598;696;752;781;783;756
610;578;570;569;572;569
617;544;498;473;469;487
603;686;733;756;761;751
601;634;665;684;692;680
616;526;480;459;459;484
607;642;657;664;666;670
593;681;740;775;786;767
603;530;498;486;491;508
595;575;561;555;557;576
579;686;751;788;800;784
588;560;558;563;574;581
589;524;486;468;471;498
572;662;715;745;758;754
567;603;636;659;673;668
575;492;451;433;440;471
563;605;626;639;646;656
552;641;702;740;755;741
565;492;460;450;458;480
557;543;530;527;532;553
545;652;718;757;770;755
554;524;520;526;538;548
554;492;455;439;442;472
538;631;686;718;731;728
535;567;598;621;635;632
546;462;420;403;409;440
534;578;601;614;621;631
525;612;671;708;723;709
541;465;431;421;428;449
539;525;512;508;512;532
526;631;696;734;747;732
538;504;499;502;513;523
542;479;442;425;427;456
527;620;676;707;718;714
522;551;580;602;615;611
525;446;405;389;395;425
510;561;587;603;611;620
508;592;651;689;704;692
528;450;414;403;410;433
521;512;501;498;503;523
511;616;682;720;733;718
523;487;480;484;495;506
526;466;430;414;417;445
521;614;669;699;710;704
529;549;573;591;602;597
546;458;412;392;393;420
536;582;605;617;621;625
530;609;663;697;708;690
547;466;427;413;418;438
538;531;522;518;520;537
528;632;697;734;747;730
542;502;493;495;505;515
544;485;450;433;434;463
528;625;683;715;725;719
528;548;573;593;605;602
539;456;412;394;398;427
528;578;604;621;627;633
523;601;655;690;704;687
536;456;418;406;412;436
520;520;516;516;521;539
497;608;678;720;736;722
489;460;459;465;481;498
462;423;402;396;407;443
416;536;610;657;680;684
418;448;483;514;539;548
542;427;368;345;349;381
661;650;637;628;617;613
729;744;749;747;729;692
754;634;559;510;482;478
716;704;680;655;630;619
642;761;827;856;852;815
588;574;579;586;592;594
540;518;508;509;520;548
501;626;708;759;786;785
485;517;558;593;623;635
485;417;389;385;405;450
467;532;573;603;625;645
459;539;599;642;668;667
473;394;362;356;371;408
464;470;471;477;488;516
451;558;626;670;690;685
463;421;411;416;431;452
466;416;386;376;382;417
457;559;620;656;670;665
461;472;492;510;524;527
469;391;349;332;336;366
456;517;550;570;579;585
452;525;578;612;627;613
469;387;350;337;343;370
464;470;469;472;477;494
456;559;624;665;680;666
469;423;410;411;422;436
470;422;393;381;385;413
460;563;624;659;672;662
466;473;491;507;520;521
476;395;352;334;337;366
457;520;555;576;585;589
448;519;572;606;621;609
461;380;343;332;338;366
452;462;465;471;476;495
436;541;610;653;670;658
447;401;389;392;403;421
442;400;374;366;373;403
427;534;599;637;654;646
427;435;454;473;490;494
432;357;319;303;310;341
419;486;523;546;559;565
412;483;534;568;585;575
429;348;310;298;307;336
422;436;439;445;452;470
414;517;583;625;642;630
433;381;365;365;376;392
440;394;367;355;359;387
437;538;598;632;643;631
455;450;460;472;482;482
479;393;344;321;319;344
484;540;568;584;586;584
497;549;587;610;615;596
525;429;379;356;354;373
534;536;529;525;519;525
540;627;682;712;716;693
568;501;472;460;459;464
578;525;488;468;460;475
575;669;723;749;751;727
586;574;579;584;587;578
601;515;465;439;432;450
591;653;685;701;702;694
589;643;684;708;715;695
604;514;468;447;448;470
595;609;611;611;611;621
582;680;743;779;789;772
590;535;515;509;516;528
585;547;522;510;512;535
568;676;740;776;787;771
571;567;579;592;604;605
580;503;461;442;445;472
567;637;677;699;709;710
559;617;661;691;705;694
572;486;444;428;435;465
563;583;590;595;600;615
551;650;715;755;769;756
561;504;484;480;488;505
559;523;500;490;494;518
543;650;715;751;763;749
546;538;548;561;574;578
554;479;437;418;422;450
544;615;656;680;690;692
538;592;634;663;676;666
552;465;423;407;413;442
542;564;573;579;584;598
530;627;691;731;747;733
540;481;459;454;463;481
535;502;481;472;477;502
521;628;693;731;743;730
526;516;524;536;549;554
533;460;419;400;403;432
524;599;642;667;677;678
525;575;615;643;655;646
540;452;410;394;398;427
526;553;563;571;576;588
510;609;675;716;733;720
523;463;440;435;444;463
526;494;473;464;469;492
513;620;684;720;733;718
519;506;511;522;534;538
527;454;413;395;397;424
516;595;638;664;675;674
516;563;601;628;641;632
536;446;402;384;389;418
530;555;565;571;575;586
525;616;677;714;728;712
541;474;446;436;442;459
540;508;486;476;477;498
528;633;696;730;740;723
538;518;521;529;539;542
545;471;429;410;409;435
532;611;656;682;692;690
529;574;611;637;649;640
542;456;412;395;400;429
529;561;575;584;589;600
518;613;677;717;732;717
532;466;439;432;441;459
528;503;485;478;481;504
514;622;687;726;738;722
512;497;502;512;525;532
505;442;406;393;398;427
473;567;623;657;674;676
449;505;553;587;609;608
432;365;337;333;349;389
429;472;496;516;532;553
532;589;635;666;680;668
666;535;467;433;422;432
728;646;585;543;516;516
720;793;824;828;807;764
691;662;647;633;617;598
640;585;548;522;509;518
563;677;743;778;787;776
517;585;642;683;704;698
509;445;423;423;442;480
485;537;571;598;619;641
466;568;644;696;727;726
478;414;394;396;416;450
471;455;446;449;464;498
457;568;638;682;704;699
466;445;447;459;477;493
473;408;372;357;364;399
461;551;603;635;651;653
460;498;534;559;575;574
476;391;350;335;341;375
467;506;525;537;545;556
460;549;611;650;665;651
477;405;374;365;372;393
472;455;442;438;441;463
458;566;632;672;685;670
467;441;440;448;460;469
473;407;371;355;359;388
461;550;603;635;648;645
460;494;526;551;565;561
473;389;347;331;336;368
465;505;525;538;545;554
458;545;604;642;658;642
474;400;366;356;364;385
469;454;442;438;442;462
455;562;628;667;681;665
463;434;433;439;451;461
463;401;366;351;355;386
444;540;596;630;644;643
439;474;507;533;549;548
445;367;328;314;322;356
432;480;506;523;532;544
421;511;574;614;632;620
434;363;334;326;336;361
425;417;411;410;417;441
413;521;590;632;649;637
424;394;392;400;415;428
431;370;336;323;328;359
421;515;571;605;619;617
429;455;483;505;518;517
454;366;321;303;305;335
457;496;514;524;528;534
464;539;590;621;630;611
494;407;365;347;348;365
504;484;466;456;453;465
507;601;657;689;694;670
531;486;470;466;468;471
548;477;431;407;401;421
548;633;679;703;705;690
560;573;590;603;605;593
579;486;435;409;403;424
576;616;633;640;637;635
576;649;699;727;732;707
597;511;468;449;448;462
593;581;568;560;557;567
582;683;745;778;786;763
589;550;540;539;546;552
589;529;494;476;476;502
573;670;727;758;768;759
575;594;618;636;646;642
584;501;457;438;440;467
569;620;646;662;668;671
558;639;695;729;743;725
573;492;456;443;450;473
565;561;555;554;558;576
548;653;720;759;774;759
558;519;510;512;524;538
560;503;469;454;458;489
543;643;702;736;747;742
542;560;584;603;616;615
551;469;427;409;414;443
543;595;622;638;645;651
535;611;665;699;712;697
549;466;429;416;423;446
538;538;534;533;539;556
527;631;697;736;751;737
538;496;485;488;498;512
540;486;453;439;443;472
528;628;688;721;733;725
530;545;565;583;595;595
539;459;416;398;400;429
527;583;613;630;637;641
520;596;649;683;695;680
538;454;416;403;409;433
532;533;530;530;534;550
525;627;691;729;743;728
535;491;478;478;488;502
535;484;452;438;440;469
514;619;680;717;728;720
512;526;548;567;580;581
526;445;402;386;389;419
516;573;603;622;630;635
508;580;632;665;679;665
521;438;400;387;394;419
513;518;518;519;524;542
504;606;672;711;726;713
520;472;458;458;468;483
527;474;442;428;430;458
518;618;676;709;720;708
524;529;544;559;570;569
535;453;408;387;388;415
524;584;614;631;637;639
520;589;638;668;679;663
537;452;412;396;399;423
534;540;539;539;541;555
526;626;690;727;740;724
540;490;475;472;480;493
538;490;461;447;449;476
522;626;689;724;735;723
527;531;548;563;576;576
537;458;415;396;398;426
524;587;620;640;648;651
511;581;631;664;677;665
512;433;397;385;393;421
484;505;514;522;531;550
449;564;640;688;711;703
438;404;401;411;431;455
419;390;377;377;393;431
457;553;615;655;673;670
608;553;534;531;534;532
736;583;488;434;409;418
764;774;760;740;712;686
738;779;795;792;770;726
699;617;567;534;514;515
612;654;669;672;667;665
541;676;766;817;834;815
524;500;506;520;542;562
501;481;476;483;503;541
473;595;676;730;759;761
469;480;506;535;565;583
473;404;372;366;382;425
456;530;574;606;627;643
448;515;567;605;628;628
464;382;345;335;349;386
455;474;483;491;502;524
449;549;616;658;678;671
470;414;396;394;405;426
473;430;404;394;398;427
462;566;628;665;677;666
465;462;473;487;500;504
472;397;355;338;340;369
459;530;569;594;603;606
460;518;563;593;607;596
475;388;346;333;339;368
466;486;492;497;503;518
454;554;620;659;676;663
469;413;394;390;400;417
467;430;407;397;401;427
454;562;625;663;676;662
460;455;466;479;493;496
468;394;354;337;339;368
453;527;569;594;605;607
448;507;552;583;599;590
464;379;339;325;333;363
451;475;485;493;499;515
435;537;605;647;665;653
446;392;374;372;384;404
440;409;390;383;390;418
424;535;603;643;658;647
428;423;435;451;467;473
435;364;326;311;316;346
422;498;542;570;583;587
419;474;518;549;565;558
434;349;309;296;304;335
427;451;462;471;478;493
422;518;583;623;640;627
446;382;357;351;360;378
457;418;392;382;382;406
458;557;616;649;657;639
479;458;459;464;471;471
504;420;370;346;340;362
508;573;607;625;626;619
523;562;592;610;614;597
555;456;402;377;372;392
561;575;575;572;567;568
565;649;702;730;735;710
588;515;482;465;462;468
592;553;524;507;500;512
584;684;742;771;773;748
594;573;573;576;580;575
601;525;480;456;451;470
585;662;704;727;732;725
582;628;665;688;699;685
597;507;463;444;447;473
588;615;626;631;634;643
576;668;730;767;780;764
588;521;495;485;492;508
580;551;532;523;525;548
564;671;736;773;784;769
569;551;555;564;576;581
570;500;460;443;445;473
554;636;683;712;723;724
551;596;634;661;674;668
564;477;435;419;425;455
553;584;598;608;614;626
537;631;696;735;751;738
548;482;456;449;458;478
545;520;502;496;500;524
533;640;705;743;755;741
541;521;523;532;544;551
550;480;439;420;422;449
536;620;667;695;705;705
533;575;611;637;649;642
545;460;417;401;406;436
533;569;586;595;602;611
526;617;680;719;734;719
542;473;444;434;441;460
539;515;498;491;494;516
525;632;698;735;747;731
534;510;510;518;530;536
538;470;429;412;414;443
523;609;658;688;699;698
522;561;596;620;633;627
539;451;407;390;395;425
526;563;580;590;596;606
520;608;669;707;722;706
534;462;432;421;428;447
530;508;493;486;489;511
519;625;689;726;738;722
531;504;501;508;518;525
535;467;427;409;410;438
518;607;658;688;699;696
509;550;584;609;623;617
519;437;397;382;388;419
511;552;571;584;592;602
502;592;654;693;709;694
515;444;414;405;413;434
509;493;481;477;482;503
498;605;671;710;724;709
513;484;481;487;499;509
520;454;415;398;399;429
514;601;651;681;691;688
518;548;576;598;610;603
536;447;401;382;384;412
528;567;584;594;597;603
521;606;663;698;710;692
537;461;426;413;418;436
533;517;503;497;498;515
521;626;691;728;739;721
530;498;494;499;509;518
534;469;432;415;417;444
523;614;666;697;708;703
523;552;581;603;615;609
533;448;405;387;392;421
522;566;587;600;606;614
514;599;659;695;709;692
523;450;417;406;414;435
504;498;491;490;496;516
473;589;662;706;723;711
457;440;446;460;479;495
433;391;368;364;378;415
394;508;578;625;651;658
420;451;486;516;540;547
568;438;370;342;342;372
710;677;646;626;608;599
776;790;790;780;756;711
788;672;596;544;510;497
738;721;693;663;634;620
641;770;843;874;868;829
575;577;593;607;617;617
533;507;499;501;515;545
492;614;695;748;778;782
475;519;566;606;639;651
475;405;379;377;401;448
456;515;552;580;604;627
445;534;600;646;674;673
459;385;356;352;370;406
454;449;446;449;463;492
445;551;619;661;681;676
460;424;417;423;437;456
463;407;373;360;366;400
452;550;608;643;656;653
453;475;502;523;536;537
468;386;343;327;331;361
458;509;536;552;560;566
449;530;587;622;638;622
463;385;351;340;348;371
460;456;451;451;457;475
451;556;623;662;676;663
462;423;415;419;431;445
463;409;377;364;367;398
452;550;608;643;656;651
453;471;495;516;529;529
468;385;342;325;329;359
460;512;538;555;562;568
451;529;583;618;632;616
462;383;349;337;344;367
451;453;450;451;458;476
435;543;612;653;670;657
441;405;398;404;417;433
441;390;362;351;358;390
422;527;589;627;643;639
422;441;466;489;505;508
430;353;313;299;306;339
416;476;508;529;540;548
409;488;544;581;599;586
426;347;312;301;310;337
421;424;423;425;432;452
415;519;585;626;642;629
433;389;377;379;391;406
443;388;356;343;345;374
435;534;592;626;636;627
447;455;473;489;499;497
474;386;338;316;316;341
482;529;551;564;566;564
495;555;597;622;628;606
529;432;384;360;358;373
540;530;516;507;501;508
546;635;689;717;721;695
570;512;488;478;476;479
585;522;481;459;449;467
583;674;723;749;749;728
591;591;600;608;610;600
605;517;466;441;434;452
592;648;674;687;687;681
587;653;700;726;734;711
606;517;473;454;455;474
596;601;598;595;595;606
580;682;747;783;794;776
590;542;527;525;532;544
589;541;511;497;499;525
570;674;736;771;782;770
569;577;593;610;623;623
579;499;456;438;440;470
567;629;661;681;689;692
558;626;676;707;720;707
572;488;448;432;439;465
561;571;573;576;580;596
549;650;717;756;771;757
560;510;494;493;503;519
558;512;485;473;477;505
543;647;709;746;757;748
545;548;563;579;592;594
552;474;431;413;416;445
541;605;639;660;669;672
535;599;648;678;692;680
547;463;423;408;414;441
536;549;553;557;562;578
525;626;693;733;748;735
537;485;469;467;477;494
537;493;467;456;459;487
522;629;693;727;739;728
527;528;541;556;569;571
540;461;417;399;401;429
529;594;629;651;660;661
525;587;632;662;676;663
541;454;413;396;402;429
531;546;551;553;558;573
521;620;686;725;740;726
534;480;461;459;468;484
535;493;467;456;458;484
522;627;689;726;736;723
526;523;535;549;561;563
533;455;413;395;397;424
517;587;625;649;658;660
512;572;617;648;662;651
530;443;402;386;393;421
522;538;544;548;553;568
512;610;675;714;729;716
528;470;450;445;454;471
528;488;462;451;453;479
515;620;682;718;729;715
521;515;525;537;548;551
529;453;410;391;392;419
517;588;627;650;660;660
513;571;615;643;657;644
530;443;401;385;391;420
525;543;550;554;558;571
515;612;676;715;729;716
529;471;448;444;451;467
524;489;466;456;458;483
507;616;681;718;729;715
507;502;513;527;541;545
517;443;402;385;388;417
506;579;621;646;657;659
508;560;602;631;645;635
524;436;394;377;383;412
511;533;543;549;554;568
495;594;660;701;717;704
507;448;427;423;433;451
509;474;452;444;448;474
496;602;665;703;715;702
503;492;499;511;523;528
509;435;393;376;378;406
494;571;614;640;650;651
494;545;586;614;629;620
513;424;381;365;372;401
514;535;542;547;551;563
512;603;663;700;713;697
528;464;436;427;432;448
524;492;469;458;459;480
512;619;682;717;727;709
520;506;511;521;530;533
531;457;414;395;394;420
522;598;640;665;673;672
521;569;607;633;645;634
537;449;405;388;393;420
528;555;565;571;576;586
519;613;676;714;728;713
533;469;442;435;442;458
532;502;482;472;474;498
521;626;689;725;736;720
523;507;511;522;533;538
513;447;409;393;396;425
481;570;623;655;670;672
452;513;562;597;618;615
437;369;342;337;353;391
405;454;482;504;522;545
432;524;591;636;661;657
588;472;416;394;395;412
739;628;553;508;484;489
796;833;838;828;797;751
795;739;701;669;638;607
747;673;616;572;541;536
648;758;813;835;828;804
570;653;715;751;764;747
541;489;474;476;494;525
502;562;603;633;657;679
469;584;670;729;766;768
469;419;409;419;447;485
457;445;442;450;472;513
441;557;631;681;709;711
448;433;442;460;483;504
456;390;354;343;355;395
443;530;582;615;633;641
441;485;523;551;570;571
457;372;332;318;326;363
452;486;503;515;523;537
445;535;598;637;654;642
461;392;362;354;362;384
458;436;420;415;418;442
446;554;618;657;670;656
457;434;434;443;454;462
465;397;358;341;343;371
453;540;590;620;632;629
451;490;525;550;564;558
464;380;338;322;328;359
455;494;512;523;530;540
447;538;601;640;656;641
461;391;362;354;362;383
453;436;424;420;425;448
439;549;615;656;670;656
446;424;424;434;447;457
450;387;350;336;340;370
435;526;582;613;627;627
431;470;506;532;548;545
443;361;321;307;315;347
429;473;495;509;519;530
416;509;574;615;633;620
424;356;330;324;335;358
413;401;394;394;402;427
400;510;579;623;639;629
411;385;385;395;411;423
419;355;320;306;311;342
409;499;553;585;599;599
414;445;477;501;515;512
432;346;302;286;291;322
430;469;487;498;504;512
434;516;572;606;618;601
465;382;344;330;333;350
477;452;433;424;422;436
484;579;635;666;671;649
514;472;457;453;455;456
540;463;413;387;378;397
547;625;666;686;686;669
560;577;594;605;606;589
586;490;435;407;400;417
585;618;630;633;628;623
585;661;711;738;741;713
607;522;480;461;457;467
605;587;570;559;553;562
594;695;755;787;792;768
606;569;559;558;563;565
608;543;502;483;480;503
590;683;736;765;773;763
588;613;639;659;669;662
600;514;469;449;452;479
588;632;654;666;672;676
577;659;716;750;763;746
589;510;475;461;468;489
582;572;563;559;562;581
564;671;736;775;787;772
572;537;530;535;547;558
572;512;477;462;465;495
556;652;709;742;754;749
555;580;606;626;640;637
566;484;441;423;427;457
552;602;628;642;649;656
542;624;682;718;732;717
555;477;442;431;438;461
549;543;536;535;539;558
538;643;709;748;762;747
550;511;503;506;517;530
555;496;460;445;447;477
540;638;694;727;738;731
537;559;584;604;617;614
547;465;423;405;410;438
535;586;612;628;636;642
530;608;663;698;712;697
546;464;426;414;421;444
539;535;528;526;530;549
527;631;696;734;748;732
538;498;488;491;500;514
542;484;450;434;437;467
527;625;683;717;727;721
528;545;568;587;599;597
544;460;416;396;399;428
534;585;611;626;632;637
527;602;656;689;701;685
540;459;422;408;414;436
532;532;527;527;530;547
518;623;690;729;743;728
528;488;478;480;491;505
531;477;445;432;434;465
520;620;679;713;725;718
526;539;559;577;589;588
540;457;412;392;395;423
524;580;608;625;632;636
514;591;645;679;691;675
533;450;412;400;405;429
529;529;526;525;529;546
518;620;684;723;738;723
529;484;472;473;483;497
530;478;445;432;434;464
519;620;678;712;723;715
522;532;551;568;581;580
536;453;409;389;391;419
523;580;609;626;632;636
513;586;638;670;684;668
525;443;405;392;398;422
518;523;522;524;528;545
508;610;676;716;731;717
522;476;462;463;473;488
523;473;442;430;433;461
511;614;674;709;720;710
512;522;540;557;570;570
525;445;402;383;387;414
514;573;605;623;631;635
505;576;627;660;673;660
519;437;398;384;390;417
512;520;521;523;527;544
503;605;671;711;725;711
515;468;454;453;464;479
514;467;439;427;430;459
502;606;667;703;715;705
508;512;528;544;557;559
519;438;395;376;379;408
506;568;600;620;628;631
501;569;617;649;662;649
518;432;392;378;383;409
508;518;520;522;526;543
495;596;663;703;718;705
509;459;444;443;453;469
509;463;435;423;426;454
488;595;658;696;708;698
482;490;508;527;542;545
490;415;376;360;365;395
484;548;585;606;617;621
486;550;597;628;642;631
503;416;376;360;366;394
496;507;510;513;516;532
491;589;654;693;705;691
511;456;436;433;441;455
518;470;440;427;427;451
511;612;671;704;713;698
521;517;527;539;548;546
535;454;408;386;385;409
525;588;622;640;646;645
517;579;625;652;664;649
531;445;404;388;391;417
524;538;542;544;548;561
513;612;677;717;730;716
527;472;453;450;459;474
528;485;458;447;450;474
517;620;681;717;729;714
524;519;529;542;554;555
530;453;410;390;391;418
509;580;619;642;652;653
490;556;606;639;654;644
483;408;375;365;376;407
444;479;497;511;525;545
407;526;605;658;685;680
424;379;370;378;397;425
521;454;416;401;405;435
673;706;721;729;720;695
775;694;647;617;593;570
804;678;589;527;487;482
754;810;823;815;788;755
673;748;791;806;797;761
603;554;532;521;522;537
540;598;633;655;668;681
498;626;717;778;809;805
490;456;457;473;501;533
473;453;448;456;480;522
451;569;647;699;729;733
453;453;472;496;525;545
461;391;356;346;361;403
445;522;569;599;620;633
441;499;546;578;600;600
457;373;333;321;334;371
449;474;484;493;502;522
442;539;604;645;664;655
457;399;377;373;383;404
459;424;401;393;397;424
446;554;617;654;667;654
452;443;452;465;477;482
460;388;349;331;333;361
449;526;569;596;606;607
447;500;544;572;586;577
466;379;338;323;329;359
457;483;494;501;507;520
447;544;609;649;665;652
460;400;378;374;382;400
454;425;406;399;403;428
439;549;615;654;668;654
445;434;443;456;470;475
451;381;343;326;331;359
439;517;563;591;603;606
434;485;528;557;572;566
451;365;324;310;317;350
437;467;481;491;498;512
423;521;587;630;647;636
435;375;352;350;359;379
428;402;385;381;387;413
412;523;590;631;646;634
416;404;413;427;442;449
422;354;317;301;307;337
409;491;539;569;584;586
409;457;498;527;543;538
428;342;301;286;293;325
427;455;467;476;482;495
426;517;578;617;631;617
450;380;351;342;348;365
459;425;403;392;393;413
460;559;619;652;659;640
484;456;452;456;462;462
508;427;378;353;347;368
513;584;620;640;642;632
529;561;588;604;608;591
561;462;408;381;375;395
567;586;590;588;582;582
571;650;702;730;733;707
598;517;479;461;456;463
605;568;540;524;516;526
599;696;751;781;782;755
610;581;575;575;577;573
615;541;495;471;465;484
599;680;724;748;754;745
595;634;667;689;698;685
606;518;473;454;456;482
595;628;642;651;654;660
586;675;735;772;784;767
599;528;497;486;491;509
591;569;552;544;546;565
575;683;748;784;796;779
579;557;557;565;576;582
582;515;477;459;462;489
569;655;705;734;746;744
564;603;638;662;677;671
574;490;447;431;436;468
564;601;619;629;635;646
555;644;706;744;759;744
572;499;468;458;465;485
566;545;530;523;526;548
551;658;724;761;772;756
557;531;531;538;549;557
563;495;456;439;441;470
548;636;687;716;728;727
547;582;615;638;651;646
559;473;429;412;417;448
548;587;606;617;622;632
535;625;686;724;738;724
551;478;446;436;443;464
547;528;514;509;513;533
535;640;705;743;755;739
545;516;513;519;529;537
550;484;446;428;429;458
534;624;678;708;720;716
530;564;597;620;633;628
542;458;415;399;404;434
537;577;597;608;614;623
531;616;675;712;725;709
545;470;437;426;432;452
540;524;511;506;509;529
527;634;699;736;749;733
535;505;502;507;518;528
537;475;439;422;424;454
520;614;669;701;713;710
518;550;582;605;618;615
531;446;404;387;393;424
523;565;587;600;607;616
515;599;657;695;709;694
531;454;419;409;415;436
525;512;500;497;500;520
514;619;684;722;735;719
525;492;486;490;501;511
527;465;429;412;415;444
513;607;662;694;705;701
513;541;569;590;604;600
529;443;399;381;386;415
518;563;585;599;605;612
509;593;651;687;700;684
525;448;413;401;408;430
520;510;500;497;500;519
507;613;679;718;730;715
518;484;477;482;493;504
523;462;427;411;414;442
510;605;662;694;705;699
511;535;563;583;596;593
526;441;397;380;383;413
518;565;588;602;608;613
510;592;648;683;695;679
523;445;410;398;403;426
518;510;502;500;503;521
505;610;676;716;729;713
515;478;471;475;487;498
517;458;424;410;413;442
504;601;658;691;704;697
507;527;553;573;586;584
519;434;391;374;378;407
507;557;582;598;604;611
502;580;636;671;684;669
515;436;399;388;394;418
509;504;497;496;499;518
495;601;666;706;720;705
500;465;457;462;474;487
502;448;416;402;407;437
486;586;646;681;694;689
489;509;534;554;569;568
504;422;379;361;366;396
492;545;572;589;597;603
491;568;621;655;668;653
515;431;392;379;383;406
514;508;499;497;499;515
506;607;670;707;719;702
520;477;465;465;473;484
527;469;434;417;418;444
516;613;669;700;711;700
520;533;553;569;579;576
535;450;404;384;385;411
523;576;603;618;623;625
516;590;642;675;686;670
532;449;411;397;402;423
527;526;520;520;523;538
517;619;683;722;735;719
529;485;473;474;483;495
529;475;443;429;432;460
505;609;671;706;718;709
494;513;538;559;573;574
480;412;378;366;374;405
442;516;558;585;600;610
403;498;567;613;639;633
431;357;329;327;344;378
555;516;492;484;486;503
690;719;735;743;735;706
776;663;597;556;530;518
777;688;618;567;531;527
719;815;858;866;845;805
648;679;703;713;707;684
587;540;518;507;508;526
528;620;678;713;730;735
494;591;667;719;748;745
490;426;408;414;438;478
472;491;505;524;547;580
455;567;644;697;729;732
464;424;418;428;453;483
460;417;394;389;402;445
445;552;617;658;679;680
447;458;480;500;520;530
461;383;342;326;333;370
447;510;544;567;578;588
443;513;565;599;615;606
463;379;340;327;335;364
458;467;467;470;475;492
445;548;615;655;671;658
461;413;399;400;410;425
466;418;390;378;381;409
452;557;619;655;668;656
458;463;480;496;509;510
469;391;348;330;333;361
456;521;555;576;584;588
450;518;568;600;615;602
467;384;345;331;338;365
461;473;475;479;483;499
450;553;618;659;675;662
460;412;397;397;408;424
459;416;390;380;385;413
442;548;612;651;664;655
443;448;465;483;497;501
451;375;334;318;324;354
433;501;539;563;576;581
425;493;544;577;594;585
440;357;320;309;317;347
427;444;450;457;464;483
411;516;586;629;647;637
419;372;359;361;374;394
418;379;356;350;356;386
408;515;580;619;635;626
418;418;433;449;464;469
429;352;311;294;297;327
425;490;526;549;558;561
430;489;533;562;575;563
455;365;321;305;308;334
457;468;468;469;471;482
457;551;611;647;658;640
483;422;398;390;394;405
501;450;418;400;396;416
507;600;654;682;686;665
531;515;516;521;524;517
558;467;413;384;376;393
565;619;645;657;655;645
577;621;653;672;673;650
602;503;450;424;417;434
601;608;604;598;592;595
595;685;741;772;777;752
611;547;520;510;509;515
611;567;537;520;516;532
597;700;759;789;795;773
601;591;599;608;615;612
606;528;484;462;460;484
590;661;700;721;728;725
584;640;683;712;723;711
599;511;468;451;456;483
592;610;616;620;623;635
579;676;740;777;791;776
587;529;508;502;510;526
578;544;522;512;516;541
562;670;736;772;784;770
569;560;569;581;594;598
573;499;457;439;441;470
557;632;674;699;709;711
548;605;649;678;692;683
561;476;435;420;427;458
550;574;583;591;596;612
538;635;701;741;757;746
550;491;468;464;473;492
545;512;491;482;487;512
529;636;701;739;752;739
533;523;532;543;557;563
544;469;427;408;411;440
534;608;649;675;685;686
535;584;623;650;663;654
552;463;419;402;406;435
543;567;575;582;585;597
535;629;691;729;743;729
552;488;462;455;460;476
549;516;494;484;485;507
533;641;705;741;752;735
538;526;533;543;554;557
543;471;431;413;415;441
530;609;653;680;691;691
527;577;617;644;658;649
545;458;415;399;404;434
540;566;576;583;587;599
528;623;686;725;739;725
541;477;451;444;452;469
533;504;486;478;482;505
523;629;694;731;744;728
531;514;519;527;540;545
536;464;423;404;407;435
526;604;649;675;687;686
524;569;607;633;646;638
536;450;407;391;395;426
527;556;569;578;583;594
518;611;673;713;727;713
533;466;439;431;438;456
528;501;481;474;478;500
514;621;686;723;736;720
519;501;505;515;527;532
525;456;416;398;400;428
515;597;645;672;684;683
516;559;595;621;634;626
530;444;400;384;389;419
521;553;567;576;581;592
511;603;667;705;720;705
528;460;431;423;430;448
528;501;483;476;479;500
513;619;684;721;733;717
519;499;501;509;520;527
527;457;417;399;401;430
513;597;646;675;686;685
510;551;588;613;626;619
526;438;396;380;385;415
517;550;566;576;581;592
507;597;659;698;712;698
524;453;423;414;421;440
519;497;480;473;476;498
508;613;678;716;727;712
513;490;491;499;509;517
515;448;409;393;395;425
497;586;638;668;680;680
491;532;569;595;610;606
500;418;378;364;370;402
487;528;548;561;569;581
477;570;633;675;691;678
496;425;396;389;397;418
492;473;459;454;460;482
479;587;653;691;705;691
495;468;466;473;485;493
510;439;398;379;381;409
503;587;636;664;673;669
510;541;570;590;601;594
530;440;393;373;374;401
526;560;575;583;586;590
521;606;663;697;707;688
536;460;426;413;417;433
532;512;497;490;490;507
523;626;690;726;736;717
532;503;499;503;512;518
535;469;430;412;413;440
522;612;663;695;705;699
520;552;583;606;618;613
530;446;403;386;390;420
512;557;578;592;598;606
489;582;647;687;704;689
484;420;395;390;401;425
450;451;451;456;468;494
409;535;615;666;690;685
403;391;401;420;446;466
459;388;351;339;349;387
600;634;654;667;669;660
744;691;662;645;626;602
811;660;561;497;460;458
783;797;780;755;720;692
717;804;850;863;845;797
645;598;576;561;554;553
570;596;611;619;624;636
516;655;749;807;833;820
499;493;513;539;570;591
483;440;425;430;454;499
458;566;638;686;719;733
449;487;528;564;595;610
461;384;349;343;362;408
447;498;527;549;567;588
442;528;590;631;653;649
454;380;349;342;355;386
450;443;436;436;444;470
440;546;613;654;672;661
454;419;413;420;434;448
462;400;365;350;354;386
452;547;602;634;646;643
453;479;505;526;539;537
469;386;343;326;329;359
458;507;532;547;553;559
451;534;591;627;641;625
466;389;355;343;350;373
462;455;449;447;452;470
448;555;622;662;677;661
457;423;417;423;436;448
458;402;370;357;361;392
443;543;602;638;651;646
440;465;493;517;532;531
452;372;331;316;323;354
437;490;518;536;546;554
429;511;569;606;623;610
442;365;331;322;332;356
432;431;428;429;437;457
422;528;596;637;654;641
430;394;388;394;408;423
429;375;345;334;340;372
412;514;575;611;627;623
410;433;460;482;498;501
419;341;301;288;294;327
404;460;490;511;521;530
397;478;535;573;590;577
415;336;302;293;302;328
412;411;407;409;416;435
408;511;576;616;632;618
431;387;375;377;387;401
445;385;349;333;334;362
446;539;592;623;631;620
466;472;487;500;508;502
498;405;353;327;322;345
509;550;566;575;572;568
525;585;626;649;651;624
558;461;411;387;381;393
568;555;539;527;518;523
571;661;714;742;744;716
595;539;517;507;505;506
604;540;498;474;466;483
596;689;739;764;766;746
602;607;620;630;633;622
615;528;478;454;448;468
604;657;681;693;693;689
600;668;716;744;751;728
615;528;485;467;468;487
603;605;601;599;599;610
591;691;756;792;803;785
600;553;539;538;546;558
599;547;516;501;503;529
582;685;744;778;789;778
582;592;611;627;639;639
592;511;468;449;451;479
576;635;666;685;692;696
564;637;689;721;734;721
577;494;456;442;449;475
567;574;574;576;581;598
551;655;722;763;778;765
561;516;503;504;515;531
558;511;484;471;476;505
542;646;709;746;759;751
545;551;569;586;601;603
556;475;432;415;418;448
540;601;634;654;663;668
534;602;652;684;698;686
553;467;426;411;417;444
546;553;553;555;559;575
534;634;699;738;753;739
547;497;482;480;489;504
548;500;471;457;460;487
535;637;699;734;745;733
539;542;556;571;584;585
551;470;426;406;408;436
539;602;635;655;661;663
531;598;646;677;689;676
546;461;421;406;411;438
535;547;551;553;557;573
522;624;691;732;747;733
534;484;469;468;478;494
534;490;463;452;456;483
519;624;687;724;737;726
522;524;539;555;569;571
532;455;412;394;397;426
522;587;622;643;652;655
519;582;628;659;672;660
535;448;406;391;397;424
528;541;544;547;551;565
520;618;683;721;735;721
534;480;461;457;466;482
535;491;464;451;453;479
520;624;687;722;733;720
523;521;534;548;560;562
534;456;412;394;395;423
521;588;624;646;655;656
518;578;623;654;666;655
533;447;405;389;394;422
524;540;544;548;553;567
508;610;677;715;731;717
521;468;450;447;456;473
522;482;458;447;451;476
511;617;680;716;727;715
519;514;525;538;550;553
529;452;409;390;391;419
517;586;624;646;654;656
514;573;616;645;658;647
532;444;401;385;390;418
522;541;546;550;555;568
509;609;674;713;727;714
521;466;446;442;451;467
518;481;457;448;451;476
504;612;675;713;725;711
511;504;513;527;540;543
519;443;401;382;385;414
496;572;613;638;649;652
483;545;592;624;640;632
496;412;374;361;370;402
492;513;523;530;537;553
485;582;647;687;703;692
500;441;419;415;424;443
500;463;439;430;433;459
493;597;659;695;707;693
510;497;502;511;521;524
525;446;400;379;377;403
519;588;625;647;653;651
521;571;610;634;643;631
541;450;405;386;387;413
533;554;561;564;565;575
523;618;681;718;731;713
539;477;452;445;451;465
535;501;478;467;468;491
521;628;692;728;739;722
528;517;524;534;545;548
538;463;421;403;403;430
524;599;641;667;676;676
524;573;612;640;653;643
532;446;403;388;394;423
509;540;554;563;570;583
482;586;656;699;719;707
470;422;408;409;423;447
435;423;417;419;433;465
393;522;603;654;680;676
418;411;425;446;470;486
547;435;374;347;347;377
705;701;691;684;670;656
794;764;742;723;696;658
812;679;590;531;493;487
756;775;764;743;712;689
671;785;850;878;870;829
606;578;573;572;575;578
550;558;565;574;586;607
501;639;731;789;818;811
482;491;519;551;584;603
476;422;401;401;425;471
455;547;607;651;681;699
448;503;552;591;621;631
459;378;344;338;357;402
449;484;503;519;535;559
442;537;603;647;670;666
459;394;369;365;378;404
455;430;413;408;416;443
445;552;618;657;672;660
455;436;440;450;464;473
460;391;352;335;338;369
447;531;579;609;620;621
448;492;529;556;570;565
464;378;336;320;326;357
456;489;503;514;520;531
448;541;603;642;658;644
467;399;371;362;370;389
462;439;422;415;419;440
447;556;622;661;674;658
454;436;439;449;461;468
463;395;356;340;343;372
449;535;584;615;627;626
446;490;527;555;568;563
458;375;334;320;326;357
446;483;502;514;522;534
432;527;592;633;651;637
443;378;353;347;357;379
434;416;404;402;409;433
418;529;599;641;657;644
425;405;409;421;436;447
428;364;328;315;320;352
410;500;554;588;602;603
403;447;485;514;531;529
414;332;294;282;291;325
403;444;464;479;489;502
398;490;553;593;612;600
422;350;321;312;321;343
428;404;387;382;386;408
424;526;588;625;636;620
444;413;408;413;421;427
460;387;344;324;322;348
460;541;586;611;619;612
477;503;529;547;553;542
509;412;359;336;333;356
518;545;553;556;552;552
528;603;652;680;684;658
561;475;432;410;406;414
574;542;517;501;492;500
575;670;723;750;750;721
597;556;543;539;538;534
609;534;486;460;451;467
601;683;727;750;751;736
604;631;655;671;674;659
622;529;480;456;453;473
608;646;661;669;668;668
595;680;737;770;780;758
609;532;497;483;486;502
604;586;572;565;566;582
590;694;757;794;804;785
595;564;558;563;573;580
595;531;493;476;477;505
580;672;725;756;766;762
576;606;636;658;670;666
583;499;456;439;444;474
570;615;636;650;656;665
559;646;706;742;756;741
573;497;465;454;461;483
565;554;543;539;544;564
550;657;724;762;776;762
559;527;523;527;539;551
560;500;464;448;451;481
545;640;695;728;740;737
543;572;601;623;637;635
554;471;428;411;416;448
540;587;611;626;633;641
531;615;675;711;726;712
544;467;434;423;431;454
540;529;520;516;521;541
531;635;700;737;751;737
544;507;499;502;513;525
545;484;447;431;433;463
530;625;680;713;724;718
530;555;582;602;615;612
543;458;414;396;400;430
533;580;603;616;623;629
525;606;663;697;711;695
539;460;425;413;419;441
532;524;516;514;517;535
520;624;691;729;742;728
532;495;487;491;502;514
534;475;440;425;428;458
519;616;673;707;718;713
518;542;568;588;601;599
533;449;406;389;392;422
524;573;598;613;619;625
518;597;652;686;701;684
532;453;417;405;411;433
528;522;515;512;516;533
517;621;687;724;738;722
528;489;481;483;493;506
531;474;440;425;426;457
518;615;672;705;716;710
516;535;560;579;592;590
527;444;401;384;387;417
513;566;593;609;617;623
507;585;640;675;689;674
524;442;405;393;401;424
516;513;508;507;511;529
502;607;673;712;728;713
516;475;465;468;479;493
519;463;430;415;418;448
506;605;663;697;708;702
509;525;547;566;578;577
525;441;397;378;381;409
510;565;593;609;616;620
494;574;630;665;679;664
499;424;391;381;390;414
488;492;492;496;503;522
482;587;654;696;713;701
496;454;444;447;460;476
497;444;413;400;405;437
484;585;645;680;693;686
493;505;526;544;557;556
512;427;382;363;365;393
506;559;585;600;606;609
509;577;626;657;668;650
531;443;400;383;387;408
525;523;517;514;515;529
515;615;678;715;727;709
530;483;468;468;475;486
535;480;446;431;431;458
523;622;680;713;722;710
527;536;553;569;579;577
539;456;411;391;392;418
526;583;613;629;635;637
519;590;641;672;685;669
533;449;411;397;402;425
526;530;529;530;534;549
511;615;682;722;736;721
511;470;460;462;475;490
496;455;431;422;429;460
455;572;643;687;704;701
431;458;490;518;540;549
409;351;326;321;337;377
431;492;530;557;575;589
570;590;612;631;639;623
729;565;473;424;404;413
787;727;672;630;595;581
768;836;863;862;835;788
729;678;648;624;601;585
655;629;607;588;575;581
569;707;791;836;846;826
524;564;607;641;665;667
506;454;435;437;457;496
474;557;611;651;680;698
457;539;605;654;687;690
466;391;364;363;388;430
451;469;480;493;513;544
441;547;620;667;694;694
454;407;396;401;420;447
455;412;387;379;389;426
442;549;612;651;668;665
450;455;470;488;503;510
463;385;343;326;330;362
455;519;553;575;584;590
452;517;565;597;610;599
470;385;345;331;336;364
463;475;478;482;486;501
453;555;620;660;676;662
466;415;399;398;408;424
467;424;398;388;391;419
457;562;624;661;673;661
465;464;478;494;506;508
478;398;354;336;338;366
464;530;566;588;596;598
455;520;568;599;614;601
470;386;346;332;339;367
460;476;481;486;492;508
444;547;615;657;673;661
454;404;389;389;400;418
451;412;389;381;387;415
434;543;608;648;662;652
437;437;453;471;486;491
444;370;330;315;320;350
429;501;541;566;579;583
419;485;533;567;585;575
431;350;313;301;312;343
420;441;451;458;467;485
409;512;580;623;642;631
423;371;355;354;366;386
423;386;364;356;361;390
412;520;584;623;636;625
423;418;430;446;459;463
442;363;319;300;303;331
437;504;540;563;571;572
447;499;539;566;577;564
478;384;337;317;318;344
488;496;495;493;492;502
499;584;639;670;677;656
532;460;428;414;413;421
548;496;460;440;432;447
555;646;697;723;721;696
575;554;551;553;552;543
594;507;453;424;414;428
591;653;683;697;696;684
594;640;674;693;697;675
615;519;469;445;441;460
608;623;625;623;619;625
597;690;750;783;791;769
609;547;521;512;514;524
603;567;542;529;528;548
587;694;756;791;799;781
590;581;588;599;609;609
595;520;478;459;460;486
581;655;697;721;731;729
574;627;669;697;710;699
584;498;456;441;448;476
572;597;607;614;620;633
560;658;723;762;778;765
575;513;489;484;492;511
570;537;515;507;510;535
553;660;725;762;774;760
555;543;551;563;576;581
560;487;446;428;431;460
544;622;666;692;704;706
541;591;632;660;675;667
553;467;425;409;416;447
542;569;580;588;594;608
531;627;691;731;747;735
544;481;457;450;459;479
539;509;488;481;485;510
526;633;698;735;747;733
532;518;524;534;546;552
539;467;426;408;409;437
526;606;651;677;688;688
525;573;612;639;653;644
540;453;410;394;400;430
531;559;571;579;585;597
524;617;680;719;734;720
543;476;448;440;446;464
540;510;490;481;482;505
523;631;695;732;743;727
527;512;516;527;538;542
532;462;422;405;407;435
519;601;648;676;687;686
522;565;602;629;643;635
539;450;406;389;395;424
528;558;570;579;584;595
518;610;672;711;726;712
534;467;439;430;437;455
528;502;483;477;479;501
515;622;686;724;735;721
523;504;506;514;526;532
535;462;420;401;403;430
524;605;651;678;687;686
520;562;598;622;635;627
526;442;400;385;390;420
507;545;563;575;582;593
498;593;658;698;716;703
513;447;420;413;422;442
511;488;472;467;471;494
498;605;671;710;723;709
507;485;487;496;508;516
514;445;405;388;391;419
502;587;635;665;676;675
508;545;578;603;616;609
528;439;394;375;380;408
524;556;570;577;581;589
518;606;665;701;713;696
534;461;429;418;423;440
533;508;490;482;483;502
521;625;688;724;734;716
529;504;502;509;518;523
534;465;425;407;408;434
521;607;656;686;696;693
521;557;590;614;627;619
535;448;405;387;392;420
526;562;579;590;595;603
516;605;666;703;718;702
529;457;427;417;424;443
518;501;488;484;488;508
493;606;674;715;730;716
489;471;475;487;501;512
475;420;390;380;387;421
430;537;601;642;663;668
399;455;504;542;568;573
481;384;339;326;336;374
617;598;583;576;571;575
719;736;745;747;733;698
769;643;565;516;486;477
746;707;663;628;597;587
683;793;850;870;856;813
621;618;625;630;630;621
562;531;515;510;516;539
510;631;709;759;783;784
486;541;594;637;668;674
483;415;391;391;417;461
464;518;553;579;604;629
451;546;616;664;694;695
466;396;370;368;387;422
464;452;444;445;458;490
453;561;628;670;689;684
465;436;433;441;456;473
469;406;370;356;362;396
456;549;604;637;650;651
459;489;519;542;557;555
471;388;346;331;336;367
461;506;530;543;551;559
452;540;600;636;653;637
469;394;362;351;359;381
465;454;444;442;446;467
