ppg
65.28419928282597
63.233386739909974
61.768520637827116
59.22941939421683
56.88563363088426
57.37392233157855
53.467612726024264
50.53788052185855
51.123826962691695
48.09643701838712
45.85030899519341
42.529945830472265
39.5025558861677
40.08850232700084
35.20561532005799
31.494621194781413
32.27588311589227
28.27191577019913
25.342183566033416
23.096055542839704
20.752269779507134
21.24055848020142
18.310826276035705
16.064698252841993
16.55298695353628
14.50217441062028
13.037308308537423
12.45136186770428
11.670099946593423
11.767757686732281
9.81460288395514
8.349736781872283
8.74036774242771
6.6895551995117115
5.224689097428855
2.68558785381857
0.43945983062485694
0.9277485313191425
-2.0019836728465705
-4.150453955901427
-3.662165255207141
-7.568474860761425
-10.498207064927138
-13.720912489509422
-16.84596017395285
-16.16235599298085
-20.068665598535134
-22.998397802700847
-22.314793621728846
-26.318760967421987
-29.2484931715877
-32.37354085603113
-35.49858854047456
-34.81498435950255
-38.72129396505684
-41.651026169222554
-41.065079728389414
-43.018234531166556
-44.48310063324941
-46.04562447547112
-47.60814831769284
-47.21751735713741
-49.26832990005341
-50.635538261997404
-50.34256504158083
-50.44022278171969
-50.34256504158083
-49.365987640192266
-48.68238345922026
-48.78004119935912
-46.826886396581976
-45.362020294499125
-45.654993514915695
-40.772106507972836
-37.06111238269627
-31.201647974364842
-25.830472266727703
-27.002365148393988
-19.092088197146563
-13.232623788815136
-14.50217441062028
-5.615320057984283
0.9277485313191425
7.080186160067139
13.330281528953995
11.963073167009995
18.017853055619135
22.314793621728846
21.338216220340275
26.318760967421987
30.029755092698558
32.95948729686427
36.182192721446555
35.4009308003357
37.4517433432517
38.91660944533455
38.62363622491798
40.57679102769512
42.04165712977798
42.62760357061112
43.40886549172198
43.21355001144427
43.311207751583126
43.21355001144427
43.21355001144427
42.236972610055695
41.5533684290837
39.79552910658427
38.23300526436255
38.525978484779124
36.57282368200198
35.10795757991913
35.4009308003357
32.471198596169984
30.22507057297627
26.90470740825513
23.779659723811704
24.4632639047837
20.45929655909056
17.52956435492485
18.21316853589685
13.232623788815136
9.619287403677424
5.615320057984283
1.7090104524299992
2.5879301136797133
-1.3183794918745708
-4.248111696040284
-3.5645075150682843
-8.545052262149996
-12.158388647287708
-15.185778591592278
-18.310826276035705
-17.627222095063708
-21.63118944075685
-24.560921644922562
-23.87731746395056
-30.71335927367056
-35.889219501029984
-42.33463035019455
-48.48706797894255
-47.11985961699855
-55.03013656824598
-60.8896009765774
-59.62005035477226
-62.745098039215684
-64.89356832227054
-64.3076218814374
-64.40527962157626
-64.40527962157626
-61.475547417410546
-59.22941939421683
-59.71770809491112
-52.97932402532997
-47.705806057831694
-44.09246967269398
-40.08850232700084
-40.96742198825055
-37.94003204394598
-35.69390402075227
-36.182192721446555
-37.94003204394598
-39.5025558861677
-40.08850232700084
-40.86976424811169
-40.67444876783398
-41.651026169222554
-42.43228809033341
-42.236972610055695
-43.21355001144427
-43.89715419241627
-43.70183871213855
-43.79949645227741
-43.70183871213855
-42.822919050888835
-42.04165712977798
-42.13931486991684
-39.307240405889985
-37.06111238269627
-32.764171816586554
-28.95551995117113
-29.736781872281988
-23.779659723811704
-19.385061417563133
-20.361638818951704
-12.549019607843137
-6.591897459372854
0.537117570763714
7.568474860761425
6.005951018539712
14.013885709925994
19.87335011825742
18.506141756313422
27.392996108949415
34.0337224383917
39.20958266575113
44.67841611352712
43.50652323186084
50.44022278171969
55.51842526894026
54.346532387273975
59.42473487449455
63.03807125963226
66.94438086518655
70.85069047074083
69.9717708094911
73.97573815518425
76.8078126192111
76.22186617837797
78.17502098115511
79.63988708323797
80.2258335240711
81.00709544518196
80.81177996490425
80.81177996490425
80.81177996490425
80.81177996490425
77.88204776073853
75.63591973754482
71.33897917143511
67.53032730601969
68.31158922713054
61.475547417410546
56.29968719005112
57.37392233157855
48.48706797894255
41.84634164950027
34.717326619363696
27.68596932936599
29.2484931715877
20.361638818951704
13.720912489509422
15.185778591592278
8.154421301594567
3.076218814373999
-2.392614633401999
-7.861448081177996
-6.6895551995117115
-11.670099946593423
-15.381094071869994
-14.50217441062028
-18.506141756313422
-21.43587396047913
-23.682001983672848
-26.025787747005417
-25.439841306172273
-26.514076447699704
-27.295338368810558
-27.100022888532845
-27.100022888532845
-27.100022888532845
-27.100022888532845
-27.100022888532845
-27.100022888532845
-27.100022888532845
-27.100022888532845
-27.002365148393988
-27.002365148393988
-27.002365148393988
-26.025787747005417
-25.342183566033416
-25.439841306172273
-25.439841306172273
-25.439841306172273
-25.439841306172273
-26.318760967421987
-27.100022888532845
-27.881284809643702
-28.66254673075456
-28.467231250476843
-30.420386053253985
-31.885252155336843
-31.494621194781413
-34.424353398947126
-36.67048142214084
-38.03768978408484
-39.69787136644541
-39.307240405889985
-40.28381780727855
-41.065079728389414
-40.86976424811169
-41.84634164950027
-42.529945830472265
-41.45571068894484
-40.67444876783398
-40.86976424811169
-37.94003204394598
-35.69390402075227
-36.182192721446555
-30.322728313115128
-25.92813000686656
-19.18974593728542
-13.037308308537423
-14.404516670481422
-5.517662317845426
1.0254062714579995
-0.34180209048599985
8.44739452201114
15.088120851453422
20.263981078812847
25.830472266727703
24.560921644922562
30.518043793392845
34.91264209964141
33.93606469825284
36.96345464255741
39.20958266575113
40.57679102769512
42.13931486991684
41.84634164950027
42.822919050888835
43.50652323186084
43.311207751583126
42.43228809033341
41.651026169222554
40.86976424811169
40.08850232700084
40.186160067139696
37.35408560311284
35.10795757991913
35.596246280613414
31.592278934920273
28.66254673075456
24.560921644922562
20.654612039368278
21.533531700617992
17.52956435492485
14.599832150759136
15.185778591592278
10.302891584649425
6.591897459372854
3.662165255207141
0.43945983062485694
1.1230640115968566
-0.8300907911802854
-2.2949568932631417
-1.9043259327077133
-5.810635538261997
-8.74036774242771
-13.81857022964828
-18.40848401617456
-17.43190661478599
-23.389028763256274
-27.783627069504846
-26.807049668116274
-29.834439612420844
-31.9829098954757
-33.44777599755856
-35.010299839780274
-34.61966887922484
-33.74074921797513
-32.95948729686427
-33.15480277714199
-31.201647974364842
-29.736781872281988
-28.076600289921416
-26.514076447699704
-26.90470740825513
-27.783627069504846
-28.467231250476843
-28.369573510337986
-32.178225375753414
-35.10795757991913
-36.37750820172427
-37.94003204394598
-37.64705882352941
-39.600213626306555
-41.065079728389414
-40.67444876783398
-42.72526131074998
-44.09246967269398
-43.79949645227741
-43.89715419241627
-43.79949645227741
-44.77607385366598
-45.45967803463798
-45.362020294499125
-46.33859769588769
-47.0222018768597
-47.80346379797055
-48.584725719081405
-48.38941023880369
-49.365987640192266
-50.04959182116426
-49.85427634088655
-48.97535667963683
-48.19409475852598
-44.48310063324941
-41.45571068894484
-42.13931486991684
-36.27985046158541
-31.787594415197987
-32.764171816586554
-24.95155260547799
-18.994430457007706
-12.74433508812085
-6.494239719233997
-7.861448081177996
1.9043259327077133
9.228656443121995
7.666132600900283
16.55298695353628
23.19371328297856
29.346150911726557
35.596246280613414
34.22903791866941
40.186160067139696
44.580758373388264
43.604180971999696
49.56130312046998
53.95590142671855
56.7879758907454
59.91302357518883
59.22941939421683
62.15915159838254
64.40527962157626
63.91699092088197
64.89356832227054
65.57717250324254
66.3584344243534
67.13969634546426
66.94438086518655
65.96780346379796
65.28419928282597
65.38185702296482
65.28419928282597
65.28419928282597
64.3076218814374
63.6240177004654
63.72167544060426
61.768520637827116
60.30365453574426
60.59662775616083
59.522392614633404
58.74113069352254
57.95986877241169
57.178606851300835
57.37392233157855
55.32310978866255
53.85824368657969
54.15121690699626
52.19806210421912
50.73319600213626
49.073014419775696
47.51049057755398
47.80346379797055
44.873731593804834
42.62760357061112
43.11589227130541
41.16273746852827
39.600213626306555
37.06111238269627
34.81498435950255
35.303273060196844
32.27588311589227
30.127412832837415
30.518043793392845
27.588311589227132
25.342183566033416
22.998397802700847
20.654612039368278
21.14290074006256
17.236591134508277
14.306858930342566
14.892805371175708
10.986495765621424
7.959105821316854
4.834058136873426
1.7090104524299992
2.392614633401999
-1.513694972152285
-4.443427176317998
-3.7598229953459983
-7.666132600900283
-10.693522545204852
-12.84199282825971
-15.185778591592278
-14.697489890897993
-16.748302433813993
-18.21316853589685
-17.82253757534142
-19.775692378118563
-21.24055848020142
-22.90074006256199
-24.365606164644845
-24.072632944228275
-25.049210345616846
-25.830472266727703
-25.63515678644999
-25.63515678644999
-25.63515678644999
-25.63515678644999
-25.63515678644999
-25.63515678644999
-22.705424582284277
-20.45929655909056
-20.947585259784848
-17.041275654230564
-14.11154345006485
-9.033340962844282
-4.443427176317998
-5.420004577706569
3.2715342946517127
9.912260624093996
8.44739452201114
17.334248874647134
23.974975204089418
31.9829098954757
39.79552910658427
38.03768978408484
47.90112153810941
55.22545204852369
53.66292820630198
61.5732051575494
67.43266956588083
72.80384527351796
78.27267872129397
77.00312809948882
82.96025024795911
87.35484855420768
86.37827115281911
90.38223849851225
93.31197070267795
94.48386358434425
96.14404516670481
95.75341420614939
95.75341420614939
95.75341420614939
95.65575646601053
94.67917906462196
93.8979171435111
92.14007782101167
90.57755397878996
90.87052719920653
87.94079499504082
85.6946669718471
86.1829556725414
78.37033646143283
72.41321431296254
63.233386739909974
54.7371633478294
56.59266041046769
44.77607385366598
35.889219501029984
37.84237430380713
27.881284809643702
20.55695429922942
15.47875181200885
9.912260624093996
11.08415350576028
7.080186160067139
4.150453955901427
4.736400396734569
3.662165255207141
2.9785610742351416
4.052796215762569
4.736400396734569
4.638742656595713
3.662165255207141
2.9785610742351416
3.076218814373999
1.1230640115968566
-0.24414435034714274
-1.8066681925688564
-3.36919203479057
-2.9785610742351416
-5.908293278400855
-8.154421301594567
-7.666132600900283
-12.549019607843137
-16.260013733119706
-21.14290074006256
-25.732814526588847
-24.756237125200276
-31.592278934920273
-36.768139162279695
-35.596246280613414
-41.5533684290837
-45.947966735332265
-49.75661860074769
-53.66292820630198
-52.78400854505226
-56.7879758907454
-59.71770809491112
-59.03410391393912
-61.96383611810483
-64.20996414129854
-65.57717250324254
-67.13969634546426
-66.74906538490883
-68.70222018768597
-70.16708628976883
-69.87411306935225
-69.87411306935225
-69.87411306935225
-69.87411306935225
-69.77645532921339
-69.77645532921339
-67.82330052643626
-66.3584344243534
-66.65140764476998
-63.72167544060426
-61.475547417410546
-58.1551842526894
-55.03013656824598
-55.713740749217976
-49.75661860074769
-45.362020294499125
-46.33859769588769
-39.40489814602884
-34.22903791866941
-27.783627069504846
-21.533531700617992
-22.90074006256199
-16.84596017395285
-12.45136186770428
-13.427939269092851
-7.470817120622568
-3.076218814373999
0.6347753109025711
4.541084916456855
3.662165255207141
6.6895551995117115
8.935683222705425
8.44739452201114
10.400549324788281
11.865415426871138
12.549019607843137
13.330281528953995
13.13496604867628
12.256046387426567
11.47478446631571
11.670099946593423
9.71694514381628
8.154421301594567
5.615320057984283
3.36919203479057
3.8574807354848555
0.04882887006942855
-2.8809033340962844
-2.2949568932631417
-6.201266498817426
-9.130998702983138
-12.353704127565424
-15.47875181200885
-14.697489890897993
-17.724879835202564
-19.971007858396277
-19.48271915770199
-22.412451361867703
-24.560921644922562
-27.002365148393988
-29.346150911726557
-28.760204470893417
-32.6665140764477
-35.596246280613414
-35.010299839780274
-38.91660944533455
-41.84634164950027
-44.97138933394369
-48.09643701838712
-47.412832837415124
-51.31914244296941
-54.24887464713512
-53.56527046616312
-56.59266041046769
-58.74113069352254
-60.2059967956054
-61.768520637827116
-61.37788967727169
-61.475547417410546
-61.37788967727169
-61.37788967727169
-62.35446707866026
-63.03807125963226
-61.86617837796597
-61.182574196993976
-61.28023193713283
-60.30365453574426
-59.522392614633404
-59.71770809491112
-58.643472953383686
-57.95986877241169
-57.08094911116198
-56.29968719005112
-56.49500267032883
-56.39734493018997
-56.39734493018997
-56.39734493018997
-57.37392233157855
-58.057526512550545
-58.8387884336614
-59.62005035477226
-59.42473487449455
-62.2568093385214
-64.50293736171511
-64.01464866102083
-66.94438086518655
-69.0928511482414
-70.4600595101854
-72.12024109254597
-71.72961013199054
-72.70618753337911
-73.3897917143511
-73.19447623407339
-72.31555657282368
-71.53429465171283
-67.82330052643626
-64.79591058213168
-65.47951476310368
-59.522392614633404
-55.127794308384836
-56.1043717097734
-48.19409475852598
-42.33463035019455
-34.0337224383917
-26.318760967421987
-28.076600289921416
-18.11551079575799
-10.79118028534371
-12.353704127565424
-3.36919203479057
3.076218814373999
9.228656443121995
15.47875181200885
14.11154345006485
20.16632333867399
24.560921644922562
23.58434424353399
27.588311589227132
30.518043793392845
31.787594415197987
33.3501182574197
32.95948729686427
32.08056763561456
31.2993057145037
31.494621194781413
28.564888990615703
26.318760967421987
20.16632333867399
14.892805371175708
16.064698252841993
10.009918364232853
5.615320057984283
6.591897459372854
2.5879301136797133
-0.24414435034714274
-0.537117570763714
-1.416037232013428
-1.2207217517357138
0.537117570763714
2.0019836728465705
1.7090104524299992
5.615320057984283
8.545052262149996
10.693522545204852
13.13496604867628
12.549019607843137
11.767757686732281
10.986495765621424
11.08415350576028
6.298924238956283
2.5879301136797133
-1.2207217517357138
-5.127031357289998
-4.248111696040284
-10.205233844510566
-14.599832150759136
-13.623254749370565
-18.60379949645228
-22.314793621728846
-25.24452582589456
-28.369573510337986
-27.68596932936599
-30.71335927367056
-32.86182955672541
-32.37354085603113
-34.424353398947126
-35.889219501029984
-36.475165941863125
-37.256427862973986
-37.06111238269627
-37.15877012283513
-37.06111238269627
-37.06111238269627
-38.03768978408484
-38.72129396505684
-38.62363622491798
-38.62363622491798
-38.62363622491798
-39.5025558861677
-40.28381780727855
-40.08850232700084
-39.11192492561227
-38.42832074464027
-37.549401083390556
-36.768139162279695
-36.96345464255741
-35.010299839780274
-33.545433737697415
-33.838406958113985
-30.908674753948272
-28.66254673075456
-26.318760967421987
-23.974975204089418
-24.4632639047837
-21.43587396047913
-19.287403677424276
-19.775692378118563
-16.748302433813993
-14.50217441062028
-12.158388647287708
-9.81460288395514
-10.302891584649425
-7.373159380483711
-5.127031357289998
-5.615320057984283
-2.68558785381857
-0.43945983062485694
2.783245593957427
5.810635538261997
5.127031357289998
10.10757610437171
13.720912489509422
12.939650568398566
16.943617914091707
19.87335011825742
22.998397802700847
26.123445487144274
25.439841306172273
28.467231250476843
30.615701533531702
30.127412832837415
34.0337224383917
36.96345464255741
40.08850232700084
43.21355001144427
42.529945830472265
45.55733577477684
47.705806057831694
47.21751735713741
50.14724956130312
52.39337758449683
54.7371633478294
57.08094911116198
56.49500267032883
58.54581521324483
59.91302357518883
59.62005035477226
60.59662775616083
61.28023193713283
62.061493858243686
62.84275577935454
62.64744029907683
63.6240177004654
64.3076218814374
64.11230640115969
64.20996414129854
64.11230640115969
64.11230640115969
64.11230640115969
64.11230640115969
63.13572899977112
62.35446707866026
62.45212481879911
63.42870222018769
64.11230640115969
63.91699092088197
63.91699092088197
63.91699092088197
63.91699092088197
63.91699092088197
63.91699092088197
63.819333180743115
63.819333180743115
63.819333180743115
63.819333180743115
63.72167544060426
64.69825284199283
65.38185702296482
65.28419928282597
66.16311894407569
66.94438086518655
67.7256427862974
68.4092469672694
68.21393148699168
69.19050888838025
69.9717708094911
69.77645532921339
70.75303273060197
71.43663691157397
71.24132143129626
71.24132143129626
71.24132143129626
71.24132143129626
71.24132143129626
71.1436636911574
70.16708628976883
69.38582436865796
68.60456244754711
67.82330052643626
67.92095826657511
66.94438086518655
66.16311894407569
66.3584344243534
64.40527962157626
62.84275577935454
61.28023193713283
59.71770809491112
60.01068131532769
57.08094911116198
54.83482108796826
55.32310978866255
52.295719844357976
50.14724956130312
45.85030899519341
41.943999389639124
42.822919050888835
38.818951705195694
35.889219501029984
36.475165941863125
32.471198596169984
29.541466392004274
27.295338368810558
24.95155260547799
25.439841306172273
23.48668650339513
22.021820401312276
22.314793621728846
21.24055848020142
20.55695429922942
21.63118944075685
22.314793621728846
22.21713588158999
26.025787747005417
28.95551995117113
28.27191577019913
29.443808651865414
30.127412832837415
28.95551995117113
28.27191577019913
28.369573510337986
27.392996108949415
26.709391927977418
26.807049668116274
27.68596932936599
28.467231250476843
31.201647974364842
33.44777599755856
32.86182955672541
35.889219501029984
38.03768978408484
37.549401083390556
41.45571068894484
44.38544289311055
45.654993514915695
47.21751735713741
46.92454413672083
44.09246967269398
41.84634164950027
42.33463035019455
36.475165941863125
31.9829098954757
27.295338368810558
22.60776684214542
23.58434424353399
19.58037689784085
16.650644693675137
17.236591134508277
13.330281528953995
10.400549324788281
8.154421301594567
5.810635538261997
6.298924238956283
2.392614633401999
-0.43945983062485694
0.04882887006942855
-2.8809033340962844
-5.0293736171511405
-7.373159380483711
-9.71694514381628
-9.228656443121995
-12.158388647287708
-14.404516670481422
-13.916227969787137
-15.869382772564279
-17.334248874647134
-19.87335011825742
-22.21713588158999
-21.728847180895706
-23.682001983672848
-25.146868085755703
-24.853894865339132
-26.807049668116274
-28.27191577019913
-30.811017013809415
-33.05714503700313
-32.56885633630884
-35.49858854047456
-37.74471656366827
-37.256427862973986
-41.16273746852827
-44.09246967269398
-47.21751735713741
-50.34256504158083
-49.56130312046998
-54.54184786755169
-58.1551842526894
-57.37392233157855
-62.2568093385214
-65.96780346379796
-69.87411306935225
-73.78042267490653
-72.80384527351796
-77.78439002059967
-81.39772640573739
-80.61646448462653
-84.52277409018082
-87.45250629434653
-89.69863431754024
-92.04242008087282
-91.45647364003968
-93.40962844281681
-94.87449454489968
-94.48386358434425
-95.55809872587167
-96.24170290684367
-97.02296482795452
-97.70656900892652
-97.51125352864881
-95.65575646601053
-94.09323262378882
-94.38620584420539
-91.45647364003968
-89.21034561684596
-82.96025024795911
-77.68673228046082
-78.76096742198825
-70.85069047074083
-64.9912260624094
-66.26077668421455
-58.350499732967116
-52.39337758449683
-46.04562447547112
-39.79552910658427
-41.16273746852827
-34.22903791866941
-29.053177691309987
-30.127412832837415
-24.17029068436713
-19.775692378118563
-16.943617914091707
-13.720912489509422
-14.404516670481422
-11.377126726176853
-9.228656443121995
-9.71694514381628
-7.666132600900283
-6.201266498817426
-4.638742656595713
-3.076218814373999
-3.36919203479057
-3.36919203479057
-3.36919203479057
-3.36919203479057
-3.36919203479057
-3.36919203479057
-4.345769436179141
-5.0293736171511405
-4.834058136873426
-4.931715877012284
-4.931715877012284
-4.931715877012284
-4.931715877012284
-4.931715877012284
-6.787212939650568
-8.252079041733426
-7.959105821316854
-9.912260624093996
-11.377126726176853
-11.08415350576028
-13.037308308537423
-14.50217441062028
-17.041275654230564
-19.385061417563133
-18.799114976729992
-21.826504921034562
-23.974975204089418
-23.48668650339513
-25.537499046311133
-27.002365148393988
-28.564888990615703
-30.127412832837415
-29.736781872281988
-31.68993667505913
-33.15480277714199
-32.86182955672541
-32.86182955672541
-32.86182955672541
-33.838406958113985
-34.52201113908598
-34.32669565880827
-35.303273060196844
-36.0845349813077
-35.889219501029984
-37.84237430380713
-39.307240405889985
-39.893186846723125
-40.67444876783398
-40.479133287556266
-40.57679102769512
-40.479133287556266
-40.479133287556266
-40.479133287556266
-40.479133287556266
-39.5025558861677
-38.72129396505684
-38.91660944533455
-36.96345464255741
-35.49858854047456
-35.79156176089113
-33.838406958113985
-32.27588311589227
-29.736781872281988
-27.49065384908827
-27.97894254978256
-25.92813000686656
-24.4632639047837
-24.756237125200276
-21.826504921034562
-19.58037689784085
-18.21316853589685
-16.55298695353628
-16.943617914091707
-13.037308308537423
-10.10757610437171
-10.693522545204852
-7.763790341039139
-5.517662317845426
-5.0293736171511405
-4.150453955901427
-4.345769436179141
-2.392614633401999
-0.9277485313191425
-1.3183794918745708
4.443427176317998
8.838025482566568
14.50217441062028
19.971007858396277
18.799114976729992
28.564888990615703
35.889219501029984
34.22903791866941
44.19012741283284
51.51445792324712
57.471580071717405
63.819333180743115
62.35446707866026
67.43266956588083
71.04600595101854
70.16708628976883
71.33897917143511
72.02258335240711
70.85069047074083
70.16708628976883
70.26474402990769
68.31158922713054
66.84672312504769
67.13969634546426
63.233386739909974
60.2059967956054
57.08094911116198
53.95590142671855
54.639505607690545
50.635538261997404
47.60814831769284
48.291752498664835
44.28778515297169
41.358052948805984
40.08850232700084
38.42832074464027
38.818951705195694
36.768139162279695
35.303273060196844
35.596246280613414
34.61966887922484
33.838406958113985
33.05714503700313
32.27588311589227
32.471198596169984
32.37354085603113
32.37354085603113
32.37354085603113
31.396963454642556
30.615701533531702
28.857862211032273
27.392996108949415
27.68596932936599
24.756237125200276
22.510109102006563
22.998397802700847
18.11551079575799
14.404516670481422
10.498207064927138
6.591897459372854
7.470817120622568
1.513694972152285
-2.783245593957427
-1.8066681925688564
-6.787212939650568
-10.498207064927138
-14.404516670481422
-18.310826276035705
-17.43190661478599
-22.412451361867703
-26.123445487144274
-25.24452582589456
-28.27191577019913
-30.518043793392845
-32.86182955672541
-35.20561532005799
-34.61966887922484
-35.69390402075227
-36.37750820172427
-36.182192721446555
-38.1353475242237
-39.600213626306555
-40.28381780727855
-41.065079728389414
-40.86976424811169
-42.822919050888835
-44.28778515297169
-43.89715419241627
-44.873731593804834
-45.654993514915695
-45.45967803463798
-45.45967803463798
-45.45967803463798
-44.48310063324941
-43.70183871213855
-43.89715419241627
-40.96742198825055
-38.72129396505684
-34.424353398947126
-30.615701533531702
-31.494621194781413
-25.537499046311133
-21.14290074006256
-22.119478141451133
-15.185778591592278
-10.009918364232853
-5.420004577706569
-0.7324330510414282
-1.8066681925688564
4.052796215762569
8.545052262149996
7.568474860761425
12.549019607843137
16.16235599298085
20.16632333867399
23.974975204089418
23.096055542839704
28.076600289921416
31.787594415197987
30.908674753948272
34.91264209964141
37.84237430380713
40.08850232700084
42.43228809033341
41.84634164950027
42.92057679102769
43.604180971999696
43.40886549172198
43.50652323186084
43.40886549172198
42.529945830472265
41.74868390936141
41.84634164950027
39.893186846723125
38.42832074464027
38.72129396505684
34.81498435950255
31.885252155336843
27.783627069504846
23.87731746395056
24.756237125200276
19.775692378118563
16.064698252841993
16.943617914091707
11.963073167009995
8.252079041733426
5.224689097428855
2.0996414129854277
2.783245593957427
-1.0254062714579995
-4.052796215762569
-3.36919203479057
-6.39658197909514
-8.545052262149996
-10.009918364232853
-11.572442206454566
-11.181811245899137
-14.11154345006485
-16.357671473258563
-15.869382772564279
-18.799114976729992
-21.045242999923705
-23.389028763256274
-25.732814526588847
-25.146868085755703
-27.1976806286717
-28.66254673075456
-28.369573510337986
-30.322728313115128
-31.787594415197987
-32.37354085603113
-33.15480277714199
-32.95948729686427
-33.93606469825284
-34.717326619363696
-34.52201113908598
-34.52201113908598
-34.52201113908598
-35.49858854047456
-36.182192721446555
-35.98687724116884
-36.96345464255741
-37.74471656366827
-37.549401083390556
-38.525978484779124
-39.307240405889985
-40.08850232700084
-40.772106507972836
-40.57679102769512
-41.5533684290837
-42.33463035019455
-42.13931486991684
-45.947966735332265
-48.97535667963683
-53.07698176546884
-56.88563363088426
-56.006713969634546
-60.01068131532769
-62.9404135194934
-62.2568093385214
-60.401312275883114
-58.936446173800256
-52.588693064774546
-47.21751735713741
-48.38941023880369
-35.69390402075227
-26.123445487144274
-28.27191577019913
-11.572442206454566
0.9277485313191425
13.427939269092851
25.92813000686656
23.096055542839704
37.06111238269627
47.31517509727627
45.069047074082555
54.15121690699626
60.694285496299685
66.84672312504769
73.09681849393453
71.63195239185168
77.68673228046082
81.98367284657053
81.00709544518196
85.98764019226367
89.60097657740138
91.65178912031739
93.99557488364995
93.50728618295567
95.46044098573282
96.92530708781567
96.53467612726024
97.51125352864881
98.19485770962082
97.12062256809338
96.33936064698253
96.43701838712138
93.50728618295567
91.26115815976196
91.74944686045625
88.72205691615167
86.57358663309682
83.15556572823682
80.03051804379339
80.71412222476539
74.85465781643397
70.36240177004655
71.33897917143511
65.38185702296482
60.8896009765774
55.22545204852369
49.75661860074769
50.928511482413974
43.99481193255512
38.818951705195694
39.99084458686198
33.05714503700313
27.881284809643702
23.291371023117417
18.60379949645228
19.58037689784085
14.599832150759136
10.888838025482567
11.767757686732281
6.787212939650568
3.076218814373999
1.0254062714579995
-1.2207217517357138
-0.7324330510414282
-2.783245593957427
-4.248111696040284
-3.8574807354848555
-4.931715877012284
-5.615320057984283
-5.420004577706569
-5.517662317845426
-5.517662317845426
-5.517662317845426
-5.517662317845426
-5.517662317845426
-5.517662317845426
-5.517662317845426
-5.517662317845426
-5.517662317845426
-5.517662317845426
-7.373159380483711
-8.838025482566568
-8.545052262149996
-10.498207064927138
-11.963073167009995
-14.50217441062028
-16.84596017395285
-16.260013733119706
-19.287403677424276
-21.43587396047913
-20.947585259784848
-24.853894865339132
-27.783627069504846
-30.029755092698558
-32.37354085603113
-31.885252155336843
-35.79156176089113
-38.72129396505684
-38.03768978408484
-40.08850232700084
-41.5533684290837
-41.16273746852827
-41.26039520866713
-41.26039520866713
-39.307240405889985
-37.84237430380713
-38.1353475242237
-33.252460517280845
-29.541466392004274
-23.682001983672848
-18.310826276035705
-19.48271915770199
-12.549019607843137
-7.373159380483711
-8.545052262149996
-0.6347753109025711
5.127031357289998
9.521629663538567
14.306858930342566
13.232623788815136
17.334248874647134
20.263981078812847
19.58037689784085
23.48668650339513
26.416418707560844
27.68596932936599
29.346150911726557
28.95551995117113
29.9320973525597
30.71335927367056
30.518043793392845
29.541466392004274
28.857862211032273
27.100022888532845
25.537499046311133
25.830472266727703
23.87731746395056
22.412451361867703
22.705424582284277
18.799114976729992
15.869382772564279
12.74433508812085
9.619287403677424
10.302891584649425
6.298924238956283
3.36919203479057
4.052796215762569
-0.8300907911802854
-4.541084916456855
-6.494239719233997
-8.935683222705425
-8.44739452201114
-11.377126726176853
-13.623254749370565
-13.13496604867628
-16.064698252841993
-18.21316853589685
-20.654612039368278
-22.998397802700847
-22.412451361867703
-24.4632639047837
-25.92813000686656
-25.537499046311133
-28.467231250476843
-30.71335927367056
-33.05714503700313
-35.4009308003357
-34.81498435950255
-37.84237430380713
-39.99084458686198
-39.5025558861677
-41.5533684290837
-43.018234531166556
-45.45967803463798
-47.80346379797055
-47.21751735713741
-48.291752498664835
-48.97535667963683
-48.877698939497975
-50.73319600213626
-52.19806210421912
-53.760585946440834
-55.32310978866255
-54.932478828107115
-57.86221103227283
-60.108339055466544
-59.62005035477226
-64.40527962157626
-68.11627374685283
-72.99916075379568
-77.58907454032196
-76.51483939879454
-82.47196154726483
-86.8665598535134
-85.88998245212481
-87.94079499504082
-89.40566109712367
-88.03845273517967
-87.35484855420768
-87.45250629434653
-83.6438544289311
-80.61646448462653
-81.30006866559853
-74.36636911573969
-69.19050888838025
-63.6240177004654
-58.1551842526894
-59.32707713435569
-53.36995498588541
-48.97535667963683
-49.951934081025406
-43.99481193255512
-39.5025558861677
-32.86182955672541
-26.709391927977418
-28.076600289921416
-20.068665598535134
-14.209201190203707
-15.47875181200885
-7.568474860761425
-1.7090104524299992
4.541084916456855
10.79118028534371
9.326314183260854
15.381094071869994
19.775692378118563
18.799114976729992
23.779659723811704
27.49065384908827
29.443808651865414
31.885252155336843
31.2993057145037
33.3501182574197
34.81498435950255
34.52201113908598
35.49858854047456
36.182192721446555
36.96345464255741
37.74471656366827
37.549401083390556
36.67048142214084
35.889219501029984
35.98687724116884
35.010299839780274
34.32669565880827
33.44777599755856
32.6665140764477
32.86182955672541
31.885252155336843
31.103990234225986
31.2993057145037
31.201647974364842
31.201647974364842
32.178225375753414
32.86182955672541
32.764171816586554
33.74074921797513
34.424353398947126
34.22903791866941
36.182192721446555
37.64705882352941
39.20958266575113
40.772106507972836
40.38147554741741
41.45571068894484
42.13931486991684
41.943999389639124
41.943999389639124
41.943999389639124
41.943999389639124
41.943999389639124
41.943999389639124
39.99084458686198
38.525978484779124
38.818951705195694
36.86579690241855
35.303273060196844
33.74074921797513
32.178225375753414
32.56885633630884
29.541466392004274
27.392996108949415
27.783627069504846
23.87731746395056
20.947585259784848
18.701457236591136
16.357671473258563
16.84596017395285
12.939650568398566
10.009918364232853
10.595864805065995
6.6895551995117115
3.7598229953459983
0.537117570763714
-2.490272373540856
-1.8066681925688564
-4.834058136873426
-6.982528419928283
-6.494239719233997
-9.42397192339971
-11.670099946593423
-13.037308308537423
-14.697489890897993
-14.306858930342566
-16.260013733119706
-17.724879835202564
-17.43190661478599
-18.40848401617456
-19.18974593728542
-18.994430457007706
-18.994430457007706
-18.994430457007706
-18.017853055619135
-17.334248874647134
-17.43190661478599
-16.45532921339742
-15.771725032425422
-12.060730907148852
-9.033340962844282
-9.71694514381628
-4.834058136873426
-1.1230640115968566
-1.9043259327077133
5.810635538261997
11.670099946593423
18.017853055619135
24.267948424505988
22.803082322423133
31.68993667505913
38.33066300450141
36.86579690241855
42.92057679102769
47.31517509727627
51.02616922255284
54.932478828107115
54.053559166857404
56.20202944991226
57.56923781185626
57.27626459143969
57.27626459143969
57.27626459143969
55.32310978866255
53.85824368657969
54.15121690699626
52.19806210421912
50.635538261997404
51.02616922255284
47.11985961699855
44.09246967269398
40.96742198825055
37.84237430380713
38.525978484779124
34.52201113908598
31.592278934920273
32.178225375753414
28.174258030060273
25.24452582589456
23.096055542839704
20.654612039368278
21.24055848020142
17.236591134508277
14.306858930342566
14.990463111314565
10.986495765621424
8.05676356145571
4.834058136873426
1.7090104524299992
2.490272373540856
-1.416037232013428
-4.345769436179141
-3.662165255207141
-7.666132600900283
-10.595864805065995
-14.697489890897993
-18.60379949645228
-17.724879835202564
-21.728847180895706
-24.65857938506142
-23.974975204089418
-27.97894254978256
-30.908674753948272
-33.05714503700313
-35.4009308003357
-34.91264209964141
-37.84237430380713
-40.08850232700084
-39.5025558861677
-44.38544289311055
-48.09643701838712
-53.95590142671855
-59.32707713435569
-58.057526512550545
-64.9912260624094
-70.16708628976883
-68.99519340810254
-72.12024109254597
-74.26871137560083
-73.68276493476768
-73.78042267490653
-73.78042267490653
-70.85069047074083
-68.60456244754711
-69.0928511482414
-63.233386739909974
-58.74113069352254
-54.932478828107115
-51.02616922255284
-51.90508888380255
-48.78004119935912
-46.63157091630426
-47.11985961699855
-46.92454413672083
-46.92454413672083
-46.92454413672083
-46.92454413672083
-46.92454413672083
-45.947966735332265
-45.16670481422141
-45.362020294499125
-42.43228809033341
-40.186160067139696
-34.91264209964141
-30.420386053253985
-31.396963454642556
-24.4632639047837
-19.287403677424276
-20.45929655909056
-12.549019607843137
-6.6895551995117115
-0.34180209048599985
5.810635538261997
4.443427176317998
11.377126726176853
16.55298695353628
15.381094071869994
21.338216220340275
25.732814526588847
29.541466392004274
33.44777599755856
32.56885633630884
36.57282368200198
39.5025558861677
38.818951705195694
40.86976424811169
42.33463035019455
43.89715419241627
45.45967803463798
45.069047074082555
45.16670481422141
45.069047074082555
45.069047074082555
45.069047074082555
45.069047074082555
44.09246967269398
43.311207751583126
43.50652323186084
40.57679102769512
38.33066300450141
38.818951705195694
35.889219501029984
33.64309147783627
31.2993057145037
28.857862211032273
29.443808651865414
27.392996108949415
25.92813000686656
26.22110322728313
23.291371023117417
21.045242999923705
20.55695429922942
19.775692378118563
19.87335011825742
18.89677271686885
18.21316853589685
18.310826276035705
17.334248874647134
16.55298695353628
16.748302433813993
16.748302433813993
16.748302433813993
16.748302433813993
16.748302433813993
16.748302433813993
16.650644693675137
16.650644693675137
17.627222095063708
18.40848401617456
18.21316853589685
18.21316853589685
18.21316853589685
18.21316853589685
18.21316853589685
18.21316853589685
18.21316853589685
18.21316853589685
18.21316853589685
18.21316853589685
18.21316853589685
18.21316853589685
18.21316853589685
18.11551079575799
18.11551079575799
18.11551079575799
18.11551079575799
19.092088197146563
19.87335011825742
19.678034637979707
20.654612039368278
21.338216220340275
21.24055848020142
21.24055848020142
21.24055848020142
21.24055848020142
21.24055848020142
21.24055848020142
20.263981078812847
19.48271915770199
18.701457236591136
17.920195315480278
18.11551079575799
16.16235599298085
14.599832150759136
14.990463111314565
13.916227969787137
13.232623788815136
11.47478446631571
9.912260624093996
10.302891584649425
10.205233844510566
10.205233844510566
10.205233844510566
11.181811245899137
11.865415426871138
13.623254749370565
15.088120851453422
14.795147631036851
18.701457236591136
21.63118944075685
20.947585259784848
25.830472266727703
29.541466392004274
33.545433737697415
37.35408560311284
36.475165941863125
42.43228809033341
46.826886396581976
45.85030899519341
50.83085374227512
54.44419012741283
57.471580071717405
60.59662775616083
59.815365835049974
63.819333180743115
66.74906538490883
66.06546120393683
68.11627374685283
69.48348210879682
71.04600595101854
72.60852979324025
72.21789883268482
73.29213397421225
73.97573815518425
73.78042267490653
72.80384527351796
72.02258335240711
69.28816662851911
67.0420386053254
67.53032730601969
63.526359960326545
60.59662775616083
61.28023193713283
57.27626459143969
54.346532387273975
49.17067215991455
44.580758373388264
45.55733577477684
40.57679102769512
36.96345464255741
37.74471656366827
31.787594415197987
27.392996108949415
22.60776684214542
17.920195315480278
18.994430457007706
13.916227969787137
10.302891584649425
11.08415350576028
5.224689097428855
0.7324330510414282
-4.834058136873426
-10.205233844510566
-9.033340962844282
-15.967040512703136
-21.14290074006256
-19.971007858396277
-24.072632944228275
-26.90470740825513
-28.174258030060273
-29.834439612420844
-29.443808651865414
-28.564888990615703
-27.783627069504846
-27.97894254978256
-25.049210345616846
-22.803082322423133
-20.45929655909056
-18.11551079575799
-18.60379949645228
-18.506141756313422
-18.506141756313422
-18.506141756313422
-20.361638818951704
-21.92416266117342
-23.48668650339513
-25.049210345616846
-24.65857938506142
-27.588311589227132
-29.736781872281988
-29.2484931715877
-32.27588311589227
-34.424353398947126
-36.768139162279695
-39.11192492561227
-38.62363622491798
-41.5533684290837
-43.79949645227741
-43.21355001144427
-46.240939955748836
-48.38941023880369
-50.73319600213626
-53.07698176546884
-52.588693064774546
-53.56527046616312
-54.24887464713512
-54.15121690699626
-53.17463950560769
-52.39337758449683
-49.658960860608836
-47.412832837415124
-47.90112153810941
-43.018234531166556
-39.307240405889985
-40.08850232700084
-34.22903791866941
-29.736781872281988
-25.049210345616846
-20.361638818951704
-21.338216220340275
-14.404516670481422
-9.326314183260854
-10.400549324788281
-4.443427176317998
-0.04882887006942855
2.68558785381857
5.908293278400855
5.224689097428855
8.154421301594567
10.400549324788281
9.912260624093996
10.986495765621424
11.670099946593423
11.47478446631571
11.572442206454566
11.572442206454566
9.619287403677424
8.154421301594567
8.44739452201114
6.494239719233997
5.0293736171511405
2.490272373540856
0.14648661020828566
0.6347753109025711
-2.197299153124285
-4.443427176317998
-3.9551384756237127
-6.884870679789426
-9.130998702983138
-11.47478446631571
-13.81857022964828
-13.232623788815136
-17.236591134508277
-20.16632333867399
-19.48271915770199
-22.510109102006563
-24.65857938506142
-26.123445487144274
-27.68596932936599
-27.295338368810558
-30.22507057297627
-32.471198596169984
-31.9829098954757
-32.95948729686427
-33.74074921797513
-35.4009308003357
-36.96345464255741
-36.57282368200198
-37.64705882352941
-38.33066300450141
-38.1353475242237
-39.11192492561227
-39.893186846723125
-40.67444876783398
-41.45571068894484
-41.26039520866713
-42.236972610055695
-42.92057679102769
-42.72526131074998
-42.72526131074998
-42.72526131074998
-43.70183871213855
-44.38544289311055
-44.28778515297169
-43.311207751583126
-42.529945830472265
-42.72526131074998
-41.651026169222554
-40.96742198825055
-40.186160067139696
-39.307240405889985
-39.5025558861677
-37.549401083390556
-36.0845349813077
-36.37750820172427
-35.303273060196844
-34.61966887922484
-33.838406958113985
-33.05714503700313
-33.15480277714199
-32.178225375753414
-31.396963454642556
-31.592278934920273
-30.615701533531702
-29.834439612420844
-29.053177691309987
-28.27191577019913
-28.369573510337986
-25.537499046311133
-23.291371023117417
-23.779659723811704
-20.752269779507134
-18.60379949645228
-14.306858930342566
-10.400549324788281
-11.279468986037996
-4.443427176317998
0.6347753109025711
-0.43945983062485694
6.39658197909514
11.572442206454566
18.017853055619135
24.267948424505988
22.90074006256199
30.811017013809415
36.67048142214084
35.303273060196844
43.311207751583126
49.17067215991455
56.39734493018997
63.33104448004883
61.768520637827116
68.79987792782482
73.87808041504539
72.70618753337911
78.6633096818494
83.05790798809797
84.91340505073624
87.35484855420768
86.76890211337454
88.81971465629053
90.18692301823454
89.89394979781795
88.91737239642939
88.13611047531853
85.40169375143053
83.15556572823682
83.6438544289311
78.6633096818494
74.95231555657283
75.83123521782254
69.87411306935225
65.38185702296482
58.74113069352254
52.588693064774546
53.95590142671855
46.92454413672083
41.74868390936141
42.92057679102769
33.05714503700313
25.732814526588847
15.869382772564279
6.591897459372854
8.642710002288853
-2.197299153124285
-10.302891584649425
-8.44739452201114
-15.576409552147707
-20.654612039368278
-23.291371023117417
-26.514076447699704
-25.830472266727703
-26.025787747005417
-25.92813000686656
-25.92813000686656
-23.974975204089418
-22.510109102006563
-20.947585259784848
-19.385061417563133
-19.678034637979707
-20.55695429922942
-21.338216220340275
-21.14290074006256
-24.072632944228275
-26.318760967421987
-29.541466392004274
-32.6665140764477
-31.9829098954757
-34.0337224383917
-35.49858854047456
-35.10795757991913
-38.03768978408484
-40.28381780727855
-40.67444876783398
-41.5533684290837
-41.358052948805984
-42.33463035019455
-43.018234531166556
-42.822919050888835
-43.79949645227741
-44.580758373388264
-44.38544289311055
-44.38544289311055
-44.38544289311055
-44.38544289311055
-44.38544289311055
-44.38544289311055
-43.40886549172198
-42.62760357061112
-42.72526131074998
-42.72526131074998
-42.72526131074998
-40.772106507972836
-39.307240405889985
-39.600213626306555
-37.64705882352941
-36.0845349813077
-33.545433737697415
-31.2993057145037
-31.787594415197987
-27.783627069504846
-24.853894865339132
-25.537499046311133
-19.678034637979707
-15.185778591592278
-10.498207064927138
-5.810635538261997
-6.787212939650568
0.04882887006942855
5.127031357289998
3.9551384756237127
10.009918364232853
14.404516670481422
18.21316853589685
22.119478141451133
21.24055848020142
26.123445487144274
29.834439612420844
29.053177691309987
31.103990234225986
32.56885633630884
32.178225375753414
32.27588311589227
32.27588311589227
31.2993057145037
30.518043793392845
30.71335927367056
28.760204470893417
27.1976806286717
24.65857938506142
22.412451361867703
22.90074006256199
18.017853055619135
14.306858930342566
15.088120851453422
11.08415350576028
8.154421301594567
4.052796215762569
0.14648661020828566
1.0254062714579995
-2.8809033340962844
-5.810635538261997
-5.127031357289998
-10.10757610437171
-13.720912489509422
-16.748302433813993
-19.87335011825742
-19.18974593728542
-23.19371328297856
-26.025787747005417
-25.439841306172273
-28.369573510337986
-30.615701533531702
-31.9829098954757
-33.64309147783627
-33.252460517280845
-35.20561532005799
-36.67048142214084
-36.27985046158541
-37.35408560311284
-38.03768978408484
-38.818951705195694
-39.600213626306555
-39.40489814602884
-41.358052948805984
-42.822919050888835
-42.43228809033341
-43.50652323186084
-44.19012741283284
-44.97138933394369
-45.75265125505455
-45.55733577477684
-45.55733577477684
-45.55733577477684
-45.55733577477684
-45.55733577477684
-45.55733577477684
-44.580758373388264
-43.79949645227741
-43.99481193255512
-42.92057679102769
-42.236972610055695
-42.33463035019455
-42.33463035019455
-42.33463035019455
-41.358052948805984
-40.57679102769512
-40.67444876783398
-39.69787136644541
-38.91660944533455
-39.11192492561227
-39.11192492561227
-39.014267185473415
-38.1353475242237
-37.35408560311284
-37.4517433432517
-34.61966887922484
-32.37354085603113
-32.86182955672541
-28.857862211032273
-25.92813000686656
-19.87335011825742
-14.599832150759136
-15.771725032425422
-7.861448081177996
-1.9043259327077133
-3.2715342946517127
6.494239719233997
13.81857022964828
21.728847180895706
29.541466392004274
27.783627069504846
36.768139162279695
43.311207751583126
41.84634164950027
48.877698939497975
53.95590142671855
57.56923781185626
61.5732051575494
60.59662775616083
64.60059510185397
67.53032730601969
66.84672312504769
69.87411306935225
72.02258335240711
73.3897917143511
75.04997329671168
74.65934233615626
75.63591973754482
76.31952391851682
76.12420843823911
76.12420843823911
76.12420843823911
75.14763103685054
74.36636911573969
74.5616845960174
73.48744945448996
72.80384527351796
72.90150301365682
69.9717708094911
67.7256427862974
63.42870222018769
59.62005035477226
60.401312275883114
56.39734493018997
53.467612726024264
54.053559166857404
52.97932402532997
52.19806210421912
54.24887464713512
55.713740749217976
55.420767528801406
58.350499732967116
60.49897001602197
60.01068131532769
64.89356832227054
68.50690470740825
71.53429465171283
74.65934233615626
73.87808041504539
74.95231555657283
75.63591973754482
75.53826199740597
73.58510719462882
72.12024109254597
69.48348210879682
67.23735408560312
67.7256427862974
64.69825284199283
62.45212481879911
62.9404135194934
59.91302357518883
57.764553292133975
55.32310978866255
52.97932402532997
53.467612726024264
49.56130312046998
46.533913176165406
47.21751735713741
42.236972610055695
38.62363622491798
34.61966887922484
30.71335927367056
31.592278934920273
26.61173418783856
22.90074006256199
23.682001983672848
17.82253757534142
13.330281528953995
9.619287403677424
5.615320057984283
6.494239719233997
0.6347753109025711
-3.7598229953459983
-2.783245593957427
-6.787212939650568
-9.71694514381628
-12.84199282825971
-15.967040512703136
-15.283436331731137
-18.310826276035705
-20.45929655909056
-19.971007858396277
-22.021820401312276
-23.48668650339513
-25.049210345616846
-26.61173418783856
-26.22110322728313
-25.342183566033416
-24.560921644922562
-24.756237125200276
-21.826504921034562
-19.58037689784085
-14.306858930342566
-9.81460288395514
-10.79118028534371
-3.8574807354848555
1.2207217517357138
0.04882887006942855
8.838025482566568
15.47875181200885
20.752269779507134
26.22110322728313
24.95155260547799
31.885252155336843
37.06111238269627
35.889219501029984
39.014267185473415
41.16273746852827
42.62760357061112
44.19012741283284
43.79949645227741
43.89715419241627
43.79949645227741
43.79949645227741
42.822919050888835
42.13931486991684
40.38147554741741
38.818951705195694
39.11192492561227
35.20561532005799
32.27588311589227
32.86182955672541
28.95551995117113
26.025787747005417
22.803082322423133
19.678034637979707
20.361638818951704
15.47875181200885
11.767757686732281
12.549019607843137
8.545052262149996
5.615320057984283
2.490272373540856
-0.537117570763714
0.04882887006942855
-4.834058136873426
-8.44739452201114
-7.666132600900283
-12.549019607843137
-16.260013733119706
-20.263981078812847
-24.072632944228275
-23.19371328297856
-28.174258030060273
-31.885252155336843
-31.00633249408713
-36.96345464255741
-41.358052948805984
-45.069047074082555
-49.073014419775696
-48.09643701838712
-53.07698176546884
-56.7879758907454
-55.90905622949569
-59.91302357518883
-62.84275577935454
-64.9912260624094
-67.33501182574197
-66.84672312504769
-69.77645532921339
-71.92492561226825
-71.43663691157397
-73.3897917143511
-74.85465781643397
-76.41718165865568
-77.97970550087739
-77.58907454032196
-78.56565194171054
-79.24925612268254
-79.15159838254368
-79.15159838254368
-79.05394064240483
-79.05394064240483
-79.05394064240483
-79.05394064240483
-78.95628290226597
-78.95628290226597
-78.95628290226597
-77.97970550087739
-77.19844357976653
-77.29610131990539
-77.29610131990539
-77.29610131990539
-77.19844357976653
-77.19844357976653
-77.19844357976653
-77.19844357976653
-77.10078583962768
-77.10078583962768
-77.10078583962768
-77.10078583962768
-76.12420843823911
-75.34294651712825
-75.44060425726711
-73.48744945448996
-72.02258335240711
-67.53032730601969
-63.72167544060426
-64.50293736171511
-58.643472953383686
-54.15121690699626
-55.127794308384836
-47.21751735713741
-41.358052948805984
-35.010299839780274
-28.760204470893417
-30.127412832837415
-22.21713588158999
-16.260013733119706
-17.627222095063708
-11.572442206454566
-7.177843900205997
-3.36919203479057
0.43945983062485694
-0.34180209048599985
3.5645075150682843
6.494239719233997
5.810635538261997
6.005951018539712
6.005951018539712
2.197299153124285
-0.7324330510414282
-0.04882887006942855
-4.052796215762569
-6.982528419928283
-6.298924238956283
-8.349736781872283
-9.81460288395514
-9.521629663538567
-9.521629663538567
-9.521629663538567
-6.6895551995117115
-4.443427176317998
-4.931715877012284
-0.04882887006942855
3.5645075150682843
5.615320057984283
7.959105821316854
7.470817120622568
8.545052262149996
9.228656443121995
9.033340962844282
6.201266498817426
4.052796215762569
2.5879301136797133
1.0254062714579995
1.3183794918745708
-1.513694972152285
-3.662165255207141
-3.1738765545128556
-6.201266498817426
-8.349736781872283
-9.81460288395514
-11.377126726176853
-10.986495765621424
-13.037308308537423
-14.50217441062028
-14.11154345006485
-14.209201190203707
-14.209201190203707
-14.209201190203707
-14.209201190203707
-14.209201190203707
-13.232623788815136
-12.45136186770428
-12.646677347981994
-12.646677347981994
-12.646677347981994
-11.670099946593423
-10.888838025482567
-11.08415350576028
-9.130998702983138
-7.666132600900283
-7.959105821316854
-6.884870679789426
-6.201266498817426
-4.443427176317998
-2.8809033340962844
-3.2715342946517127
-1.3183794918745708
0.04882887006942855
-0.14648661020828566
0.8300907911802854
1.513694972152285
2.2949568932631417
3.076218814373999
2.8809033340962844
2.9785610742351416
2.9785610742351416
2.9785610742351416
2.9785610742351416
2.9785610742351416
2.9785610742351416
2.9785610742351416
2.9785610742351416
2.0019836728465705
1.2207217517357138
1.416037232013428
2.2949568932631417
3.076218814373999
5.810635538261997
8.05676356145571
7.568474860761425
12.45136186770428
16.064698252841993
15.283436331731137
22.119478141451133
27.295338368810558
32.764171816586554
38.23300526436255
37.06111238269627
43.018234531166556
47.412832837415124
46.43625543602655
52.295719844357976
56.690318150606544
58.54581521324483
60.987258716716255
60.49897001602197
62.45212481879911
63.91699092088197
63.526359960326545
64.60059510185397
65.28419928282597
65.08888380254825
65.08888380254825
65.08888380254825
63.13572899977112
61.67086289768826
61.96383611810483
59.91302357518883
58.44815747310597
55.90905622949569
53.56527046616312
54.053559166857404
51.123826962691695
48.877698939497975
49.365987640192266
44.48310063324941
40.772106507972836
37.74471656366827
34.61966887922484
35.303273060196844
31.2993057145037
28.369573510337986
28.95551995117113
24.072632944228275
20.361638818951704
17.334248874647134
14.209201190203707
14.892805371175708
10.888838025482567
7.959105821316854
8.642710002288853
4.638742656595713
1.7090104524299992
-1.3183794918745708
-4.443427176317998
-3.7598229953459983
-7.763790341039139
-10.693522545204852
-10.009918364232853
-12.060730907148852
-13.525597009231708
-16.064698252841993
-18.310826276035705
-17.82253757534142
-19.87335011825742
-21.338216220340275
-20.947585259784848
-22.998397802700847
-24.365606164644845
-26.025787747005417
-27.49065384908827
-27.1976806286717
-29.150835431448844
-30.615701533531702
-30.322728313115128
-33.252460517280845
-35.4009308003357
-37.74471656366827
-40.08850232700084
-39.600213626306555
-42.529945830472265
-44.67841611352712
-44.19012741283284
-47.21751735713741
-49.365987640192266
-51.709773403524835
-54.053559166857404
-53.467612726024264
-55.51842526894026
-56.983291371023114
-56.59266041046769
-58.54581521324483
-60.01068131532769
-59.71770809491112
-59.71770809491112
-59.71770809491112
-59.71770809491112
-59.71770809491112
-59.62005035477226
-57.764553292133975
-56.20202944991226
-51.80743114366369
-47.998779278248264
-48.78004119935912
-40.96742198825055
-35.010299839780274
-36.37750820172427
-25.537499046311133
-17.43190661478599
-6.787212939650568
3.1738765545128556
0.9277485313191425
14.795147631036851
25.049210345616846
22.803082322423133
32.86182955672541
40.08850232700084
44.19012741283284
48.97535667963683
47.90112153810941
50.04959182116426
51.51445792324712
51.123826962691695
54.053559166857404
56.29968719005112
59.522392614633404
62.64744029907683
61.96383611810483
65.8701457236591
68.79987792782482
68.11627374685283
72.99916075379568
76.71015487907225
79.63988708323797
82.7649347676814
82.0813305867094
84.13214312962539
85.49935149156939
85.20637827115281
83.25322346837568
81.78835736629281
81.10475318532082
80.32349126420996
80.42114900434882
78.46799420157168
77.00312809948882
77.29610131990539
74.26871137560083
72.12024109254597
68.70222018768597
65.57717250324254
66.26077668421455
61.37788967727169
57.66689555199512
58.44815747310597
53.467612726024264
49.75661860074769
44.873731593804834
40.186160067139696
41.26039520866713
36.182192721446555
32.56885633630884
33.3501182574197
27.392996108949415
22.998397802700847
20.16632333867399
16.943617914091707
17.627222095063708
12.74433508812085
9.033340962844282
9.81460288395514
5.810635538261997
2.8809033340962844
-0.14648661020828566
-3.2715342946517127
-2.5879301136797133
-5.615320057984283
-7.763790341039139
-7.275501640344854
-11.181811245899137
-14.209201190203707
-16.357671473258563
-18.701457236591136
-18.21316853589685
-20.263981078812847
-21.728847180895706
-21.338216220340275
-22.412451361867703
-23.096055542839704
-24.853894865339132
-26.318760967421987
-26.025787747005417
-27.97894254978256
-29.443808651865414
-29.053177691309987
-30.127412832837415
-30.811017013809415
-31.592278934920273
-32.37354085603113
-32.178225375753414
-32.27588311589227
-32.178225375753414
-32.178225375753414
-33.15480277714199
-33.838406958113985
-34.61966887922484
-35.4009308003357
-35.20561532005799
-34.32669565880827
-33.545433737697415
-33.74074921797513
-29.834439612420844
-26.90470740825513
-20.84992751964599
-15.47875181200885
-16.650644693675137
-7.763790341039139
-1.2207217517357138
-2.68558785381857
8.05676356145571
16.16235599298085
24.853894865339132
33.44777599755856
31.494621194781413
40.479133287556266
47.11985961699855
45.654993514915695
52.588693064774546
57.764553292133975
60.401312275883114
63.6240177004654
62.84275577935454
64.89356832227054
66.3584344243534
65.96780346379796
66.94438086518655
67.7256427862974
66.55374990463112
65.8701457236591
65.96780346379796
64.9912260624094
64.20996414129854
64.3076218814374
63.33104448004883
62.54978255893797
59.815365835049974
57.56923781185626
58.057526512550545
56.006713969634546
54.54184786755169
54.83482108796826
50.928511482413974
47.998779278248264
45.75265125505455
43.40886549172198
43.89715419241627
39.014267185473415
35.303273060196844
36.0845349813077
32.08056763561456
29.150835431448844
25.92813000686656
22.803082322423133
23.48668650339513
20.45929655909056
18.310826276035705
18.799114976729992
15.771725032425422
13.623254749370565
11.181811245899137
8.838025482566568
9.42397192339971
7.373159380483711
5.908293278400855
6.201266498817426
4.248111696040284
2.783245593957427
0.24414435034714274
-2.0019836728465705
-1.513694972152285
-5.420004577706569
-8.349736781872283
-7.666132600900283
-11.670099946593423
-14.599832150759136
-17.724879835202564
-20.84992751964599
-20.16632333867399
-24.072632944228275
-27.002365148393988
-26.416418707560844
-31.2993057145037
-35.010299839780274
-38.91660944533455
-42.822919050888835
-41.943999389639124
-45.947966735332265
-48.78004119935912
-48.19409475852598
-51.123826962691695
-53.36995498588541
-55.713740749217976
-58.057526512550545
-57.471580071717405
-59.522392614633404
-60.8896009765774
-60.59662775616083
-62.54978255893797
-64.01464866102083
-66.55374990463112
-68.79987792782482
-68.21393148699168
-70.26474402990769
-71.72961013199054
-71.33897917143511
-77.10078583962768
-81.49538414587624
-87.25719081406882
-92.62836652170596
-91.35881589990082
-98.29251544975968
-103.37071793698024
-102.19882505531396
-104.34729533836881
-105.7145037003128
-103.4683756771191
-102.00350957503625
-102.29648279545282
-96.53467612726024
-92.04242008087282
-93.01899748226138
-81.30006866559853
-72.41321431296254
-62.84275577935454
-53.467612726024264
-55.61608300907912
-44.580758373388264
-36.475165941863125
-38.33066300450141
-31.201647974364842
-26.123445487144274
-21.43587396047913
-16.748302433813993
-17.82253757534142
-14.697489890897993
-12.549019607843137
-13.037308308537423
-10.986495765621424
-9.521629663538567
-9.81460288395514
-9.71694514381628
-9.81460288395514
-10.693522545204852
-11.47478446631571
-11.279468986037996
-13.232623788815136
-14.697489890897993
-16.260013733119706
-17.82253757534142
-17.52956435492485
-18.506141756313422
-19.18974593728542
-19.092088197146563
-20.068665598535134
-20.752269779507134
-22.510109102006563
-24.072632944228275
-23.682001983672848
-24.756237125200276
-25.439841306172273
-25.24452582589456
-26.22110322728313
-27.002365148393988
-27.783627069504846
-28.564888990615703
-28.369573510337986
-29.346150911726557
-30.029755092698558
-29.834439612420844
-29.9320973525597
-29.9320973525597
-29.834439612420844
-29.834439612420844
-29.834439612420844
-29.834439612420844
-29.834439612420844
-29.834439612420844
-29.834439612420844
-29.834439612420844
-29.834439612420844
-29.834439612420844
-29.736781872281988
-30.71335927367056
-31.494621194781413
-31.2993057145037
-30.322728313115128
-29.63912413214313
-29.736781872281988
-29.736781872281988
-29.736781872281988
-28.760204470893417
-27.97894254978256
-28.174258030060273
-28.076600289921416
-28.076600289921416
-27.100022888532845
-26.416418707560844
-26.514076447699704
-25.537499046311133
-24.756237125200276
-24.95155260547799
-25.830472266727703
-26.61173418783856
-26.416418707560844
-26.416418707560844
-26.416418707560844
-25.439841306172273
-24.756237125200276
-24.853894865339132
-22.021820401312276
-19.775692378118563
-15.47875181200885
-11.670099946593423
-12.45136186770428
-5.615320057984283
-0.43945983062485694
-1.6113527122911422
8.05676356145571
15.47875181200885
24.365606164644845
32.86182955672541
30.908674753948272
41.84634164950027
49.951934081025406
48.09643701838712
58.057526512550545
65.38185702296482
72.31555657282368
79.3469138628214
77.78439002059967
83.83916990920882
88.13611047531853
87.15953307392996
92.14007782101167
95.75341420614939
96.82764934767681
98.48783093003739
97.99954222934309
99.95269703212024
101.41756313420309
101.12458991378652
102.98008697642481
104.44495307850767
104.1519798580911
104.1519798580911
104.05432211795224
104.05432211795224
104.05432211795224
103.95666437781338
102.98008697642481
102.19882505531396
101.41756313420309
100.63630121309224
100.7339589532311
99.75738155184253
98.97611963073167
99.07377737087053
98.09719996948196
97.3159380483711
94.5815213244831
92.23773556115053
92.72602426184481
90.67521171892882
89.21034561684596
89.50331883726253
87.45250629434653
85.98764019226367
83.4485389486534
81.10475318532082
81.5930418860151
79.54222934309911
78.07736324101626
78.37033646143283
75.44060425726711
73.19447623407339
70.75303273060197
68.4092469672694
68.89753566796368
65.8701457236591
63.72167544060426
64.11230640115969
62.15915159838254
60.59662775616083
58.057526512550545
55.713740749217976
56.29968719005112
54.24887464713512
52.78400854505226
53.07698176546884
51.02616922255284
49.56130312046998
47.998779278248264
46.43625543602655
46.72922865644312
44.67841611352712
43.21355001144427
43.50652323186084
42.529945830472265
41.74868390936141
39.99084458686198
38.42832074464027
38.818951705195694
37.74471656366827
37.06111238269627
37.15877012283513
33.3501182574197
30.322728313115128
25.24452582589456
20.654612039368278
21.63118944075685
14.697489890897993
9.619287403677424
10.693522545204852
5.71297779812314
2.0019836728465705
0.04882887006942855
-2.2949568932631417
-1.8066681925688564
-0.9277485313191425
-0.14648661020828566
-0.34180209048599985
3.36919203479057
6.39658197909514
12.353704127565424
17.724879835202564
16.55298695353628
22.510109102006563
26.90470740825513
25.92813000686656
30.908674753948272
34.52201113908598
38.525978484779124
42.43228809033341
41.5533684290837
46.43625543602655
50.14724956130312
49.26832990005341
52.295719844357976
54.54184786755169
56.88563363088426
59.13176165407798
58.643472953383686
59.71770809491112
60.401312275883114
60.2059967956054
59.22941939421683
58.54581521324483
55.81139848935683
53.467612726024264
53.95590142671855
49.073014419775696
45.362020294499125
46.14328221560998
41.26039520866713
37.549401083390556
32.56885633630884
27.97894254978256
28.95551995117113
22.021820401312276
16.943617914091707
18.017853055619135
12.060730907148852
7.666132600900283
3.8574807354848555
0.04882887006942855
0.8300907911802854
-3.076218814373999
-6.005951018539712
-5.420004577706569
-8.349736781872283
-10.595864805065995
-12.939650568398566
-15.283436331731137
-14.795147631036851
-17.724879835202564
-19.971007858396277
-19.48271915770199
-22.412451361867703
-24.560921644922562
-27.881284809643702
-31.00633249408713
-30.322728313115128
-35.20561532005799
-38.91660944533455
-38.03768978408484
-42.04165712977798
-44.97138933394369
-49.073014419775696
-52.881666285191116
-52.002746623941405
-56.006713969634546
-58.936446173800256
-58.25284199282826
-61.28023193713283
-63.42870222018769
-65.77248798352025
-68.11627374685283
-67.53032730601969
-70.55771725032426
-72.70618753337911
-72.21789883268482
-74.17105363546197
-75.63591973754482
-78.17502098115511
-80.42114900434882
-79.93286030365454
-82.86259250782025
-85.0110627908751
-84.52277409018082
-87.45250629434653
-89.60097657740138
-91.94476234073396
-94.28854810406654
-93.70260166323338
-96.6323338673991
-98.87846189059282
-98.29251544975968
-98.39017318989853
-98.39017318989853
-96.43701838712138
-94.87449454489968
-95.16746776531625
-91.26115815976196
-88.33142595559625
-88.91737239642939
-81.10475318532082
-75.14763103685054
-64.9912260624094
-55.81139848935683
-57.86221103227283
-44.97138933394369
-35.4009308003357
-37.4517433432517
-23.58434424353399
-13.330281528953995
-3.1738765545128556
6.884870679789426
4.638742656595713
13.720912489509422
20.263981078812847
18.799114976729992
25.830472266727703
30.908674753948272
34.52201113908598
38.525978484779124
37.64705882352941
40.67444876783398
42.822919050888835
42.33463035019455
43.40886549172198
44.09246967269398
42.04165712977798
40.57679102769512
40.86976424811169
38.818951705195694
37.35408560311284
37.64705882352941
33.74074921797513
30.811017013809415
26.709391927977418
22.803082322423133
23.682001983672848
18.701457236591136
14.990463111314565
15.869382772564279
11.865415426871138
8.935683222705425
5.71297779812314
2.5879301136797133
3.2715342946517127
0.24414435034714274
-1.8066681925688564
-1.3183794918745708
-4.345769436179141
-6.494239719233997
-6.982528419928283
-7.861448081177996
-7.666132600900283
-9.619287403677424
-11.08415350576028
-10.693522545204852
-12.646677347981994
-14.11154345006485
-16.650644693675137
-18.994430457007706
-18.506141756313422
-22.412451361867703
-25.342183566033416
-24.65857938506142
-28.66254673075456
-31.592278934920273
-32.764171816586554
-34.424353398947126
-34.0337224383917
-35.98687724116884
-37.4517433432517
-37.15877012283513
-40.08850232700084
-42.236972610055695
-43.70183871213855
-45.26436255436027
-44.873731593804834
-45.947966735332265
-46.63157091630426
-46.43625543602655
-49.365987640192266
-51.51445792324712
-55.81139848935683
-59.62005035477226
-58.74113069352254
-62.745098039215684
-65.6748302433814
-64.9912260624094
-66.06546120393683
-66.74906538490883
-65.57717250324254
-64.89356832227054
-64.9912260624094
-62.061493858243686
-59.815365835049974
-60.30365453574426
-56.39734493018997
-53.36995498588541
-49.26832990005341
-45.362020294499125
-46.240939955748836
-45.069047074082555
-44.38544289311055
-44.48310063324941
-44.48310063324941
-44.48310063324941
-42.529945830472265
-41.065079728389414
-41.358052948805984
-37.4517433432517
-34.52201113908598
-35.10795757991913
-29.2484931715877
-24.756237125200276
-17.13893339436942
-10.302891584649425
-11.767757686732281
-2.8809033340962844
3.662165255207141
2.197299153124285
10.10757610437171
15.967040512703136
21.338216220340275
26.807049668116274
25.63515678644999
30.615701533531702
34.32669565880827
33.44777599755856
36.475165941863125
38.72129396505684
39.11192492561227
39.99084458686198
39.79552910658427
39.79552910658427
39.79552910658427
39.79552910658427
37.84237430380713
36.37750820172427
33.838406958113985
31.494621194781413
31.9829098954757
28.076600289921416
25.146868085755703
25.732814526588847
20.84992751964599
17.13893339436942
14.11154345006485
10.986495765621424
11.670099946593423
6.787212939650568
3.076218814373999
3.8574807354848555
0.8300907911802854
-1.2207217517357138
-3.662165255207141
-6.005951018539712
-5.420004577706569
-7.470817120622568
-8.935683222705425
-8.642710002288853
-10.595864805065995
-12.060730907148852
-12.646677347981994
-13.525597009231708
-13.330281528953995
-14.306858930342566
-14.990463111314565
-14.892805371175708
-14.892805371175708
-14.892805371175708
-15.771725032425422
-16.55298695353628
-16.357671473258563
-17.334248874647134
-18.11551079575799
-17.920195315480278
-19.87335011825742
-21.338216220340275
-22.90074006256199
-24.4632639047837
-24.072632944228275
-25.146868085755703
-25.830472266727703
-25.732814526588847
-27.588311589227132
-29.053177691309987
-30.615701533531702
-32.178225375753414
-31.885252155336843
-32.86182955672541
-33.545433737697415
-33.44777599755856
-35.4009308003357
-36.86579690241855
-37.4517433432517
-38.23300526436255
-38.03768978408484
-39.014267185473415
-39.79552910658427
-39.600213626306555
-41.5533684290837
-43.018234531166556
-44.580758373388264
-46.04562447547112
-45.75265125505455
-46.72922865644312
-47.412832837415124
-47.31517509727627
-47.31517509727627
-47.31517509727627
-45.362020294499125
-43.89715419241627
-44.19012741283284
-39.307240405889985
-35.596246280613414
-36.37750820172427
-28.564888990615703
-22.705424582284277
-15.381094071869994
-8.44739452201114
-9.912260624093996
0.8300907911802854
8.935683222705425
7.080186160067139
17.041275654230564
24.365606164644845
29.443808651865414
35.010299839780274
33.74074921797513
38.72129396505684
42.43228809033341
41.5533684290837
44.580758373388264
46.826886396581976
46.240939955748836
46.33859769588769
46.33859769588769
45.362020294499125
44.580758373388264
44.77607385366598
43.79949645227741
43.018234531166556
41.26039520866713
39.69787136644541
40.08850232700084
37.06111238269627
34.91264209964141
35.303273060196844
31.396963454642556
28.467231250476843
25.24452582589456
22.119478141451133
22.803082322423133
17.920195315480278
14.209201190203707
14.990463111314565
10.986495765621424
8.05676356145571
4.931715877012284
1.8066681925688564
2.490272373540856
-0.43945983062485694
-2.5879301136797133
-2.0996414129854277
-4.150453955901427
-5.615320057984283
-7.177843900205997
-8.74036774242771
-8.349736781872283
-9.42397192339971
-10.10757610437171
-10.009918364232853
-10.986495765621424
-11.670099946593423
-13.427939269092851
-14.990463111314565
-14.599832150759136
-15.674067292286564
-16.357671473258563
-19.092088197146563
-21.338216220340275
-20.84992751964599
-25.63515678644999
-29.346150911726557
-28.564888990615703
-32.56885633630884
-35.4009308003357
-34.81498435950255
-36.86579690241855
-38.23300526436255
-36.96345464255741
-36.27985046158541
-36.475165941863125
-32.56885633630884
-29.63912413214313
-30.22507057297627
-24.365606164644845
-19.971007858396277
-15.185778591592278
-10.498207064927138
-11.572442206454566
-7.470817120622568
-4.541084916456855
-5.224689097428855
-4.150453955901427
-3.36919203479057
-1.6113527122911422
-0.14648661020828566
-0.43945983062485694
0.43945983062485694
1.2207217517357138
2.9785610742351416
4.443427176317998
4.150453955901427
7.080186160067139
9.228656443121995
8.74036774242771
14.599832150759136
18.994430457007706
18.017853055619135
25.92813000686656
31.787594415197987
41.943999389639124
51.123826962691695
49.073014419775696
62.84275577935454
73.09681849393453
85.10872053101396
96.72999160753795
94.09323262378882
109.03486686503395
119.97253376058595
117.53109025711451
131.39848935683221
141.55489433127337
149.75814450293737
158.44968337529565
156.39887083237966
165.3833829251545
171.9264515144579
170.46158541237506
174.4655527580682
177.39528496223392
176.61402304112306
176.71168078126192
176.61402304112306
173.78194857709622
171.43816281376363
171.9264515144579
164.11383230334937
158.15671015487908
148.87922484168766
140.3830014496071
142.23849851224537
132.1797512779431
124.8554207675288
126.41794460975052
115.48027771419852
107.37468528267338
101.51522087434195
95.16746776531625
96.53467612726024
88.52674143587396
82.66727702754254
83.93682764934768
76.90547035934996
71.72961013199054
67.13969634546426
62.45212481879911
63.42870222018769
58.44815747310597
54.7371633478294
55.51842526894026
49.658960860608836
45.16670481422141
41.358052948805984
37.4517433432517
38.33066300450141
31.396963454642556
26.22110322728313
27.392996108949415
21.43587396047913
16.943617914091707
11.279468986037996
5.908293278400855
7.080186160067139
1.0254062714579995
-3.2715342946517127
-2.2949568932631417
-9.130998702983138
-14.306858930342566
-18.89677271686885
-23.58434424353399
-22.510109102006563
-28.467231250476843
-32.86182955672541
-31.885252155336843
-36.86579690241855
-40.479133287556266
-43.50652323186084
-46.63157091630426
-45.947966735332265
-50.83085374227512
-54.54184786755169
-53.66292820630198
-57.66689555199512
-60.59662775616083
-63.72167544060426
-66.84672312504769
-66.06546120393683
-68.11627374685283
-69.58113984893568
-69.19050888838025
-70.26474402990769
-70.94834821087969
-70.75303273060197
-70.75303273060197
-70.75303273060197
-69.77645532921339
-68.99519340810254
-69.19050888838025
-66.26077668421455
-64.01464866102083
-59.71770809491112
-55.81139848935683
-56.690318150606544
-49.75661860074769
-44.580758373388264
-45.75265125505455
-36.86579690241855
-30.22507057297627
-21.24055848020142
-12.74433508812085
-14.599832150759136
-4.638742656595713
2.5879301136797133
1.0254062714579995
10.888838025482567
18.21316853589685
23.291371023117417
28.857862211032273
27.588311589227132
32.6665140764477
36.27985046158541
35.49858854047456
37.549401083390556
38.91660944533455
38.62363622491798
38.72129396505684
38.62363622491798
36.768139162279695
35.20561532005799
35.596246280613414
32.6665140764477
30.420386053253985
25.146868085755703
20.55695429922942
21.63118944075685
14.697489890897993
9.521629663538567
10.693522545204852
2.783245593957427
-2.9785610742351416
-8.349736781872283
-13.916227969787137
-12.646677347981994
-18.701457236591136
-22.998397802700847
-22.021820401312276
-27.97894254978256
-32.37354085603113
-37.15877012283513
-41.74868390936141
-40.772106507972836
-44.77607385366598
-47.705806057831694
-47.0222018768597
-51.90508888380255
-55.61608300907912
-62.35446707866026
-68.50690470740825
-67.13969634546426
-77.88204776073853
-85.98764019226367
-84.13214312962539
-93.11665522240024
-99.65972381170367
-102.98008697642481
-106.98405432211796
-106.00747692072939
-108.05828946364538
-109.52315556572823
-109.1325246051728
-106.30045014114596
-104.05432211795224
-99.75738155184253
-95.85107194628824
-96.72999160753795
-90.77286945906768
-86.28061341268025
-87.25719081406882
-84.13214312962539
-81.98367284657053
-82.37430380712597
-82.27664606698711
-82.27664606698711
-82.27664606698711
-82.17898832684826
-82.17898832684826
-83.15556572823682
-83.83916990920882
-83.6438544289311
-83.6438544289311
-83.6438544289311
-83.6438544289311
-83.54619668879225
-83.54619668879225
-83.54619668879225
-83.54619668879225
-82.47196154726483
-81.78835736629281
-81.88601510643167
-79.93286030365454
-78.37033646143283
-78.76096742198825
-73.87808041504539
-70.16708628976883
-63.33104448004883
-57.178606851300835
-58.44815747310597
-47.705806057831694
-39.600213626306555
-41.358052948805984
-29.443808651865414
-20.654612039368278
-10.205233844510566
-0.04882887006942855
-2.2949568932631417
9.521629663538567
18.310826276035705
16.357671473258563
27.295338368810558
35.4009308003357
42.13931486991684
49.17067215991455
47.60814831769284
54.639505607690545
59.71770809491112
58.54581521324483
62.64744029907683
65.57717250324254
67.7256427862974
70.06942854962998
69.58113984893568
70.55771725032426
71.24132143129626
71.1436636911574
71.1436636911574
71.04600595101854
70.06942854962998
69.38582436865796
69.48348210879682
66.55374990463112
64.3076218814374
64.79591058213168
61.768520637827116
59.62005035477226
55.22545204852369
51.416800183108265
52.295719844357976
47.31517509727627
43.604180971999696
44.38544289311055
40.38147554741741
37.4517433432517
33.3501182574197
29.443808651865414
30.322728313115128
26.318760967421987
23.291371023117417
23.974975204089418
19.971007858396277
17.041275654230564
13.916227969787137
10.79118028534371
11.47478446631571
7.470817120622568
4.541084916456855
5.224689097428855
2.197299153124285
0.04882887006942855
-3.2715342946517127
-6.298924238956283
-5.615320057984283
-8.642710002288853
-10.79118028534371
-10.302891584649425
-13.330281528953995
-15.47875181200885
-17.920195315480278
-20.16632333867399
-19.678034637979707
-22.705424582284277
-24.853894865339132
-24.365606164644845
-27.295338368810558
-29.541466392004274
-31.885252155336843
-34.22903791866941
-33.64309147783627
-36.67048142214084
-38.818951705195694
-38.33066300450141
-39.40489814602884
-40.08850232700084
-39.893186846723125
-39.99084458686198
-39.893186846723125
-38.91660944533455
-38.23300526436255
-38.33066300450141
-37.35408560311284
-36.57282368200198
-36.768139162279695
-36.67048142214084
-36.67048142214084
-38.62363622491798
-40.08850232700084
-39.69787136644541
-42.62760357061112
-44.873731593804834
-46.240939955748836
-47.80346379797055
-47.51049057755398
-49.46364538033112
-50.928511482413974
-50.53788052185855
-49.658960860608836
-48.877698939497975
-45.26436255436027
-42.236972610055695
-42.822919050888835
-36.96345464255741
-32.56885633630884
-33.545433737697415
-26.61173418783856
-21.43587396047913
-14.892805371175708
-8.74036774242771
-10.10757610437171
-3.076218814373999
1.9043259327077133
0.7324330510414282
6.787212939650568
11.181811245899137
14.013885709925994
17.13893339436942
16.45532921339742
20.45929655909056
23.389028763256274
22.705424582284277
24.756237125200276
26.22110322728313
25.830472266727703
25.92813000686656
25.92813000686656
24.95155260547799
24.17029068436713
24.365606164644845
22.412451361867703
20.947585259784848
18.40848401617456
16.064698252841993
16.55298695353628
13.623254749370565
11.377126726176853
11.865415426871138
7.959105821316854
5.0293736171511405
0.04882887006942855
-4.541084916456855
-3.5645075150682843
-11.47478446631571
-17.334248874647134
-15.967040512703136
-23.87731746395056
-29.834439612420844
-33.252460517280845
-37.256427862973986
-36.37750820172427
-38.42832074464027
-39.893186846723125
-39.5025558861677
-38.62363622491798
-37.84237430380713
-36.0845349813077
-34.61966887922484
-34.91264209964141
-32.95948729686427
-31.396963454642556
-31.787594415197987
-31.68993667505913
-31.68993667505913
-33.545433737697415
-35.010299839780274
-34.717326619363696
-36.67048142214084
-38.1353475242237
-37.84237430380713
-39.79552910658427
-41.26039520866713
-42.822919050888835
-44.28778515297169
-43.99481193255512
-44.97138933394369
-45.75265125505455
-45.55733577477684
-46.533913176165406
-47.21751735713741
-48.97535667963683
-50.44022278171969
-50.14724956130312
-51.123826962691695
-51.80743114366369
-51.61211566338598
-53.56527046616312
-55.03013656824598
-56.59266041046769
-58.1551842526894
-57.764553292133975
-59.71770809491112
-61.182574196993976
-60.8896009765774
-62.84275577935454
-64.3076218814374
-65.8701457236591
-67.33501182574197
-67.0420386053254
-69.87411306935225
-72.12024109254597
-71.63195239185168
-73.58510719462882
-75.04997329671168
-77.58907454032196
-79.83520256351568
-79.24925612268254
-81.30006866559853
-82.7649347676814
-82.37430380712597
-83.35088120851454
-84.03448538948653
-83.83916990920882
-83.93682764934768
-83.83916990920882
-82.86259250782025
-82.0813305867094
-82.27664606698711
-80.2258335240711
-78.76096742198825
-77.19844357976653
-75.53826199740597
-75.9288929579614
-72.90150301365682
-70.75303273060197
-71.1436636911574
-68.21393148699168
-65.96780346379796
-64.50293736171511
-62.9404135194934
-63.233386739909974
-61.182574196993976
-59.71770809491112
-60.01068131532769
-59.03410391393912
-58.25284199282826
-57.471580071717405
-56.690318150606544
-56.7879758907454
-55.81139848935683
-55.03013656824598
-55.22545204852369
-54.15121690699626
-53.467612726024264
-52.588693064774546
-51.80743114366369
-52.002746623941405
-51.90508888380255
-51.90508888380255
-51.90508888380255
-50.928511482413974
-50.14724956130312
-50.34256504158083
-50.24490730144198
-50.24490730144198
-49.26832990005341
-48.48706797894255
-48.68238345922026
-47.705806057831694
-46.92454413672083
-46.14328221560998
-45.362020294499125
-45.45967803463798
-44.48310063324941
-43.70183871213855
-43.89715419241627
-40.96742198825055
-38.72129396505684
-37.256427862973986
-35.69390402075227
-36.0845349813077
-33.05714503700313
-30.908674753948272
-31.2993057145037
-28.369573510337986
-26.123445487144274
-24.756237125200276
-23.096055542839704
-23.48668650339513
-21.43587396047913
-19.971007858396277
-20.361638818951704
-18.310826276035705
-16.84596017395285
-14.306858930342566
-11.963073167009995
-12.549019607843137
-7.666132600900283
-3.9551384756237127
-4.736400396734569
2.0019836728465705
7.177843900205997
14.599832150759136
21.533531700617992
19.971007858396277
30.811017013809415
38.91660944533455
37.15877012283513
49.951934081025406
59.42473487449455
69.77645532921339
79.83520256351568
77.58907454032196
90.47989623865111
99.95269703212024
97.80422674906538
109.71847104600594
118.5076676585031
127.00389105058366
135.59777218280308
133.64461738002595
142.53147173266194
149.07454032196537
147.6096742198825
153.56679636835278
157.96139467460137
160.69581139848935
163.91851682307163
163.13725490196077
163.23491264209963
163.13725490196077
163.13725490196077
161.08644235904478
159.62157625696193
156.1058976119631
152.98084992751964
153.56679636835278
147.70733196002135
143.21507591363394
144.09399557488365
137.1602960250248
131.98443579766536
125.44136720836194
119.19127183947509
120.55848020141909
112.5505455100328
106.69108110170139
107.96063172350652
99.95269703212024
94.09323262378882
85.79232471198596
78.07736324101626
79.73754482337682
68.89753566796368
60.79194323643854
62.54978255893797
51.61211566338598
43.50652323186084
39.600213626306555
34.717326619363696
35.79156176089113
33.64309147783627
32.178225375753414
32.471198596169984
32.37354085603113
32.37354085603113
35.20561532005799
37.4517433432517
36.96345464255741
39.893186846723125
42.13931486991684
41.5533684290837
39.79552910658427
38.23300526436255
34.81498435950255
31.68993667505913
32.37354085603113
27.49065384908827
23.779659723811704
24.560921644922562
20.55695429922942
17.627222095063708
13.525597009231708
9.619287403677424
10.498207064927138
7.470817120622568
5.224689097428855
5.71297779812314
1.8066681925688564
-1.0254062714579995
-4.248111696040284
-7.373159380483711
-6.591897459372854
-9.619287403677424
-11.865415426871138
-11.377126726176853
-15.283436331731137
-18.21316853589685
-20.45929655909056
-22.803082322423133
-22.21713588158999
-25.24452582589456
-27.392996108949415
-26.90470740825513
-28.95551995117113
-30.420386053253985
-31.00633249408713
-31.787594415197987
-31.592278934920273
-30.71335927367056
-29.9320973525597
-30.127412832837415
-27.1976806286717
-24.95155260547799
-21.63118944075685
-18.506141756313422
-19.18974593728542
-13.330281528953995
-8.935683222705425
-9.912260624093996
-2.9785610742351416
2.0996414129854277
8.545052262149996
14.795147631036851
13.427939269092851
20.361638818951704
25.537499046311133
24.365606164644845
31.2993057145037
36.37750820172427
39.99084458686198
43.99481193255512
43.11589227130541
45.16670481422141
46.63157091630426
46.240939955748836
47.31517509727627
47.998779278248264
45.947966735332265
44.48310063324941
44.77607385366598
41.84634164950027
39.600213626306555
40.08850232700084
36.0845349813077
33.15480277714199
29.053177691309987
25.146868085755703
26.025787747005417
20.068665598535134
15.674067292286564
16.650644693675137
10.693522545204852
6.298924238956283
0.537117570763714
-4.736400396734569
-3.5645075150682843
-9.521629663538567
-13.916227969787137
-12.939650568398566
-16.943617914091707
-19.87335011825742
-23.096055542839704
-26.123445487144274
-25.439841306172273
-29.443808651865414
-32.37354085603113
-31.68993667505913
-33.74074921797513
-35.20561532005799
-36.768139162279695
-38.33066300450141
-37.94003204394598
-39.014267185473415
-39.69787136644541
-39.5025558861677
-41.45571068894484
-42.92057679102769
-43.50652323186084
-44.28778515297169
-44.09246967269398
-44.19012741283284
-44.09246967269398
-44.09246967269398
-44.09246967269398
-44.09246967269398
-43.11589227130541
-42.33463035019455
-42.529945830472265
-40.57679102769512
-39.11192492561227
-39.40489814602884
-36.475165941863125
-34.22903791866941
-32.764171816586554
-31.201647974364842
-31.494621194781413
-30.518043793392845
-29.736781872281988
-29.9320973525597
-28.857862211032273
-28.174258030060273
-28.27191577019913
-28.27191577019913
-28.27191577019913
-29.2484931715877
-29.9320973525597
-29.736781872281988
-31.68993667505913
-33.15480277714199
-32.86182955672541
-32.86182955672541
-32.86182955672541
-32.86182955672541
-32.86182955672541
-32.86182955672541
-30.908674753948272
-29.443808651865414
-25.92813000686656
-22.90074006256199
-23.58434424353399
-18.60379949645228
-14.892805371175708
-15.771725032425422
-9.81460288395514
-5.420004577706569
0.24414435034714274
5.615320057984283
4.443427176317998
9.42397192339971
13.13496604867628
12.256046387426567
17.236591134508277
20.947585259784848
23.87731746395056
27.002365148393988
26.318760967421987
29.346150911726557
31.494621194781413
31.00633249408713
34.0337224383917
36.182192721446555
37.64705882352941
39.20958266575113
38.818951705195694
39.79552910658427
40.57679102769512
40.38147554741741
41.358052948805984
42.04165712977798
39.014267185473415
36.86579690241855
37.35408560311284
31.494621194781413
27.002365148393988
27.97894254978256
22.021820401312276
17.627222095063708
14.795147631036851
11.572442206454566
12.256046387426567
10.205233844510566
8.74036774242771
9.130998702983138
9.033340962844282
9.033340962844282
11.865415426871138
14.11154345006485
13.623254749370565
16.55298695353628
18.799114976729992
18.310826276035705
19.385061417563133
20.068665598535134
19.87335011825742
19.87335011825742
19.87335011825742
19.87335011825742
19.87335011825742
19.87335011825742
19.87335011825742
19.87335011825742
18.89677271686885
18.11551079575799
18.310826276035705
17.334248874647134
16.55298695353628
16.748302433813993
15.771725032425422
14.990463111314565
13.232623788815136
11.767757686732281
12.060730907148852
9.130998702983138
6.884870679789426
7.373159380483711
5.420004577706569
3.9551384756237127
2.2949568932631417
0.7324330510414282
1.1230640115968566
0.04882887006942855
-0.537117570763714
-0.34180209048599985
-2.2949568932631417
-3.7598229953459983
-5.420004577706569
-6.982528419928283
-6.591897459372854
-8.545052262149996
-10.009918364232853
-9.71694514381628
-10.693522545204852
-11.47478446631571
-11.279468986037996
-11.279468986037996
-11.279468986037996
-11.279468986037996
-11.279468986037996
-11.279468986037996
-11.279468986037996
-11.279468986037996
-11.279468986037996
-11.279468986037996
-11.279468986037996
-10.302891584649425
-9.619287403677424
-9.71694514381628
-7.763790341039139
-6.298924238956283
-2.783245593957427
0.14648661020828566
-0.43945983062485694
4.345769436179141
8.05676356145571
7.177843900205997
13.13496604867628
17.52956435492485
21.338216220340275
25.24452582589456
24.365606164644845
29.346150911726557
32.95948729686427
32.178225375753414
36.182192721446555
39.11192492561227
39.40489814602884
40.28381780727855
39.99084458686198
41.065079728389414
41.74868390936141
41.5533684290837
40.67444876783398
39.893186846723125
39.11192492561227
38.23300526436255
38.42832074464027
35.49858854047456
33.252460517280845
33.74074921797513
30.811017013809415
28.564888990615703
25.24452582589456
22.119478141451133
22.803082322423133
18.89677271686885
15.869382772564279
16.55298695353628
13.525597009231708
11.377126726176853
8.05676356145571
4.931715877012284
5.615320057984283
1.6113527122911422
-1.2207217517357138
-0.537117570763714
-4.541084916456855
-7.470817120622568
-10.595864805065995
-13.720912489509422
-13.037308308537423
-16.064698252841993
-18.21316853589685
-17.724879835202564
-19.775692378118563
-21.24055848020142
-23.779659723811704
-26.025787747005417
-25.537499046311133
-26.61173418783856
-27.295338368810558
-27.100022888532845
-29.053177691309987
-30.518043793392845
-31.103990234225986
-31.9829098954757
-31.787594415197987
-33.64309147783627
-35.10795757991913
-34.81498435950255
-36.768139162279695
-38.23300526436255
-39.79552910658427
-41.358052948805984
-40.96742198825055
-43.018234531166556
-44.38544289311055
-44.09246967269398
-45.069047074082555
-45.85030899519341
-46.63157091630426
-47.31517509727627
-47.11985961699855
-48.09643701838712
-48.877698939497975
-48.68238345922026
-49.658960860608836
-50.34256504158083
-51.123826962691695
-51.90508888380255
-51.709773403524835
-52.6863508049134
-53.467612726024264
-53.27229724574655
-52.295719844357976
-51.51445792324712
-47.90112153810941
-44.873731593804834
-45.45967803463798
-38.62363622491798
-33.44777599755856
-34.61966887922484
-23.87731746395056
-15.771725032425422
-5.127031357289998
4.834058136873426
2.5879301136797133
15.47875181200885
25.049210345616846
22.90074006256199
33.838406958113985
41.943999389639124
48.68238345922026
55.81139848935683
54.24887464713512
60.30365453574426
64.60059510185397
63.6240177004654
67.62798504615854
70.55771725032426
70.85069047074083
71.72961013199054
71.43663691157397
67.62798504615854
64.69825284199283
65.28419928282597
60.401312275883114
56.690318150606544
54.639505607690545
52.19806210421912
52.6863508049134
50.635538261997404
49.17067215991455
49.46364538033112
49.365987640192266
49.365987640192266
51.31914244296941
52.78400854505226
52.39337758449683
54.346532387273975
55.81139848935683
55.51842526894026
54.639505607690545
53.85824368657969
50.14724956130312
47.11985961699855
47.80346379797055
45.75265125505455
44.28778515297169
44.580758373388264
42.529945830472265
41.065079728389414
40.479133287556266
39.600213626306555
39.79552910658427
38.72129396505684
38.03768978408484
38.1353475242237
37.15877012283513
36.37750820172427
36.57282368200198
36.57282368200198
36.475165941863125
35.596246280613414
34.81498435950255
34.91264209964141
34.91264209964141
34.91264209964141
35.889219501029984
36.57282368200198
36.37750820172427
35.49858854047456
34.717326619363696
34.91264209964141
33.838406958113985
33.15480277714199
32.27588311589227
31.494621194781413
31.68993667505913
28.760204470893417
26.514076447699704
27.002365148393988
24.072632944228275
21.826504921034562
20.45929655909056
18.799114976729992
19.18974593728542
16.260013733119706
14.013885709925994
14.50217441062028
11.47478446631571
9.326314183260854
8.838025482566568
7.959105821316854
8.154421301594567
7.177843900205997
6.39658197909514
6.591897459372854
5.615320057984283
4.834058136873426
6.884870679789426
8.349736781872283
8.05676356145571
10.986495765621424
13.232623788815136
12.74433508812085
17.627222095063708
21.24055848020142
26.123445487144274
30.811017013809415
29.736781872281988
36.67048142214084
41.74868390936141
40.67444876783398
46.63157091630426
51.02616922255284
55.713740749217976
60.401312275883114
59.32707713435569
64.3076218814374
67.92095826657511
67.13969634546426
71.04600595101854
73.97573815518425
75.2452887769894
76.8078126192111
76.41718165865568
78.46799420157168
79.83520256351568
79.54222934309911
79.54222934309911
79.54222934309911
78.56565194171054
77.78439002059967
77.88204776073853
74.95231555657283
72.70618753337911
73.19447623407339
70.26474402990769
68.01861600671397
64.60059510185397
61.5732051575494
62.2568093385214
57.27626459143969
53.56527046616312
54.346532387273975
49.365987640192266
45.75265125505455
41.74868390936141
37.84237430380713
38.72129396505684
33.74074921797513
30.029755092698558
30.811017013809415
25.830472266727703
22.21713588158999
18.21316853589685
14.306858930342566
15.185778591592278
11.181811245899137
8.252079041733426
8.838025482566568
4.931715877012284
2.0019836728465705
-1.1230640115968566
-4.248111696040284
-3.466849774929427
-7.470817120622568
-10.400549324788281
-9.71694514381628
-12.74433508812085
-14.990463111314565
-18.310826276035705
-21.338216220340275
-20.654612039368278
-23.682001983672848
-25.830472266727703
-25.342183566033416
-28.369573510337986
-30.518043793392845
-32.86182955672541
-35.20561532005799
-34.717326619363696
-37.64705882352941
-39.893186846723125
-39.307240405889985
-42.33463035019455
-44.48310063324941
-46.826886396581976
-49.17067215991455
-48.68238345922026
-50.635538261997404
-52.10040436408026
-51.709773403524835
-53.760585946440834
-55.127794308384836
-56.7879758907454
-58.25284199282826
-57.95986877241169
-58.936446173800256
-59.62005035477226
-59.42473487449455
-60.401312275883114
-61.182574196993976
-60.01068131532769
-59.32707713435569
-59.42473487449455
-58.44815747310597
-57.66689555199512
-57.764553292133975
-54.932478828107115
-52.6863508049134
-48.38941023880369
-44.48310063324941
-45.362020294499125
-38.42832074464027
-33.252460517280845
-34.424353398947126
-26.514076447699704
-20.654612039368278
-15.283436331731137
-9.71694514381628
-10.986495765621424
-6.884870679789426
-3.9551384756237127
-4.638742656595713
-0.6347753109025711
2.197299153124285
5.322346837567712
8.44739452201114
7.763790341039139
11.767757686732281
14.697489890897993
14.013885709925994
18.89677271686885
22.60776684214542
25.63515678644999
28.760204470893417
28.076600289921416
30.127412832837415
31.494621194781413
31.201647974364842
29.346150911726557
27.881284809643702
23.389028763256274
19.58037689784085
20.45929655909056
14.50217441062028
10.10757610437171
11.08415350576028
4.150453955901427
-0.9277485313191425
-5.420004577706569
-10.205233844510566
-9.130998702983138
-14.11154345006485
-17.82253757534142
-16.943617914091707
-21.92416266117342
-25.537499046311133
-27.588311589227132
-30.029755092698558
-29.443808651865414
-31.494621194781413
-32.95948729686427
-32.56885633630884
-33.64309147783627
-34.32669565880827
-34.131380178530556
-34.22903791866941
-34.131380178530556
-34.131380178530556
-34.131380178530556
-34.131380178530556
-34.131380178530556
-34.131380178530556
-35.10795757991913
-35.79156176089113
-35.596246280613414
-36.57282368200198
-37.35408560311284
-37.15877012283513
-39.11192492561227
-40.57679102769512
-41.16273746852827
-41.943999389639124
-41.74868390936141
-42.72526131074998
-43.50652323186084
-43.311207751583126
-44.28778515297169
-44.97138933394369
-44.77607385366598
-44.873731593804834
-44.77607385366598
-45.75265125505455
-46.533913176165406
-46.33859769588769
-46.33859769588769
-46.33859769588769
-46.33859769588769
-46.240939955748836
-46.240939955748836
-46.240939955748836
-46.240939955748836
-46.240939955748836
-44.28778515297169
-42.822919050888835
-41.16273746852827
-39.600213626306555
-39.99084458686198
-36.0845349813077
-33.05714503700313
-33.74074921797513
-27.881284809643702
-23.389028763256274
-16.748302433813993
-10.595864805065995
-11.963073167009995
-2.0996414129854277
5.127031357289998
3.5645075150682843
13.427939269092851
20.752269779507134
27.68596932936599
34.717326619363696
33.15480277714199
40.186160067139696
45.26436255436027
44.19012741283284
49.17067215991455
52.78400854505226
55.81139848935683
58.936446173800256
58.25284199282826
60.30365453574426
61.67086289768826
61.37788967727169
62.35446707866026
63.03807125963226
62.84275577935454
62.9404135194934
62.84275577935454
62.84275577935454
62.84275577935454
62.84275577935454
61.86617837796597
61.08491645685512
60.30365453574426
59.42473487449455
59.62005035477226
58.643472953383686
57.86221103227283
57.95986877241169
56.006713969634546
54.54184786755169
52.97932402532997
51.416800183108265
51.709773403524835
48.78004119935912
46.533913176165406
47.0222018768597
43.018234531166556
40.08850232700084
35.98687724116884
32.08056763561456
32.95948729686427
27.97894254978256
24.267948424505988
25.049210345616846
20.16632333867399
16.45532921339742
11.572442206454566
6.884870679789426
7.959105821316854
2.8809033340962844
-0.6347753109025711
0.04882887006942855
-4.736400396734569
-8.44739452201114
-12.45136186770428
-16.260013733119706
-15.47875181200885
-18.506141756313422
-20.654612039368278
-20.16632333867399
-24.072632944228275
-27.002365148393988
-28.27191577019913
-29.9320973525597
-29.541466392004274
-31.494621194781413
-32.95948729686427
-32.6665140764477
-33.64309147783627
-34.32669565880827
-35.10795757991913
-35.889219501029984
-35.69390402075227
-35.79156176089113
-35.69390402075227
-35.69390402075227
-36.67048142214084
-37.35408560311284
-37.256427862973986
-37.256427862973986
-37.256427862973986
-38.1353475242237
-38.91660944533455
-38.72129396505684
-39.69787136644541
-40.38147554741741
-40.28381780727855
-40.28381780727855
-40.28381780727855
-38.33066300450141
-36.86579690241855
-37.15877012283513
-34.22903791866941
-31.9829098954757
-28.66254673075456
-25.537499046311133
-26.22110322728313
-22.21713588158999
-19.287403677424276
-19.971007858396277
-14.11154345006485
-9.619287403677424
-2.9785610742351416
3.076218814373999
1.7090104524299992
12.549019607843137
20.55695429922942
18.799114976729992
29.736781872281988
37.74471656366827
47.412832837415124
56.690318150606544
54.639505607690545
64.60059510185397
71.92492561226825
70.26474402990769
77.29610131990539
82.37430380712597
83.15556572823682
84.81574731059739
84.42511635004196
86.37827115281911
87.84313725490196
87.45250629434653
87.55016403448539
87.45250629434653
86.47592889295797
85.6946669718471
85.88998245212481
83.93682764934768
82.37430380712597
82.66727702754254
78.76096742198825
75.83123521782254
71.63195239185168
67.82330052643626
68.60456244754711
61.768520637827116
56.59266041046769
57.66689555199512
49.75661860074769
43.89715419241627
35.596246280613414
27.881284809643702
29.541466392004274
19.678034637979707
12.256046387426567
13.916227969787137
4.052796215762569
-3.2715342946517127
-10.205233844510566
-17.236591134508277
-15.674067292286564
-22.705424582284277
-27.783627069504846
-26.61173418783856
-33.545433737697415
-38.72129396505684
-42.33463035019455
-46.240939955748836
-45.362020294499125
-51.31914244296941
-55.713740749217976
-54.7371633478294
-59.71770809491112
-63.33104448004883
-67.23735408560312
-71.1436636911574
-70.26474402990769
-74.26871137560083
-77.10078583962768
-76.41718165865568
-80.42114900434882
-83.35088120851454
-86.47592889295797
-89.50331883726253
-88.81971465629053
-92.72602426184481
-95.65575646601053
-94.97215228503853
-98.87846189059282
-101.80819409475852
-104.93324177920195
-108.05828946364538
-107.27702754253453
-110.3044174868391
-112.45288776989395
-111.96459906919966
-112.94117647058823
-113.62478065156023
-113.42946517128252
-113.42946517128252
-113.42946517128252
-110.49973296711681
-108.2536049439231
-108.74189364461738
-101.90585183489738
-96.6323338673991
-89.21034561684596
-82.27664606698711
-83.74151216906996
-71.92492561226825
-63.03807125963226
-64.9912260624094
-52.19806210421912
-42.529945830472265
-32.27588311589227
-22.119478141451133
-24.365606164644845
-13.330281528953995
-5.322346837567712
-7.080186160067139
0.8300907911802854
6.6895551995117115
10.205233844510566
14.209201190203707
13.232623788815136
17.236591134508277
20.16632333867399
19.58037689784085
21.63118944075685
22.998397802700847
23.682001983672848
24.4632639047837
24.267948424505988
25.24452582589456
26.025787747005417
25.830472266727703
25.830472266727703
25.830472266727703
25.830472266727703
25.830472266727703
25.830472266727703
25.830472266727703
25.830472266727703
25.830472266727703
25.732814526588847
25.732814526588847
25.732814526588847
25.732814526588847
25.732814526588847
25.732814526588847
25.732814526588847
25.732814526588847
25.732814526588847
25.732814526588847
25.732814526588847
25.732814526588847
25.63515678644999
24.756237125200276
23.974975204089418
24.17029068436713
23.096055542839704
22.412451361867703
20.654612039368278
19.092088197146563
19.48271915770199
16.45532921339742
14.306858930342566
14.795147631036851
10.79118028534371
7.861448081177996
4.736400396734569
1.6113527122911422
2.2949568932631417
-1.6113527122911422
-4.541084916456855
-3.8574807354848555
-7.861448081177996
-10.79118028534371
-13.916227969787137
-17.041275654230564
-16.357671473258563
-18.40848401617456
-19.87335011825742
-19.48271915770199
-21.533531700617992
-22.998397802700847
-23.58434424353399
-24.365606164644845
-24.17029068436713
-25.146868085755703
-25.92813000686656
-25.732814526588847
-26.709391927977418
-27.49065384908827
-28.27191577019913
-28.95551995117113
-28.857862211032273
-28.857862211032273
-28.857862211032273
-28.857862211032273
-29.736781872281988
-30.518043793392845
-32.27588311589227
-33.74074921797513
-33.3501182574197
-38.23300526436255
-41.943999389639124
-41.065079728389414
-45.069047074082555
-47.998779278248264
-47.31517509727627
-47.412832837415124
-47.412832837415124
-44.580758373388264
-42.33463035019455
-42.72526131074998
-35.98687724116884
-30.811017013809415
-21.43587396047913
-13.037308308537423
-14.892805371175708
-2.9785610742351416
5.71297779812314
3.7598229953459983
13.720912489509422
21.045242999923705
26.123445487144274
31.68993667505913
30.420386053253985
35.49858854047456
39.11192492561227
38.33066300450141
42.236972610055695
45.16670481422141
46.43625543602655
48.09643701838712
47.705806057831694
48.68238345922026
49.365987640192266
49.26832990005341
49.26832990005341
49.26832990005341
48.291752498664835
47.51049057755398
47.705806057831694
44.77607385366598
42.529945830472265
43.018234531166556
39.99084458686198
37.74471656366827
34.424353398947126
31.396963454642556
31.9829098954757
27.100022888532845
23.389028763256274
24.17029068436713
20.16632333867399
17.236591134508277
13.13496604867628
9.326314183260854
10.10757610437171
6.103608758678568
3.1738765545128556
3.8574807354848555
-0.04882887006942855
-2.9785610742351416
-5.127031357289998
-7.568474860761425
-6.982528419928283
-10.986495765621424
-13.916227969787137
-13.232623788815136
-16.260013733119706
-18.40848401617456
-19.87335011825742
-21.43587396047913
-21.045242999923705
-23.096055542839704
-24.4632639047837
-24.17029068436713
-26.123445487144274
-27.588311589227132
-29.150835431448844
-30.71335927367056
-30.420386053253985
-32.37354085603113
-33.838406958113985
-33.44777599755856
-35.4009308003357
-36.86579690241855
-38.42832074464027
-39.99084458686198
-39.69787136644541
-41.651026169222554
-43.11589227130541
-42.72526131074998
-45.654993514915695
-47.90112153810941
-49.26832990005341
-50.83085374227512
-50.44022278171969
-52.49103532463569
-53.95590142671855
-53.56527046616312
-56.49500267032883
-58.643472953383686
-59.13176165407798
-59.91302357518883
-59.71770809491112
-60.694285496299685
-61.475547417410546
-61.28023193713283
-60.30365453574426
-59.522392614633404
-57.764553292133975
-56.20202944991226
-56.59266041046769
-52.6863508049134
-49.658960860608836
-50.34256504158083
-43.50652323186084
-38.33066300450141
-30.811017013809415
-23.87731746395056
-25.439841306172273
-15.576409552147707
-8.154421301594567
-9.81460288395514
1.9043259327077133
10.693522545204852
18.310826276035705
26.22110322728313
24.4632639047837
31.494621194781413
36.57282368200198
35.4009308003357
40.479133287556266
44.09246967269398
46.14328221560998
48.48706797894255
47.998779278248264
48.09643701838712
47.998779278248264
47.998779278248264
47.0222018768597
46.33859769588769
43.604180971999696
41.358052948805984
41.84634164950027
37.84237430380713
34.91264209964141
35.596246280613414
31.592278934920273
28.66254673075456
24.4632639047837
20.654612039368278
21.43587396047913
16.55298695353628
12.84199282825971
13.623254749370565
9.619287403677424
6.6895551995117115
3.5645075150682843
0.43945983062485694
1.1230640115968566
0.04882887006942855
-0.6347753109025711
-0.43945983062485694
-1.416037232013428
-2.197299153124285
-2.0019836728465705
-2.0019836728465705
-2.0019836728465705
-2.0019836728465705
-2.0019836728465705
-2.0019836728465705
-2.0019836728465705
-2.0019836728465705
-2.0019836728465705
-2.0019836728465705
-2.0019836728465705
-2.9785610742351416
-3.7598229953459983
-3.5645075150682843
-4.541084916456855
-5.322346837567712
-5.127031357289998
-5.127031357289998
-5.127031357289998
-5.127031357289998
-5.127031357289998
-5.127031357289998
-5.127031357289998
-5.127031357289998
-5.127031357289998
-5.127031357289998
-5.127031357289998
-5.127031357289998
-5.127031357289998
-5.127031357289998
-7.080186160067139
-8.545052262149996
-12.939650568398566
-16.748302433813993
-15.869382772564279
-23.682001983672848
-29.63912413214313
-28.27191577019913
-36.182192721446555
-42.04165712977798
-44.580758373388264
-47.80346379797055
-47.11985961699855
-47.21751735713741
-47.21751735713741
-47.11985961699855
-42.33463035019455
-38.62363622491798
-30.908674753948272
-23.974975204089418
-25.537499046311133
-14.697489890897993
-6.591897459372854
-8.349736781872283
0.537117570763714
7.177843900205997
13.330281528953995
19.58037689784085
18.21316853589685
26.123445487144274
31.9829098954757
30.615701533531702
37.64705882352941
42.72526131074998
48.291752498664835
53.66292820630198
52.49103532463569
56.59266041046769
59.42473487449455
58.74113069352254
61.768520637827116
63.91699092088197
65.38185702296482
66.94438086518655
66.55374990463112
66.55374990463112
66.55374990463112
66.55374990463112
66.55374990463112
66.45609216449226
65.47951476310368
64.79591058213168
64.89356832227054
63.91699092088197
63.13572899977112
63.33104448004883
60.401312275883114
58.1551842526894
55.713740749217976
53.36995498588541
53.85824368657969
49.951934081025406
46.92454413672083
47.60814831769284
42.72526131074998
39.014267185473415
35.010299839780274
31.103990234225986
31.9829098954757
27.002365148393988
23.291371023117417
24.072632944228275
19.18974593728542
15.47875181200885
12.45136186770428
9.326314183260854
10.009918364232853
6.982528419928283
4.834058136873426
5.322346837567712
1.3183794918745708
-1.513694972152285
-3.662165255207141
-6.103608758678568
-5.517662317845426
-8.545052262149996
-10.693522545204852
-10.205233844510566
-12.256046387426567
-13.720912489509422
-15.283436331731137
-16.84596017395285
-16.45532921339742
-17.52956435492485
-18.21316853589685
-18.11551079575799
-18.11551079575799
-18.11551079575799
-18.994430457007706
-19.775692378118563
-19.58037689784085
-19.678034637979707
-19.58037689784085
-19.58037689784085
-20.55695429922942
-21.338216220340275
-22.119478141451133
-22.803082322423133
-22.705424582284277
-23.682001983672848
-24.365606164644845
-24.17029068436713
-24.267948424505988
-24.267948424505988
-25.146868085755703
-25.92813000686656
-25.732814526588847
-26.709391927977418
-27.49065384908827
-27.295338368810558
-28.27191577019913
-28.95551995117113
-29.736781872281988
-30.518043793392845
-30.322728313115128
-29.443808651865414
-28.66254673075456
-28.857862211032273
-25.92813000686656
-23.682001983672848
-18.40848401617456
-13.916227969787137
-14.892805371175708
-6.982528419928283
-1.1230640115968566
-2.392614633401999
6.39658197909514
12.939650568398566
21.045242999923705
28.760204470893417
27.100022888532845
35.10795757991913
40.86976424811169
39.600213626306555
46.533913176165406
51.709773403524835
55.32310978866255
59.22941939421683
58.350499732967116
61.37788967727169
63.526359960326545
63.03807125963226
63.13572899977112
63.13572899977112
62.15915159838254
61.37788967727169
61.475547417410546
58.54581521324483
56.29968719005112
56.7879758907454
52.881666285191116
49.951934081025406
44.873731593804834
40.186160067139696
41.26039520866713
34.32669565880827
29.150835431448844
30.22507057297627
24.267948424505988
19.87335011825742
14.209201190203707
8.74036774242771
9.912260624093996
2.9785610742351416
-2.0019836728465705
-0.9277485313191425
-6.884870679789426
-11.279468986037996
-16.064698252841993
-20.654612039368278
-19.678034637979707
-24.65857938506142
-28.27191577019913
-27.49065384908827
-31.494621194781413
-34.424353398947126
-36.57282368200198
-38.91660944533455
-38.42832074464027
-40.479133287556266
-41.84634164950027
-41.5533684290837
-44.48310063324941
-46.63157091630426
-48.09643701838712
-49.658960860608836
-49.26832990005341
-52.19806210421912
-54.44419012741283
-53.85824368657969
-57.764553292133975
-60.694285496299685
-64.79591058213168
-68.70222018768597
-67.82330052643626
-75.63591973754482
-81.49538414587624
-80.12817578393225
-87.06187533379111
-92.14007782101167
-94.87449454489968
-97.99954222934309
-97.3159380483711
-98.39017318989853
-99.07377737087053
-98.87846189059282
-96.92530708781567
-95.46044098573282
-91.94476234073396
-88.81971465629053
-89.50331883726253
-85.49935149156939
-82.56961928740368
-83.15556572823682
-80.12817578393225
-77.88204776073853
-77.39375906004425
-76.51483939879454
-76.71015487907225
-72.80384527351796
-69.77645532921339
-70.4600595101854
-65.47951476310368
-61.86617837796597
-54.932478828107115
-48.877698939497975
-50.14724956130312
-42.236972610055695
-36.37750820172427
-37.64705882352941
-27.783627069504846
-20.45929655909056
-12.45136186770428
-4.736400396734569
-6.39658197909514
2.490272373540856
9.033340962844282
7.568474860761425
16.45532921339742
23.096055542839704
28.27191577019913
33.838406958113985
32.56885633630884
38.525978484779124
42.92057679102769
41.943999389639124
46.92454413672083
50.635538261997404
53.56527046616312
56.690318150606544
56.006713969634546
59.03410391393912
61.182574196993976
60.694285496299685
63.6240177004654
65.77248798352025
67.23735408560312
68.79987792782482
68.4092469672694
68.4092469672694
68.4092469672694
68.4092469672694
66.45609216449226
64.9912260624094
61.475547417410546
58.350499732967116
59.03410391393912
54.15121690699626
50.44022278171969
51.22148470283055
44.28778515297169
39.11192492561227
33.64309147783627
28.174258030060273
29.346150911726557
23.389028763256274
18.89677271686885
19.87335011825742
13.916227969787137
9.521629663538567
6.6895551995117115
3.466849774929427
4.248111696040284
0.24414435034714274
-2.5879301136797133
-1.9043259327077133
-4.931715877012284
-7.177843900205997
-9.521629663538567
-11.865415426871138
-11.279468986037996
-13.330281528953995
-14.795147631036851
-14.50217441062028
-16.45532921339742
-17.920195315480278
-18.506141756313422
-19.385061417563133
-19.18974593728542
-21.14290074006256
-22.60776684214542
-22.21713588158999
-23.291371023117417
-23.974975204089418
-23.779659723811704
-23.87731746395056
-23.779659723811704
-25.732814526588847
-27.1976806286717
-26.90470740825513
-27.881284809643702
-28.564888990615703
-30.322728313115128
-31.885252155336843
-31.494621194781413
-34.424353398947126
-36.67048142214084
-36.0845349813077
-38.1353475242237
-39.600213626306555
-40.186160067139696
-40.96742198825055
-40.772106507972836
-42.72526131074998
-44.19012741283284
-43.89715419241627
-43.89715419241627
-43.89715419241627
-43.89715419241627
-43.89715419241627
-43.89715419241627
-41.943999389639124
-40.479133287556266
-40.772106507972836
-37.84237430380713
-35.596246280613414
-30.322728313115128
-25.732814526588847
-26.807049668116274
-19.87335011825742
-14.697489890897993
-15.869382772564279
-7.959105821316854
-2.0019836728465705
4.150453955901427
10.400549324788281
9.033340962844282
15.088120851453422
19.48271915770199
18.506141756313422
22.510109102006563
25.439841306172273
26.61173418783856
28.27191577019913
27.881284809643702
27.002365148393988
26.22110322728313
26.416418707560844
25.439841306172273
24.65857938506142
21.92416266117342
19.678034637979707
20.16632333867399
16.260013733119706
13.330281528953995
13.916227969787137
10.009918364232853
7.080186160067139
3.8574807354848555
0.7324330510414282
1.416037232013428
-1.513694972152285
-3.662165255207141
-3.1738765545128556
-6.103608758678568
-8.349736781872283
-10.693522545204852
-13.037308308537423
-12.549019607843137
-13.623254749370565
-14.306858930342566
-14.11154345006485
-15.088120851453422
-15.869382772564279
-15.674067292286564
-15.771725032425422
-15.674067292286564
-15.674067292286564
-15.674067292286564
-15.674067292286564
-16.650644693675137
-17.43190661478599
-20.068665598535134
-22.314793621728846
-21.826504921034562
-27.68596932936599
-32.08056763561456
-31.103990234225986
-37.06111238269627
-41.45571068894484
-43.311207751583126
-45.75265125505455
-45.16670481422141
-45.26436255436027
-45.26436255436027
-45.26436255436027
-43.311207751583126
-41.84634164950027
-37.35408560311284
-33.545433737697415
-34.32669565880827
-29.443808651865414
-25.732814526588847
-26.514076447699704
-25.342183566033416
-24.65857938506142
-25.732814526588847
-26.514076447699704
-26.318760967421987
-27.295338368810558
-27.97894254978256
-27.881284809643702
-28.857862211032273
-29.541466392004274
-29.346150911726557
-29.443808651865414
-29.346150911726557
-30.322728313115128
-31.103990234225986
-30.908674753948272
-30.908674753948272
-30.908674753948272
-28.95551995117113
-27.49065384908827
-27.783627069504846
-24.853894865339132
-22.60776684214542
-23.096055542839704
-18.21316853589685
-14.50217441062028
-9.619287403677424
-5.0293736171511405
-6.005951018539712
1.7090104524299992
7.666132600900283
6.298924238956283
13.330281528953995
18.40848401617456
22.021820401312276
26.025787747005417
25.146868085755703
29.150835431448844
32.08056763561456
31.396963454642556
34.424353398947126
36.57282368200198
37.94003204394598
39.600213626306555
39.20958266575113
39.307240405889985
39.20958266575113
39.20958266575113
39.20958266575113
39.20958266575113
38.23300526436255
37.4517433432517
37.64705882352941
35.69390402075227
34.22903791866941
34.52201113908598
32.471198596169984
31.00633249408713
28.467231250476843
26.123445487144274
26.709391927977418
23.682001983672848
21.43587396047913
21.92416266117342
18.994430457007706
16.748302433813993
14.404516670481422
12.060730907148852
12.549019607843137
10.498207064927138
9.033340962844282
9.42397192339971
7.373159380483711
5.908293278400855
4.345769436179141
2.783245593957427
3.1738765545128556
1.1230640115968566
-0.24414435034714274
0.04882887006942855
-1.9043259327077133
-3.36919203479057
-3.9551384756237127
-4.736400396734569
-4.638742656595713
-5.615320057984283
-6.298924238956283
-6.201266498817426
-7.177843900205997
-7.861448081177996
-8.642710002288853
-9.42397192339971
-9.228656443121995
-10.302891584649425
-10.986495765621424
-10.79118028534371
-10.888838025482567
-10.888838025482567
-10.888838025482567
-10.79118028534371
-10.79118028534371
-10.79118028534371
-10.79118028534371
-10.79118028534371
-9.912260624093996
-9.130998702983138
-7.373159380483711
-5.810635538261997
-6.201266498817426
-4.248111696040284
-2.68558785381857
-3.076218814373999
-1.0254062714579995
0.34180209048599985
2.8809033340962844
5.127031357289998
4.638742656595713
8.545052262149996
11.47478446631571
10.79118028534371
15.771725032425422
19.385061417563133
24.365606164644845
28.95551995117113
27.881284809643702
36.768139162279695
43.311207751583126
41.84634164950027
51.709773403524835
59.03410391393912
66.94438086518655
74.75700007629511
72.99916075379568
82.86259250782025
90.18692301823454
88.52674143587396
97.51125352864881
104.05432211795224
109.23018234531166
114.69901579308767
113.42946517128252
119.3865873197528
123.78118562600137
122.70695048447395
125.83199816891737
127.98046845197223
128.37109941252766
129.1523613336385
128.9570458533608
127.00389105058366
125.5390249485008
125.83199816891737
121.82803082322422
118.89829861905852
112.84351873044938
107.47234302281224
108.54657816433966
100.63630121309224
94.77683680476082
96.04638742656596
88.03845273517967
82.17898832684826
76.71015487907225
71.24132143129626
72.41321431296254
66.45609216449226
61.96383611810483
62.9404135194934
57.95986877241169
54.24887464713512
51.22148470283055
48.09643701838712
48.78004119935912
45.75265125505455
43.50652323186084
43.99481193255512
40.96742198825055
38.818951705195694
33.545433737697415
28.95551995117113
29.9320973525597
22.119478141451133
16.16235599298085
17.52956435492485
9.521629663538567
3.662165255207141
0.24414435034714274
-3.662165255207141
-2.783245593957427
-6.787212939650568
-9.71694514381628
-9.130998702983138
-10.205233844510566
-10.888838025482567
-10.693522545204852
-10.79118028534371
-10.79118028534371
-9.81460288395514
-9.033340962844282
-9.228656443121995
-11.08415350576028
-12.549019607843137
-16.064698252841993
-19.092088197146563
-18.40848401617456
-22.412451361867703
-25.342183566033416
-24.65857938506142
-27.68596932936599
-29.834439612420844
-32.178225375753414
-34.52201113908598
-34.0337224383917
-35.98687724116884
-37.4517433432517
-37.15877012283513
-38.1353475242237
-38.818951705195694
-38.72129396505684
-38.72129396505684
-38.72129396505684
-38.62363622491798
-38.62363622491798
-38.62363622491798
-37.64705882352941
-36.96345464255741
-34.22903791866941
-31.9829098954757
-32.471198596169984
-27.49065384908827
-23.87731746395056
-24.65857938506142
-18.701457236591136
-14.306858930342566
-8.642710002288853
-3.1738765545128556
-4.345769436179141
2.490272373540856
7.568474860761425
6.494239719233997
12.45136186770428
16.84596017395285
21.533531700617992
26.22110322728313
25.24452582589456
30.22507057297627
33.838406958113985
33.05714503700313
37.94003204394598
41.651026169222554
44.580758373388264
47.80346379797055
47.0222018768597
50.04959182116426
52.19806210421912
51.709773403524835
52.78400854505226
53.467612726024264
52.295719844357976
51.61211566338598
51.709773403524835
48.877698939497975
46.63157091630426
47.11985961699855
44.09246967269398
41.84634164950027
37.549401083390556
33.74074921797513
34.61966887922484
29.63912413214313
25.92813000686656
26.709391927977418
20.84992751964599
16.357671473258563
11.670099946593423
6.982528419928283
7.959105821316854
2.0019836728465705
-2.2949568932631417
-1.3183794918745708
-6.298924238956283
-9.912260624093996
-13.916227969787137
-17.82253757534142
-16.943617914091707
-21.826504921034562
-25.537499046311133
-24.756237125200276
-27.783627069504846
-29.9320973525597
-32.27588311589227
-34.61966887922484
-34.131380178530556
-36.0845349813077
-37.549401083390556
-37.256427862973986
-39.20958266575113
-40.67444876783398
-41.26039520866713
-42.04165712977798
-41.84634164950027
-42.822919050888835
-43.604180971999696
-43.40886549172198
-43.40886549172198
-43.40886549172198
-43.40886549172198
-43.40886549172198
-43.311207751583126
-43.311207751583126
-43.311207751583126
-43.311207751583126
-42.33463035019455
-41.5533684290837
-39.79552910658427
-38.33066300450141
-38.62363622491798
-36.67048142214084
-35.10795757991913
-35.49858854047456
-32.471198596169984
-30.322728313115128
-28.857862211032273
-27.295338368810558
-27.588311589227132
-25.63515678644999
-24.17029068436713
-24.4632639047837
-22.510109102006563
-20.947585259784848
-17.52956435492485
-14.404516670481422
-15.088120851453422
-9.228656443121995
-4.834058136873426
-5.810635538261997
2.9785610742351416
9.521629663538567
16.650644693675137
23.682001983672848
22.119478141451133
31.9829098954757
39.307240405889985
37.74471656366827
46.63157091630426
53.27229724574655
58.44815747310597
63.91699092088197
62.64744029907683
66.74906538490883
69.67879758907453
68.99519340810254
71.04600595101854
72.41321431296254
72.12024109254597
72.12024109254597
72.12024109254597
71.1436636911574
70.36240177004655
70.55771725032426
69.48348210879682
68.70222018768597
66.06546120393683
63.72167544060426
64.20996414129854
62.15915159838254
60.694285496299685
60.987258716716255
58.057526512550545
55.81139848935683
53.467612726024264
51.02616922255284
51.61211566338598
48.584725719081405
46.33859769588769
46.826886396581976
42.92057679102769
39.893186846723125
34.81498435950255
30.22507057297627
31.2993057145037
22.412451361867703
15.771725032425422
17.236591134508277
8.349736781872283
1.7090104524299992
-2.490272373540856
-7.275501640344854
-6.201266498817426
-9.228656443121995
-11.47478446631571
-10.986495765621424
-10.10757610437171
-9.326314183260854
-6.591897459372854
-4.345769436179141
-4.834058136873426
-1.9043259327077133
0.24414435034714274
-0.14648661020828566
-1.0254062714579995
-1.8066681925688564
-4.443427176317998
-6.787212939650568
-6.201266498817426
-10.205233844510566
-13.13496604867628
-12.45136186770428
-16.45532921339742
-19.385061417563133
-22.510109102006563
-25.63515678644999
-24.95155260547799
-27.881284809643702
-30.127412832837415
-29.63912413214313
-32.56885633630884
-34.717326619363696
-37.15877012283513
-39.5025558861677
-38.91660944533455
-39.99084458686198
-40.67444876783398
-40.479133287556266
-42.43228809033341
-43.89715419241627
-44.48310063324941
-45.362020294499125
-45.16670481422141
-44.19012741283284
-43.40886549172198
-43.604180971999696
-41.651026169222554
-40.08850232700084
-35.69390402075227
-31.885252155336843
-32.6665140764477
-26.807049668116274
-22.412451361867703
-23.291371023117417
-15.47875181200885
-9.619287403677424
-3.2715342946517127
2.8809033340962844
1.513694972152285
8.44739452201114
13.623254749370565
12.45136186770428
18.40848401617456
22.803082322423133
25.63515678644999
28.857862211032273
28.174258030060273
32.08056763561456
35.010299839780274
34.32669565880827
37.35408560311284
39.600213626306555
40.96742198825055
42.529945830472265
42.13931486991684
42.236972610055695
42.236972610055695
42.236972610055695
41.26039520866713
40.479133287556266
38.72129396505684
37.15877012283513
37.549401083390556
34.52201113908598
32.37354085603113
32.86182955672541
28.857862211032273
25.92813000686656
22.803082322423133
19.678034637979707
20.361638818951704
14.404516670481422
10.009918364232853
10.986495765621424
6.005951018539712
2.2949568932631417
-2.490272373540856
-7.177843900205997
-6.103608758678568
-11.08415350576028
-14.795147631036851
-13.916227969787137
-18.89677271686885
-22.510109102006563
-26.514076447699704
-30.420386053253985
-29.541466392004274
-33.545433737697415
-36.475165941863125
-35.79156176089113
-39.69787136644541
-42.62760357061112
-44.873731593804834
-47.21751735713741
-46.63157091630426
-50.53788052185855
-53.467612726024264
-52.881666285191116
-55.81139848935683
-58.057526512550545
-61.28023193713283
-64.40527962157626
-63.72167544060426
-67.62798504615854
-70.55771725032426
-69.87411306935225
-73.78042267490653
-76.71015487907225
-79.83520256351568
-82.96025024795911
-82.27664606698711
-85.20637827115281
-87.35484855420768
-86.8665598535134
-88.91737239642939
-90.2845807583734
-91.8471046005951
-93.40962844281681
-93.01899748226138
-93.11665522240024
-93.01899748226138
-93.01899748226138
-93.8979171435111
-94.67917906462196
-95.36278324559396
-96.14404516670481
-95.9487296864271
-96.92530708781567
-97.60891126878766
-97.41359578850995
-98.39017318989853
-99.07377737087053
-97.90188448920424
-97.21828030823224
-97.3159380483711
-94.38620584420539
-92.14007782101167
-92.62836652170596
-87.64782177462425
-83.93682764934768
-78.07736324101626
-72.70618753337911
-73.87808041504539
-65.96780346379796
-60.01068131532769
-61.28023193713283
-54.346532387273975
-49.17067215991455
-43.604180971999696
-38.1353475242237
-39.307240405889985
-34.32669565880827
-30.615701533531702
-31.396963454642556
-26.416418707560844
-22.803082322423133
-19.775692378118563
-16.650644693675137
-17.334248874647134
-13.330281528953995
-10.400549324788281
-11.08415350576028
-8.935683222705425
-7.568474860761425
-5.0293736171511405
-2.68558785381857
-3.1738765545128556
-2.0996414129854277
-1.416037232013428
-1.6113527122911422
-1.513694972152285
-1.513694972152285
-4.443427176317998
-6.591897459372854
-6.103608758678568
-11.963073167009995
-16.357671473258563
-15.381094071869994
-21.338216220340275
-25.732814526588847
-29.541466392004274
-33.44777599755856
-32.56885633630884
-35.596246280613414
-37.74471656366827
-37.256427862973986
-37.35408560311284
-37.35408560311284
