ppg
15.674067292286564
16.357671473258563
16.16235599298085
15.283436331731137
14.50217441062028
11.767757686732281
9.521629663538567
10.009918364232853
6.103608758678568
3.1738765545128556
3.7598229953459983
-2.0019836728465705
-6.39658197909514
-12.060730907148852
-17.52956435492485
-16.260013733119706
-22.314793621728846
-26.709391927977418
-25.732814526588847
-32.56885633630884
-37.74471656366827
-41.358052948805984
-45.26436255436027
-44.38544289311055
-49.365987640192266
-52.97932402532997
-52.19806210421912
-55.22545204852369
-57.37392233157855
-59.71770809491112
-62.061493858243686
-61.475547417410546
-63.526359960326545
-64.9912260624094
-64.60059510185397
-65.57717250324254
-66.3584344243534
-67.13969634546426
-67.82330052643626
-67.62798504615854
-68.60456244754711
-69.38582436865796
-69.19050888838025
-70.16708628976883
-70.85069047074083
-71.63195239185168
-72.41321431296254
-72.21789883268482
-73.19447623407339
-73.87808041504539
-73.68276493476768
-74.65934233615626
-75.34294651712825
-76.12420843823911
-76.90547035934996
-76.71015487907225
-75.73357747768368
-74.95231555657283
-75.14763103685054
-74.07339589532312
-73.29213397421225
-70.55771725032426
-68.31158922713054
-68.79987792782482
-65.77248798352025
-63.6240177004654
-64.01464866102083
-60.108339055466544
-57.178606851300835
-53.95590142671855
-50.83085374227512
-51.51445792324712
-47.51049057755398
-44.580758373388264
-45.16670481422141
-42.13931486991684
-39.99084458686198
-36.57282368200198
-33.545433737697415
-34.22903791866941
-30.22507057297627
-27.295338368810558
-27.881284809643702
-22.998397802700847
-19.287403677424276
-15.381094071869994
-11.47478446631571
-12.353704127565424
-5.420004577706569
-0.24414435034714274
-1.416037232013428
5.420004577706569
10.595864805065995
16.064698252841993
21.533531700617992
20.361638818951704
26.318760967421987
30.71335927367056
29.736781872281988
34.717326619363696
38.33066300450141
41.358052948805984
44.48310063324941
43.79949645227741
47.705806057831694
50.635538261997404
49.951934081025406
53.95590142671855
56.88563363088426
59.03410391393912
61.37788967727169
60.8896009765774
64.79591058213168
67.7256427862974
67.0420386053254
69.9717708094911
72.21789883268482
71.63195239185168
71.72961013199054
71.72961013199054
69.77645532921339
68.31158922713054
68.60456244754711
61.768520637827116
56.59266041046769
47.21751735713741
38.818951705195694
40.67444876783398
29.736781872281988
21.63118944075685
23.389028763256274
13.525597009231708
6.103608758678568
2.0019836728465705
-2.68558785381857
-1.6113527122911422
-4.736400396734569
-6.884870679789426
-6.39658197909514
-6.494239719233997
-6.494239719233997
-3.662165255207141
-1.416037232013428
-1.9043259327077133
3.8574807354848555
8.252079041733426
7.275501640344854
13.232623788815136
17.627222095063708
21.43587396047913
25.342183566033416
24.4632639047837
27.49065384908827
29.736781872281988
29.2484931715877
29.346150911726557
29.2484931715877
24.4632639047837
20.752269779507134
21.63118944075685
12.84199282825971
6.201266498817426
7.666132600900283
-1.2207217517357138
-7.763790341039139
-14.892805371175708
-21.92416266117342
-20.361638818951704
-28.369573510337986
-34.22903791866941
-32.86182955672541
-39.79552910658427
-44.97138933394369
-49.56130312046998
-54.24887464713512
-53.17463950560769
-57.178606851300835
-60.108339055466544
-59.42473487449455
-63.33104448004883
-66.26077668421455
-65.57717250324254
-65.77248798352025
-65.6748302433814
-62.84275577935454
-60.59662775616083
-61.08491645685512
-56.1043717097734
-52.39337758449683
-46.533913176165406
-41.16273746852827
-42.33463035019455
-34.424353398947126
-28.564888990615703
-29.834439612420844
-20.947585259784848
-14.306858930342566
-9.130998702983138
-3.5645075150682843
-4.834058136873426
2.0996414129854277
7.177843900205997
6.103608758678568
12.060730907148852
16.45532921339742
20.263981078812847
24.17029068436713
23.291371023117417
27.295338368810558
30.22507057297627
29.541466392004274
31.592278934920273
33.05714503700313
34.61966887922484
36.182192721446555
35.79156176089113
35.889219501029984
35.79156176089113
35.79156176089113
34.81498435950255
34.131380178530556
32.37354085603113
30.811017013809415
31.103990234225986
28.174258030060273
25.92813000686656
26.416418707560844
23.48668650339513
21.24055848020142
18.89677271686885
16.55298695353628
17.041275654230564
13.13496604867628
10.205233844510566
10.79118028534371
7.763790341039139
5.615320057984283
3.2715342946517127
0.9277485313191425
1.416037232013428
-1.513694972152285
-3.662165255207141
-3.1738765545128556
-5.224689097428855
-6.6895551995117115
-8.252079041733426
-9.81460288395514
-9.42397192339971
-10.498207064927138
-11.181811245899137
-11.08415350576028
-12.060730907148852
-12.74433508812085
-12.549019607843137
-12.646677347981994
-12.646677347981994
-12.646677347981994
-12.646677347981994
-12.549019607843137
-12.549019607843137
-12.549019607843137
-12.549019607843137
-12.549019607843137
-12.549019607843137
-12.549019607843137
-12.549019607843137
-12.549019607843137
-12.549019607843137
-12.549019607843137
-12.549019607843137
-12.549019607843137
-12.549019607843137
-11.572442206454566
-10.888838025482567
-10.986495765621424
-10.009918364232853
-9.228656443121995
-8.44739452201114
-7.666132600900283
-7.861448081177996
-5.908293278400855
-4.443427176317998
-4.736400396734569
-2.783245593957427
-1.3183794918745708
1.1230640115968566
3.466849774929427
2.8809033340962844
6.884870679789426
9.81460288395514
9.130998702983138
13.13496604867628
16.064698252841993
20.16632333867399
23.974975204089418
23.096055542839704
29.053177691309987
33.44777599755856
32.471198596169984
38.42832074464027
42.822919050888835
47.51049057755398
52.19806210421912
51.123826962691695
56.1043717097734
59.71770809491112
58.936446173800256
62.9404135194934
65.77248798352025
68.99519340810254
72.02258335240711
71.33897917143511
74.36636911573969
76.51483939879454
76.02655069810025
77.97970550087739
79.44457160296025
79.05394064240483
79.15159838254368
79.05394064240483
79.05394064240483
79.05394064240483
79.05394064240483
77.10078583962768
75.53826199740597
72.02258335240711
68.99519340810254
69.67879758907453
64.69825284199283
60.987258716716255
61.768520637827116
56.7879758907454
53.17463950560769
49.17067215991455
45.26436255436027
46.14328221560998
39.20958266575113
34.0337224383917
35.20561532005799
27.295338368810558
21.338216220340275
15.088120851453422
8.838025482566568
10.205233844510566
6.982528419928283
4.834058136873426
5.322346837567712
4.248111696040284
3.5645075150682843
6.591897459372854
8.74036774242771
8.252079041733426
12.158388647287708
15.185778591592278
14.50217441062028
18.40848401617456
21.338216220340275
20.752269779507134
20.84992751964599
20.84992751964599
18.89677271686885
17.43190661478599
17.724879835202564
13.81857022964828
10.888838025482567
7.763790341039139
4.638742656595713
5.322346837567712
0.34180209048599985
-3.1738765545128556
-2.392614633401999
-6.39658197909514
-9.326314183260854
-13.427939269092851
-17.334248874647134
-16.45532921339742
-20.45929655909056
-23.389028763256274
-22.705424582284277
-25.732814526588847
-27.881284809643702
-29.346150911726557
-30.908674753948272
-30.518043793392845
-30.615701533531702
-30.615701533531702
-30.615701533531702
-27.68596932936599
-25.439841306172273
-22.119478141451133
-18.994430457007706
-19.678034637979707
-12.84199282825971
-7.666132600900283
-8.838025482566568
-0.9277485313191425
4.834058136873426
13.037308308537423
20.752269779507134
19.092088197146563
27.97894254978256
34.61966887922484
33.15480277714199
43.018234531166556
50.34256504158083
56.29968719005112
62.64744029907683
61.182574196993976
68.21393148699168
73.29213397421225
72.12024109254597
78.07736324101626
82.47196154726483
85.30403601129167
88.4290836957351
87.64782177462425
89.69863431754024
91.1635004196231
90.77286945906768
91.74944686045625
92.5307087815671
91.35881589990082
90.57755397878996
90.77286945906768
87.84313725490196
85.59700923170824
85.98764019226367
81.10475318532082
77.39375906004425
72.5108720531014
67.82330052643626
68.79987792782482
61.86617837796597
56.690318150606544
57.86221103227283
50.928511482413974
45.75265125505455
40.186160067139696
34.717326619363696
35.889219501029984
29.9320973525597
25.537499046311133
26.514076447699704
20.55695429922942
16.064698252841993
13.232623788815136
10.10757610437171
10.79118028534371
6.787212939650568
3.8574807354848555
4.541084916456855
0.537117570763714
-2.2949568932631417
-5.420004577706569
-8.545052262149996
-7.861448081177996
-11.865415426871138
-14.795147631036851
-14.11154345006485
-18.11551079575799
-21.045242999923705
-23.19371328297856
-25.537499046311133
-25.049210345616846
-27.97894254978256
-30.22507057297627
-29.736781872281988
-32.6665140764477
-34.91264209964141
-36.27985046158541
-37.84237430380713
-37.4517433432517
-38.525978484779124
-39.20958266575113
-39.014267185473415
-40.96742198825055
-42.43228809033341
-43.11589227130541
-43.89715419241627
-43.70183871213855
-45.654993514915695
-47.11985961699855
-46.72922865644312
-48.68238345922026
-50.14724956130312
-52.6863508049134
-54.932478828107115
-54.44419012741283
-56.39734493018997
-57.86221103227283
-57.56923781185626
-57.56923781185626
-57.56923781185626
-56.59266041046769
-55.81139848935683
-56.006713969634546
-51.123826962691695
-47.412832837415124
-48.19409475852598
-42.33463035019455
-37.84237430380713
-31.201647974364842
-25.049210345616846
-26.416418707560844
-17.52956435492485
-10.888838025482567
-12.353704127565424
-5.322346837567712
-0.24414435034714274
3.36919203479057
7.275501640344854
6.39658197909514
10.400549324788281
13.330281528953995
12.74433508812085
14.795147631036851
16.16235599298085
17.82253757534142
19.287403677424276
18.994430457007706
19.971007858396277
20.752269779507134
20.55695429922942
20.55695429922942
20.55695429922942
19.58037689784085
18.89677271686885
18.994430457007706
18.017853055619135
17.236591134508277
17.43190661478599
15.47875181200885
14.013885709925994
12.45136186770428
10.888838025482567
11.181811245899137
5.420004577706569
0.9277485313191425
1.9043259327077133
-5.810635538261997
-11.670099946593423
-18.017853055619135
-24.267948424505988
-22.90074006256199
-27.002365148393988
-29.834439612420844
-29.2484931715877
-31.2993057145037
-32.6665140764477
-31.396963454642556
-30.71335927367056
-30.908674753948272
-27.002365148393988
-24.072632944228275
-24.65857938506142
-20.752269779507134
-17.82253757534142
-18.40848401617456
-18.310826276035705
-18.310826276035705
-20.16632333867399
-21.728847180895706
-21.338216220340275
-23.291371023117417
-24.756237125200276
-26.318760967421987
-27.881284809643702
-27.588311589227132
-28.564888990615703
-29.2484931715877
-29.150835431448844
-30.127412832837415
-30.811017013809415
-30.615701533531702
-30.71335927367056
-30.71335927367056
-30.615701533531702
-30.615701533531702
-30.615701533531702
-30.615701533531702
-30.615701533531702
-31.592278934920273
-32.27588311589227
-32.08056763561456
-33.05714503700313
-33.838406958113985
-33.64309147783627
-33.64309147783627
-33.64309147783627
-33.64309147783627
-33.64309147783627
-33.64309147783627
-32.6665140764477
-31.885252155336843
-32.08056763561456
-29.150835431448844
-26.90470740825513
-23.58434424353399
-20.45929655909056
-21.14290074006256
-15.283436331731137
-10.888838025482567
-11.865415426871138
-4.931715877012284
0.14648661020828566
4.736400396734569
9.42397192339971
8.349736781872283
14.306858930342566
18.701457236591136
17.724879835202564
21.728847180895706
24.65857938506142
27.783627069504846
30.908674753948272
30.22507057297627
33.252460517280845
35.4009308003357
34.91264209964141
36.96345464255741
38.42832074464027
39.014267185473415
39.79552910658427
39.600213626306555
39.600213626306555
39.600213626306555
39.600213626306555
38.62363622491798
37.84237430380713
37.06111238269627
36.27985046158541
36.475165941863125
34.52201113908598
32.95948729686427
33.3501182574197
30.420386053253985
28.174258030060273
25.732814526588847
23.389028763256274
23.974975204089418
20.947585259784848
18.701457236591136
19.18974593728542
15.283436331731137
12.353704127565424
10.10757610437171
7.763790341039139
8.252079041733426
5.322346837567712
3.076218814373999
3.5645075150682843
0.6347753109025711
-1.513694972152285
-2.8809033340962844
-4.541084916456855
-4.150453955901427
-6.103608758678568
-7.568474860761425
-7.275501640344854
-9.228656443121995
-10.693522545204852
-12.256046387426567
-13.81857022964828
-13.525597009231708
-15.47875181200885
-16.943617914091707
-16.650644693675137
-16.650644693675137
-16.650644693675137
-17.627222095063708
-18.310826276035705
-18.21316853589685
-19.18974593728542
-19.87335011825742
-19.775692378118563
-19.775692378118563
-19.775692378118563
-19.775692378118563
-19.775692378118563
-19.775692378118563
-20.654612039368278
-21.43587396047913
-21.24055848020142
-21.24055848020142
-21.24055848020142
-22.21713588158999
-22.90074006256199
-22.803082322423133
-24.756237125200276
-26.22110322728313
-25.830472266727703
-26.90470740825513
-27.588311589227132
-28.369573510337986
-29.150835431448844
-28.95551995117113
-28.95551995117113
-28.95551995117113
-28.95551995117113
-27.97894254978256
-27.1976806286717
-25.439841306172273
-23.974975204089418
-24.267948424505988
-20.361638818951704
-17.43190661478599
-18.11551079575799
-12.158388647287708
-7.763790341039139
-1.1230640115968566
4.931715877012284
3.5645075150682843
11.47478446631571
17.43190661478599
16.064698252841993
23.974975204089418
29.834439612420844
34.32669565880827
39.014267185473415
37.94003204394598
43.89715419241627
48.291752498664835
47.31517509727627
50.34256504158083
52.49103532463569
54.932478828107115
57.178606851300835
56.690318150606544
57.764553292133975
58.44815747310597
58.25284199282826
59.22941939421683
59.91302357518883
58.8387884336614
58.057526512550545
58.25284199282826
53.36995498588541
49.658960860608836
50.44022278171969
43.604180971999696
38.42832074464027
32.86182955672541
27.392996108949415
28.564888990615703
23.58434424353399
19.87335011825742
20.654612039368278
17.627222095063708
15.47875181200885
15.967040512703136
15.869382772564279
15.869382772564279
18.701457236591136
20.947585259784848
20.45929655909056
22.412451361867703
23.87731746395056
23.58434424353399
23.58434424353399
23.58434424353399
21.728847180895706
20.16632333867399
20.55695429922942
17.52956435492485
15.381094071869994
13.916227969787137
12.353704127565424
12.646677347981994
9.71694514381628
7.568474860761425
8.05676356145571
6.005951018539712
4.541084916456855
2.0019836728465705
-0.24414435034714274
0.24414435034714274
-2.68558785381857
-4.931715877012284
-4.345769436179141
-6.39658197909514
-7.861448081177996
-9.42397192339971
-10.986495765621424
-10.693522545204852
-12.646677347981994
-14.11154345006485
-13.81857022964828
-15.771725032425422
-17.236591134508277
-18.799114976729992
-20.361638818951704
-19.971007858396277
-21.92416266117342
-23.389028763256274
-23.096055542839704
-23.19371328297856
-23.096055542839704
-22.21713588158999
-21.43587396047913
-21.63118944075685
-17.724879835202564
-14.795147631036851
-15.381094071869994
-9.521629663538567
-5.127031357289998
1.416037232013428
7.568474860761425
6.201266498817426
14.209201190203707
20.068665598535134
18.701457236591136
26.61173418783856
32.56885633630884
37.84237430380713
43.40886549172198
42.13931486991684
48.09643701838712
52.49103532463569
51.51445792324712
56.49500267032883
60.108339055466544
64.11230640115969
67.92095826657511
67.0420386053254
72.02258335240711
75.63591973754482
74.85465781643397
79.73754482337682
83.35088120851454
86.37827115281911
89.50331883726253
88.72205691615167
92.72602426184481
95.65575646601053
94.97215228503853
98.87846189059282
101.80819409475852
103.95666437781338
106.30045014114596
105.7145037003128
105.81216144045166
105.7145037003128
105.7145037003128
104.73792629892424
103.95666437781338
100.24567025253681
97.21828030823224
97.90188448920424
91.94476234073396
87.55016403448539
88.4290836957351
80.61646448462653
74.65934233615626
66.45609216449226
58.643472953383686
60.401312275883114
49.46364538033112
41.358052948805984
43.11589227130541
33.15480277714199
25.830472266727703
17.920195315480278
10.10757610437171
11.865415426871138
1.9043259327077133
-5.322346837567712
-3.662165255207141
-11.670099946593423
-17.52956435492485
-23.87731746395056
-30.127412832837415
-28.66254673075456
-34.717326619363696
-39.11192492561227
-38.1353475242237
-44.09246967269398
-48.48706797894255
-52.19806210421912
-56.1043717097734
-55.22545204852369
-59.22941939421683
-62.15915159838254
-61.475547417410546
-65.38185702296482
-68.31158922713054
-70.55771725032426
-72.90150301365682
-72.31555657282368
-75.34294651712825
-77.4914168001831
-77.00312809948882
-78.95628290226597
-80.42114900434882
-82.86259250782025
-85.20637827115281
-84.62043183031967
-86.67124437323568
-88.03845273517967
-87.7454795147631
-89.69863431754024
-91.06584267948425
-92.62836652170596
-94.19089036392768
-93.80025940337224
-93.8979171435111
-93.80025940337224
-93.80025940337224
-93.80025940337224
-93.70260166323338
-90.87052719920653
-88.62439917601282
-89.01503013656824
-84.13214312962539
-80.42114900434882
-81.20241092545967
-74.36636911573969
-69.19050888838025
-61.67086289768826
-54.7371633478294
-56.20202944991226
-48.291752498664835
-42.33463035019455
-43.70183871213855
-37.64705882352941
-33.252460517280845
-28.467231250476843
-23.779659723811704
-24.853894865339132
-21.728847180895706
-19.48271915770199
-19.971007858396277
-17.041275654230564
-14.795147631036851
-14.306858930342566
-13.525597009231708
-13.720912489509422
-15.576409552147707
-17.041275654230564
-16.650644693675137
-23.48668650339513
-28.66254673075456
-34.131380178530556
-39.600213626306555
-38.33066300450141
-42.43228809033341
-45.362020294499125
-44.67841611352712
-45.75265125505455
-46.43625543602655
-43.40886549172198
-41.16273746852827
-41.651026169222554
-37.74471656366827
-34.81498435950255
-35.4009308003357
-31.494621194781413
-28.467231250476843
-28.174258030060273
-27.295338368810558
-27.49065384908827
-30.322728313115128
-32.56885633630884
-31.9829098954757
-34.0337224383917
-35.49858854047456
-38.03768978408484
-40.28381780727855
-39.79552910658427
-41.74868390936141
-43.21355001144427
-42.92057679102769
-43.89715419241627
-44.580758373388264
-46.33859769588769
-47.90112153810941
-47.51049057755398
-49.46364538033112
-50.928511482413974
-50.53788052185855
-52.588693064774546
-53.95590142671855
-54.639505607690545
-55.420767528801406
-55.22545204852369
-57.178606851300835
-58.643472953383686
-58.25284199282826
-58.350499732967116
-58.25284199282826
-58.25284199282826
-58.25284199282826
-58.25284199282826
-58.1551842526894
-58.1551842526894
-58.1551842526894
-58.1551842526894
-58.1551842526894
-58.1551842526894
-58.057526512550545
-58.057526512550545
-58.057526512550545
-58.057526512550545
-58.057526512550545
-57.08094911116198
-56.29968719005112
-54.54184786755169
-52.97932402532997
-53.27229724574655
-50.34256504158083
-48.09643701838712
-48.584725719081405
-43.70183871213855
-39.99084458686198
-33.15480277714199
-27.002365148393988
-28.369573510337986
-20.45929655909056
-14.599832150759136
-15.869382772564279
-6.982528419928283
-0.34180209048599985
5.71297779812314
11.963073167009995
10.595864805065995
17.52956435492485
22.705424582284277
21.533531700617992
26.61173418783856
30.22507057297627
33.252460517280845
36.37750820172427
35.69390402075227
38.62363622491798
40.86976424811169
40.38147554741741
41.358052948805984
42.13931486991684
40.96742198825055
40.28381780727855
40.38147554741741
39.40489814602884
38.62363622491798
38.818951705195694
36.86579690241855
35.303273060196844
32.764171816586554
30.518043793392845
31.00633249408713
27.97894254978256
25.830472266727703
26.22110322728313
24.267948424505988
22.803082322423133
20.263981078812847
17.920195315480278
18.40848401617456
16.357671473258563
14.892805371175708
15.283436331731137
13.232623788815136
11.767757686732281
11.181811245899137
10.302891584649425
10.498207064927138
9.521629663538567
8.74036774242771
8.935683222705425
7.959105821316854
7.177843900205997
6.39658197909514
5.615320057984283
5.810635538261997
4.834058136873426
4.052796215762569
4.248111696040284
3.2715342946517127
2.490272373540856
1.7090104524299992
0.9277485313191425
1.1230640115968566
1.1230640115968566
1.1230640115968566
1.1230640115968566
0.14648661020828566
-0.537117570763714
-1.3183794918745708
-2.0996414129854277
-1.9043259327077133
-2.8809033340962844
-3.662165255207141
-3.466849774929427
-5.420004577706569
-6.884870679789426
-8.44739452201114
-10.009918364232853
-9.71694514381628
-11.670099946593423
-13.13496604867628
-12.84199282825971
-14.795147631036851
-16.260013733119706
-17.82253757534142
-19.385061417563133
-18.994430457007706
-20.068665598535134
-20.752269779507134
-20.55695429922942
-20.654612039368278
-20.55695429922942
-19.678034637979707
-18.89677271686885
-19.092088197146563
-15.185778591592278
-12.256046387426567
-12.84199282825971
-6.982528419928283
-2.5879301136797133
2.9785610742351416
8.44739452201114
7.275501640344854
15.088120851453422
21.045242999923705
19.678034637979707
27.588311589227132
33.44777599755856
37.94003204394598
42.62760357061112
41.5533684290837
46.533913176165406
50.24490730144198
49.365987640192266
53.36995498588541
56.29968719005112
57.471580071717405
59.13176165407798
58.74113069352254
57.86221103227283
57.08094911116198
57.27626459143969
53.36995498588541
50.34256504158083
47.21751735713741
44.09246967269398
44.77607385366598
41.74868390936141
39.5025558861677
39.99084458686198
38.91660944533455
38.1353475242237
39.307240405889985
39.99084458686198
39.79552910658427
41.74868390936141
43.21355001144427
42.822919050888835
43.89715419241627
44.580758373388264
43.40886549172198
42.72526131074998
42.92057679102769
39.014267185473415
36.0845349813077
36.67048142214084
32.6665140764477
29.736781872281988
27.49065384908827
25.146868085755703
25.63515678644999
22.705424582284277
20.45929655909056
20.947585259784848
18.017853055619135
15.771725032425422
13.427939269092851
11.08415350576028
11.572442206454566
8.545052262149996
6.39658197909514
6.884870679789426
3.8574807354848555
1.7090104524299992
0.24414435034714274
-1.2207217517357138
-0.8300907911802854
-3.8574807354848555
-6.005951018539712
-5.517662317845426
-8.545052262149996
-10.693522545204852
-12.158388647287708
-13.720912489509422
-13.330281528953995
-14.404516670481422
-15.088120851453422
-14.892805371175708
-15.967040512703136
-16.650644693675137
-18.40848401617456
-19.87335011825742
-19.58037689784085
-20.55695429922942
-21.338216220340275
-21.14290074006256
-23.096055542839704
-24.560921644922562
-26.123445487144274
-27.68596932936599
-27.295338368810558
-28.369573510337986
-29.053177691309987
-28.857862211032273
-28.95551995117113
-28.857862211032273
-27.002365148393988
-25.439841306172273
-25.830472266727703
-20.947585259784848
-17.236591134508277
-18.017853055619135
-12.158388647287708
-7.763790341039139
-1.0254062714579995
5.0293736171511405
3.662165255207141
11.572442206454566
17.43190661478599
16.16235599298085
24.072632944228275
29.9320973525597
34.32669565880827
39.014267185473415
38.03768978408484
43.89715419241627
48.291752498664835
47.31517509727627
51.31914244296941
54.24887464713512
55.51842526894026
57.08094911116198
56.7879758907454
58.74113069352254
60.2059967956054
59.815365835049974
60.79194323643854
61.5732051575494
61.37788967727169
61.37788967727169
61.37788967727169
60.401312275883114
59.62005035477226
59.71770809491112
57.764553292133975
56.29968719005112
53.760585946440834
51.416800183108265
51.90508888380255
48.877698939497975
46.72922865644312
47.21751735713741
44.19012741283284
41.943999389639124
39.600213626306555
37.256427862973986
37.74471656366827
34.717326619363696
32.56885633630884
33.05714503700313
31.00633249408713
29.541466392004274
27.881284809643702
26.318760967421987
26.709391927977418
24.65857938506142
23.19371328297856
23.58434424353399
22.510109102006563
21.826504921034562
21.92416266117342
21.92416266117342
21.92416266117342
20.947585259784848
20.16632333867399
20.361638818951704
19.385061417563133
18.60379949645228
16.84596017395285
15.283436331731137
15.674067292286564
13.623254749370565
12.158388647287708
12.549019607843137
10.498207064927138
9.033340962844282
7.470817120622568
5.908293278400855
6.298924238956283
4.248111696040284
2.783245593957427
3.076218814373999
1.1230640115968566
-0.24414435034714274
-3.7598229953459983
-6.787212939650568
-6.103608758678568
-10.009918364232853
-12.939650568398566
-12.353704127565424
-15.381094071869994
-17.52956435492485
-18.89677271686885
-20.55695429922942
-20.16632333867399
-21.24055848020142
-21.92416266117342
-21.728847180895706
-20.84992751964599
-20.068665598535134
-17.334248874647134
-15.088120851453422
-15.576409552147707
-9.71694514381628
-5.322346837567712
-6.298924238956283
-0.34180209048599985
3.9551384756237127
8.74036774242771
13.427939269092851
12.353704127565424
17.334248874647134
20.947585259784848
20.16632333867399
24.17029068436713
27.100022888532845
29.2484931715877
31.68993667505913
31.103990234225986
30.322728313115128
29.541466392004274
29.63912413214313
25.830472266727703
22.803082322423133
18.701457236591136
14.795147631036851
15.674067292286564
14.50217441062028
13.81857022964828
14.013885709925994
13.916227969787137
13.916227969787137
15.869382772564279
17.334248874647134
17.041275654230564
20.84992751964599
23.87731746395056
23.19371328297856
26.123445487144274
28.369573510337986
26.90470740825513
26.22110322728313
26.416418707560844
21.63118944075685
17.82253757534142
18.701457236591136
14.697489890897993
11.767757686732281
8.545052262149996
5.420004577706569
6.103608758678568
2.197299153124285
-0.6347753109025711
-0.04882887006942855
-2.9785610742351416
-5.224689097428855
-8.545052262149996
-11.670099946593423
-10.888838025482567
-13.916227969787137
-16.16235599298085
-15.674067292286564
-19.58037689784085
-22.510109102006563
-24.756237125200276
-27.100022888532845
-26.514076447699704
-30.420386053253985
-33.44777599755856
-32.764171816586554
-35.69390402075227
-37.94003204394598
-39.307240405889985
-40.86976424811169
-40.57679102769512
-43.50652323186084
-45.654993514915695
-45.16670481422141
-47.11985961699855
-48.584725719081405
-50.14724956130312
-51.709773403524835
-51.31914244296941
-53.36995498588541
-54.7371633478294
-54.44419012741283
-56.39734493018997
-57.86221103227283
-58.44815747310597
-59.22941939421683
-59.03410391393912
-60.987258716716255
-62.45212481879911
-62.061493858243686
-63.13572899977112
-63.819333180743115
-64.60059510185397
-65.38185702296482
-65.18654154268711
-66.16311894407569
-66.84672312504769
-66.65140764476998
-66.65140764476998
-66.65140764476998
-64.69825284199283
-63.233386739909974
-63.526359960326545
-60.59662775616083
-58.350499732967116
-58.8387884336614
-52.97932402532997
-48.48706797894255
-42.822919050888835
-37.35408560311284
-38.525978484779124
-30.615701533531702
-24.756237125200276
-26.025787747005417
-17.13893339436942
-10.498207064927138
-5.322346837567712
0.14648661020828566
-1.0254062714579995
4.931715877012284
9.326314183260854
8.349736781872283
12.353704127565424
15.283436331731137
17.43190661478599
19.87335011825742
19.287403677424276
20.361638818951704
21.045242999923705
20.947585259784848
20.947585259784848
20.947585259784848
19.971007858396277
19.18974593728542
19.385061417563133
17.43190661478599
15.967040512703136
16.260013733119706
13.330281528953995
11.08415350576028
7.763790341039139
4.736400396734569
5.420004577706569
1.416037232013428
-1.416037232013428
-0.8300907911802854
-4.736400396734569
-7.666132600900283
-10.888838025482567
-13.916227969787137
-13.232623788815136
-16.260013733119706
-18.506141756313422
-18.017853055619135
-20.947585259784848
-23.096055542839704
-24.560921644922562
-26.123445487144274
-25.732814526588847
-27.783627069504846
-29.2484931715877
-28.857862211032273
-30.811017013809415
-32.27588311589227
-33.838406958113985
-35.4009308003357
-35.10795757991913
-37.06111238269627
-38.525978484779124
-38.1353475242237
-40.08850232700084
-41.5533684290837
-42.236972610055695
-43.018234531166556
-42.822919050888835
-42.822919050888835
-42.822919050888835
-42.822919050888835
-43.70183871213855
-44.48310063324941
-44.28778515297169
-44.28778515297169
-44.28778515297169
-45.26436255436027
-45.947966735332265
-45.75265125505455
-46.72922865644312
-47.51049057755398
-48.291752498664835
-48.97535667963683
-48.877698939497975
-48.877698939497975
-48.877698939497975
-48.78004119935912
-48.78004119935912
-48.78004119935912
-47.80346379797055
-47.0222018768597
-47.21751735713741
-46.240939955748836
-45.45967803463798
-45.55733577477684
-41.74868390936141
-38.72129396505684
-34.61966887922484
-30.811017013809415
-31.592278934920273
-24.756237125200276
-19.58037689784085
-20.654612039368278
-12.84199282825971
-6.884870679789426
0.24414435034714274
7.275501640344854
5.71297779812314
11.767757686732281
16.16235599298085
15.185778591592278
18.21316853589685
20.45929655909056
21.826504921034562
23.389028763256274
23.096055542839704
26.025787747005417
28.174258030060273
27.68596932936599
31.592278934920273
34.52201113908598
39.600213626306555
44.19012741283284
43.11589227130541
49.073014419775696
53.467612726024264
52.49103532463569
57.471580071717405
61.08491645685512
62.15915159838254
63.819333180743115
63.42870222018769
61.5732051575494
60.108339055466544
60.401312275883114
57.471580071717405
55.22545204852369
52.78400854505226
50.44022278171969
50.928511482413974
47.0222018768597
44.09246967269398
44.67841611352712
41.651026169222554
39.5025558861677
35.20561532005799
31.2993057145037
32.178225375753414
28.174258030060273
25.24452582589456
25.830472266727703
22.803082322423133
20.654612039368278
17.334248874647134
14.209201190203707
14.892805371175708
11.865415426871138
9.71694514381628
10.205233844510566
7.177843900205997
5.0293736171511405
2.5879301136797133
0.24414435034714274
0.8300907911802854
-2.0996414129854277
-4.248111696040284
-3.7598229953459983
-6.787212939650568
-8.935683222705425
-10.400549324788281
-11.963073167009995
-11.572442206454566
-13.623254749370565
-15.088120851453422
-14.697489890897993
-16.748302433813993
-18.21316853589685
-18.799114976729992
-19.58037689784085
-19.385061417563133
-21.338216220340275
-22.803082322423133
-22.510109102006563
-23.48668650339513
-24.267948424505988
-26.025787747005417
-27.49065384908827
-27.100022888532845
-28.174258030060273
-28.857862211032273
-28.760204470893417
-30.615701533531702
-32.08056763561456
-33.64309147783627
-35.20561532005799
-34.91264209964141
-35.889219501029984
-36.57282368200198
-36.475165941863125
-34.52201113908598
-33.05714503700313
-29.541466392004274
-26.514076447699704
-27.1976806286717
-21.24055848020142
-16.84596017395285
-17.82253757534142
-9.033340962844282
-2.392614633401999
4.638742656595713
11.670099946593423
10.10757610437171
18.994430457007706
25.63515678644999
24.17029068436713
31.103990234225986
36.27985046158541
40.86976424811169
45.55733577477684
44.48310063324941
48.48706797894255
51.416800183108265
50.73319600213626
53.760585946440834
55.90905622949569
57.37392233157855
58.936446173800256
58.54581521324483
58.643472953383686
58.54581521324483
58.54581521324483
57.56923781185626
56.7879758907454
55.03013656824598
53.467612726024264
53.85824368657969
51.80743114366369
50.34256504158083
50.635538261997404
46.72922865644312
43.79949645227741
40.57679102769512
37.4517433432517
38.1353475242237
34.131380178530556
31.201647974364842
31.885252155336843
27.881284809643702
24.95155260547799
21.728847180895706
18.60379949645228
19.287403677424276
15.381094071869994
12.45136186770428
13.037308308537423
10.009918364232853
7.861448081177996
5.517662317845426
3.1738765545128556
3.662165255207141
1.6113527122911422
0.14648661020828566
0.537117570763714
-2.392614633401999
-4.541084916456855
-6.005951018539712
-7.568474860761425
-7.177843900205997
-9.228656443121995
-10.693522545204852
-10.302891584649425
-13.232623788815136
-15.47875181200885
-17.82253757534142
-20.16632333867399
-19.678034637979707
-22.60776684214542
-24.853894865339132
-24.267948424505988
-27.295338368810558
-29.443808651865414
-31.885252155336843
-34.131380178530556
-33.64309147783627
-36.57282368200198
-38.818951705195694
-38.33066300450141
-39.307240405889985
-40.08850232700084
-40.86976424811169
-41.5533684290837
-41.45571068894484
-40.479133287556266
-39.69787136644541
-39.893186846723125
-38.91660944533455
-38.1353475242237
-36.37750820172427
-34.81498435950255
-35.20561532005799
-31.2993057145037
-28.27191577019913
-28.95551995117113
-22.119478141451133
-16.943617914091707
-10.400549324788281
-4.248111696040284
-5.615320057984283
-0.537117570763714
2.9785610742351416
2.197299153124285
6.201266498817426
9.130998702983138
11.377126726176853
13.720912489509422
13.13496604867628
18.11551079575799
21.728847180895706
20.947585259784848
28.760204470893417
34.61966887922484
41.943999389639124
48.877698939497975
47.31517509727627
58.1551842526894
66.16311894407569
64.40527962157626
73.3897917143511
79.93286030365454
82.27664606698711
85.49935149156939
84.71808957045853
84.91340505073624
84.81574731059739
84.81574731059739
83.83916990920882
83.05790798809797
81.30006866559853
79.73754482337682
80.03051804379339
77.10078583962768
74.85465781643397
75.34294651712825
72.31555657282368
70.06942854962998
66.74906538490883
63.6240177004654
64.3076218814374
60.30365453574426
57.37392233157855
57.95986877241169
54.053559166857404
51.02616922255284
47.90112153810941
44.77607385366598
45.45967803463798
41.45571068894484
38.525978484779124
39.11192492561227
34.22903791866941
30.518043793392845
27.49065384908827
24.365606164644845
25.049210345616846
21.045242999923705
18.11551079575799
18.799114976729992
14.795147631036851
11.865415426871138
8.642710002288853
5.517662317845426
6.298924238956283
3.2715342946517127
1.0254062714579995
1.513694972152285
-0.43945983062485694
-1.9043259327077133
-3.466849774929427
-5.0293736171511405
-4.638742656595713
-5.71297779812314
-6.39658197909514
-6.201266498817426
-8.154421301594567
-9.619287403677424
-12.158388647287708
-14.50217441062028
-14.013885709925994
-17.920195315480278
-20.84992751964599
-20.16632333867399
-24.17029068436713
-27.100022888532845
-30.22507057297627
-33.3501182574197
-32.6665140764477
-35.596246280613414
-37.84237430380713
-37.35408560311284
-40.28381780727855
-42.43228809033341
-42.92057679102769
-43.79949645227741
-43.604180971999696
-42.62760357061112
-41.84634164950027
-42.04165712977798
-38.1353475242237
-35.20561532005799
-30.127412832837415
-25.439841306172273
-26.514076447699704
-17.627222095063708
-10.986495765621424
-12.549019607843137
-3.5645075150682843
2.9785610742351416
9.130998702983138
15.381094071869994
14.013885709925994
19.971007858396277
24.365606164644845
23.389028763256274
29.346150911726557
33.74074921797513
35.596246280613414
38.03768978408484
37.4517433432517
39.5025558861677
40.96742198825055
40.57679102769512
41.651026169222554
42.33463035019455
41.26039520866713
40.479133287556266
40.67444876783398
38.72129396505684
37.15877012283513
37.549401083390556
34.52201113908598
32.37354085603113
28.95551995117113
25.92813000686656
26.61173418783856
21.63118944075685
18.017853055619135
18.799114976729992
13.81857022964828
10.10757610437171
5.224689097428855
0.6347753109025711
1.6113527122911422
-3.2715342946517127
-6.982528419928283
-6.103608758678568
-11.08415350576028
-14.795147631036851
-18.701457236591136
-22.60776684214542
-21.728847180895706
-25.732814526588847
-28.66254673075456
-27.97894254978256
-31.9829098954757
-34.91264209964141
-38.03768978408484
-41.16273746852827
-40.38147554741741
-42.43228809033341
-43.89715419241627
-43.604180971999696
-45.55733577477684
-47.0222018768597
-48.584725719081405
-50.14724956130312
-49.75661860074769
-51.709773403524835
-53.17463950560769
-52.78400854505226
-54.83482108796826
-56.20202944991226
-56.88563363088426
-57.66689555199512
-57.471580071717405
-59.42473487449455
-60.79194323643854
-60.49897001602197
-61.475547417410546
-62.15915159838254
-62.9404135194934
-63.72167544060426
-63.526359960326545
-63.526359960326545
-63.526359960326545
-63.526359960326545
-63.526359960326545
-63.526359960326545
-62.54978255893797
-61.768520637827116
-61.86617837796597
-61.86617837796597
-61.86617837796597
-61.768520637827116
-61.768520637827116
-61.768520637827116
-60.79194323643854
-60.01068131532769
-60.2059967956054
-60.108339055466544
-60.108339055466544
-60.108339055466544
-60.108339055466544
-60.01068131532769
-58.1551842526894
-56.59266041046769
-56.88563363088426
-51.123826962691695
-46.63157091630426
-47.60814831769284
-38.818951705195694
-32.178225375753414
-23.096055542839704
-14.599832150759136
-16.45532921339742
-5.517662317845426
2.392614633401999
0.6347753109025711
9.619287403677424
16.16235599298085
20.45929655909056
25.24452582589456
24.17029068436713
26.318760967421987
27.68596932936599
27.392996108949415
28.369573510337986
29.150835431448844
28.95551995117113
28.95551995117113
28.95551995117113
27.97894254978256
27.295338368810558
27.392996108949415
24.4632639047837
22.314793621728846
18.994430457007706
15.869382772564279
16.55298695353628
11.572442206454566
7.959105821316854
8.74036774242771
3.7598229953459983
0.14648661020828566
-2.783245593957427
-5.908293278400855
-5.224689097428855
-8.252079041733426
-10.498207064927138
-10.009918364232853
-12.939650568398566
-15.088120851453422
-16.55298695353628
-18.11551079575799
-17.82253757534142
-19.775692378118563
-21.24055848020142
-20.84992751964599
-22.90074006256199
-24.365606164644845
-25.92813000686656
-27.49065384908827
-27.100022888532845
-28.076600289921416
-28.857862211032273
-28.66254673075456
-30.615701533531702
-32.08056763561456
-32.6665140764477
-33.44777599755856
-33.252460517280845
-35.20561532005799
-36.67048142214084
-36.37750820172427
-37.35408560311284
-38.1353475242237
-38.91660944533455
-39.600213626306555
-39.40489814602884
-40.479133287556266
-41.16273746852827
-40.96742198825055
-42.92057679102769
-44.38544289311055
-43.99481193255512
-44.09246967269398
-44.09246967269398
-44.97138933394369
-45.75265125505455
-45.55733577477684
-45.55733577477684
-45.55733577477684
-46.533913176165406
-47.21751735713741
-47.0222018768597
-47.998779278248264
-48.78004119935912
-48.584725719081405
-46.63157091630426
-45.16670481422141
-42.62760357061112
-40.28381780727855
-40.772106507972836
-34.0337224383917
-28.857862211032273
-29.9320973525597
-20.16632333867399
-12.74433508812085
-4.834058136873426
2.8809033340962844
1.1230640115968566
11.963073167009995
20.068665598535134
18.310826276035705
28.174258030060273
35.49858854047456
41.5533684290837
47.80346379797055
46.43625543602655
52.39337758449683
56.7879758907454
55.81139848935683
59.815365835049974
62.745098039215684
65.8701457236591
68.99519340810254
68.31158922713054
70.26474402990769
71.72961013199054
71.43663691157397
71.43663691157397
71.43663691157397
71.33897917143511
71.33897917143511
71.33897917143511
68.4092469672694
66.16311894407569
66.65140764476998
63.72167544060426
61.475547417410546
57.178606851300835
53.27229724574655
54.15121690699626
48.19409475852598
43.79949645227741
44.77607385366598
39.79552910658427
36.0845349813077
32.08056763561456
28.174258030060273
29.053177691309987
24.072632944228275
20.361638818951704
21.24055848020142
17.236591134508277
14.306858930342566
11.08415350576028
7.959105821316854
8.642710002288853
5.615320057984283
3.466849774929427
3.9551384756237127
0.9277485313191425
-1.1230640115968566
-2.5879301136797133
-4.150453955901427
-3.7598229953459983
-5.810635538261997
-7.275501640344854
-6.884870679789426
-8.935683222705425
-10.400549324788281
-11.963073167009995
-13.525597009231708
-13.13496604867628
-15.088120851453422
-16.55298695353628
-16.260013733119706
-18.21316853589685
-19.678034637979707
-21.24055848020142
-22.803082322423133
-22.510109102006563
-23.48668650339513
-24.267948424505988
-24.072632944228275
-26.025787747005417
-27.49065384908827
-29.053177691309987
-30.615701533531702
-30.22507057297627
-31.201647974364842
-31.9829098954757
-31.787594415197987
-32.764171816586554
-33.545433737697415
-33.3501182574197
-33.3501182574197
-33.3501182574197
-35.20561532005799
-36.67048142214084
-36.37750820172427
-39.307240405889985
-41.45571068894484
-41.943999389639124
-42.822919050888835
-42.529945830472265
-38.818951705195694
-35.79156176089113
-36.475165941863125
-28.66254673075456
-22.705424582284277
-12.549019607843137
-3.36919203479057
-5.420004577706569
8.349736781872283
18.60379949645228
16.260013733119706
28.27191577019913
37.06111238269627
42.72526131074998
49.073014419775696
47.60814831769284
50.83085374227512
52.97932402532997
52.49103532463569
54.44419012741283
55.90905622949569
56.49500267032883
57.27626459143969
57.08094911116198
57.178606851300835
57.08094911116198
57.08094911116198
56.1043717097734
55.32310978866255
53.56527046616312
52.10040436408026
52.39337758449683
49.46364538033112
47.21751735713741
47.705806057831694
44.67841611352712
42.43228809033341
38.1353475242237
34.32669565880827
35.20561532005799
30.22507057297627
26.514076447699704
27.295338368810558
21.43587396047913
17.041275654230564
13.232623788815136
9.228656443121995
10.10757610437171
5.127031357289998
1.513694972152285
2.2949568932631417
-1.6113527122911422
-4.541084916456855
-7.666132600900283
-10.79118028534371
-10.10757610437171
-13.13496604867628
-15.283436331731137
-14.795147631036851
-17.82253757534142
-19.971007858396277
-22.314793621728846
-24.65857938506142
-24.17029068436713
-27.100022888532845
-29.346150911726557
-28.857862211032273
-31.787594415197987
-33.93606469825284
-35.4009308003357
-36.96345464255741
-36.57282368200198
-39.5025558861677
-41.74868390936141
-41.26039520866713
-42.236972610055695
-43.018234531166556
-44.67841611352712
-46.240939955748836
-45.85030899519341
-46.92454413672083
-47.60814831769284
-47.412832837415124
-47.412832837415124
-47.412832837415124
-48.38941023880369
-49.073014419775696
-48.877698939497975
-49.85427634088655
-50.635538261997404
-50.44022278171969
-50.44022278171969
-50.44022278171969
-49.46364538033112
-48.68238345922026
-48.877698939497975
-46.92454413672083
-45.362020294499125
-45.75265125505455
-41.84634164950027
-38.818951705195694
-33.74074921797513
-29.150835431448844
-30.127412832837415
-22.314793621728846
-16.357671473258563
-17.724879835202564
-8.838025482566568
-2.197299153124285
4.834058136873426
11.865415426871138
10.302891584649425
19.18974593728542
25.830472266727703
24.365606164644845
31.396963454642556
36.475165941863125
41.065079728389414
45.75265125505455
44.67841611352712
48.68238345922026
51.61211566338598
50.928511482413974
53.95590142671855
56.1043717097734
58.44815747310597
60.79194323643854
60.30365453574426
61.28023193713283
62.061493858243686
61.86617837796597
61.86617837796597
61.86617837796597
60.8896009765774
60.108339055466544
60.2059967956054
58.25284199282826
56.7879758907454
57.08094911116198
55.127794308384836
53.56527046616312
51.02616922255284
48.78004119935912
49.26832990005341
46.240939955748836
43.99481193255512
44.48310063324941
40.57679102769512
37.549401083390556
34.424353398947126
31.2993057145037
31.9829098954757
27.97894254978256
25.049210345616846
25.732814526588847
22.705424582284277
20.45929655909056
17.13893339436942
14.013885709925994
14.697489890897993
11.670099946593423
9.521629663538567
10.009918364232853
6.982528419928283
4.834058136873426
3.36919203479057
1.8066681925688564
2.197299153124285
0.14648661020828566
-1.2207217517357138
-0.9277485313191425
-1.9043259327077133
-2.5879301136797133
-2.490272373540856
-2.490272373540856
-2.490272373540856
-2.490272373540856
-2.490272373540856
-2.490272373540856
-2.490272373540856
-2.490272373540856
-3.466849774929427
-4.150453955901427
-4.052796215762569
-5.0293736171511405
-5.71297779812314
-5.615320057984283
-7.568474860761425
-9.033340962844282
-11.572442206454566
-13.81857022964828
-13.330281528953995
-19.18974593728542
-23.58434424353399
-22.60776684214542
-29.443808651865414
-34.61966887922484
-40.186160067139696
-45.55733577477684
-44.38544289311055
-45.55733577477684
-46.240939955748836
-46.04562447547112
-43.21355001144427
-40.96742198825055
-33.838406958113985
-27.783627069504846
-29.053177691309987
-17.334248874647134
-8.44739452201114
-10.400549324788281
3.2715342946517127
13.525597009231708
20.84992751964599
28.760204470893417
27.002365148393988
34.0337224383917
39.11192492561227
37.94003204394598
44.873731593804834
50.04959182116426
53.66292820630198
57.56923781185626
56.690318150606544
60.694285496299685
63.6240177004654
62.9404135194934
64.9912260624094
66.3584344243534
67.92095826657511
69.48348210879682
69.0928511482414
68.21393148699168
67.43266956588083
67.62798504615854
66.55374990463112
65.8701457236591
64.11230640115969
62.54978255893797
62.84275577935454
59.91302357518883
57.66689555199512
58.1551842526894
54.15121690699626
51.22148470283055
47.11985961699855
43.21355001144427
44.09246967269398
39.11192492561227
35.4009308003357
36.182192721446555
31.201647974364842
27.588311589227132
22.60776684214542
18.017853055619135
18.994430457007706
13.037308308537423
8.642710002288853
9.619287403677424
2.68558785381857
-2.2949568932631417
-6.884870679789426
-11.670099946593423
-10.595864805065995
-15.576409552147707
-19.287403677424276
-18.40848401617456
-22.412451361867703
-25.342183566033416
-27.588311589227132
-29.9320973525597
-29.346150911726557
-32.37354085603113
-34.52201113908598
-34.0337224383917
-36.0845349813077
-37.4517433432517
-39.99084458686198
-42.33463035019455
-41.74868390936141
-43.79949645227741
-45.26436255436027
-44.873731593804834
-46.826886396581976
-48.291752498664835
-49.85427634088655
-51.416800183108265
-51.02616922255284
-53.07698176546884
-54.44419012741283
-54.15121690699626
-55.127794308384836
-55.90905622949569
-56.59266041046769
-57.37392233157855
-57.178606851300835
-59.13176165407798
-60.59662775616083
-60.2059967956054
-61.28023193713283
-61.96383611810483
-61.768520637827116
-61.768520637827116
-61.768520637827116
-59.815365835049974
-58.350499732967116
-58.643472953383686
-54.7371633478294
-51.80743114366369
-45.75265125505455
-40.38147554741741
-41.5533684290837
-33.64309147783627
-27.783627069504846
-29.053177691309987
-19.18974593728542
-11.865415426871138
-4.834058136873426
2.0996414129854277
0.537117570763714
9.42397192339971
16.064698252841993
14.599832150759136
20.654612039368278
25.049210345616846
28.760204470893417
32.764171816586554
31.885252155336843
34.91264209964141
37.06111238269627
36.57282368200198
37.64705882352941
38.33066300450141
39.11192492561227
39.893186846723125
39.69787136644541
39.69787136644541
39.69787136644541
39.69787136644541
37.74471656366827
36.27985046158541
34.717326619363696
33.15480277714199
33.44777599755856
29.541466392004274
26.61173418783856
27.1976806286717
23.291371023117417
20.263981078812847
17.13893339436942
14.013885709925994
14.697489890897993
10.693522545204852
7.763790341039139
8.44739452201114
4.443427176317998
1.513694972152285
-0.6347753109025711
-2.9785610742351416
-2.392614633401999
-4.443427176317998
-5.908293278400855
-5.615320057984283
-8.545052262149996
-10.693522545204852
-12.158388647287708
-13.720912489509422
-13.427939269092851
-15.381094071869994
-16.84596017395285
-16.45532921339742
-18.506141756313422
-19.971007858396277
-21.533531700617992
-23.096055542839704
-22.705424582284277
-25.63515678644999
-27.881284809643702
-27.392996108949415
-30.322728313115128
-32.471198596169984
-34.91264209964141
-37.15877012283513
-36.67048142214084
-39.600213626306555
-41.84634164950027
-41.358052948805984
-43.311207751583126
-44.77607385366598
-46.33859769588769
-47.90112153810941
-47.51049057755398
-51.416800183108265
-54.346532387273975
-53.66292820630198
-59.522392614633404
-63.91699092088197
-68.70222018768597
-73.29213397421225
-72.21789883268482
-75.34294651712825
-77.4914168001831
-77.00312809948882
-76.12420843823911
-75.34294651712825
-70.65537499046312
-66.94438086518655
-67.7256427862974
-57.95986877241169
-50.53788052185855
-52.19806210421912
-40.38147554741741
-31.494621194781413
-22.998397802700847
-14.306858930342566
-16.260013733119706
-6.298924238956283
0.9277485313191425
-0.537117570763714
9.228656443121995
16.55298695353628
24.4632639047837
32.27588311589227
30.518043793392845
38.525978484779124
44.38544289311055
43.11589227130541
49.073014419775696
53.467612726024264
56.29968719005112
59.42473487449455
58.74113069352254
60.79194323643854
62.15915159838254
61.86617837796597
63.819333180743115
65.28419928282597
64.01464866102083
63.33104448004883
63.42870222018769
62.45212481879911
61.67086289768826
61.768520637827116
58.8387884336614
56.59266041046769
52.295719844357976
48.48706797894255
49.365987640192266
45.26436255436027
42.33463035019455
43.018234531166556
37.15877012283513
32.6665140764477
28.857862211032273
24.95155260547799
25.830472266727703
21.826504921034562
18.89677271686885
19.48271915770199
16.45532921339742
14.306858930342566
11.865415426871138
9.521629663538567
10.10757610437171
8.05676356145571
6.591897459372854
6.884870679789426
4.931715877012284
3.466849774929427
1.9043259327077133
0.34180209048599985
0.6347753109025711
-0.24414435034714274
-1.0254062714579995
-0.8300907911802854
-1.8066681925688564
-2.5879301136797133
-3.36919203479057
-4.150453955901427
-3.9551384756237127
-5.908293278400855
-7.373159380483711
-7.080186160067139
-8.05676356145571
-8.838025482566568
-10.498207064927138
-12.060730907148852
-11.767757686732281
-12.74433508812085
-13.427939269092851
-13.330281528953995
-15.283436331731137
-16.748302433813993
-19.287403677424276
-21.533531700617992
-21.045242999923705
-23.974975204089418
-26.22110322728313
-25.732814526588847
-28.66254673075456
-30.811017013809415
-33.252460517280845
-35.49858854047456
-35.010299839780274
-37.94003204394598
-40.186160067139696
-39.69787136644541
-42.62760357061112
-44.77607385366598
-46.240939955748836
-47.80346379797055
-47.412832837415124
-49.365987640192266
-50.83085374227512
-50.53788052185855
-50.53788052185855
-50.53788052185855
-48.584725719081405
-47.11985961699855
-47.412832837415124
-43.50652323186084
-40.57679102769512
-41.16273746852827
-34.32669565880827
-29.150835431448844
-22.705424582284277
-16.45532921339742
-17.82253757534142
-9.912260624093996
-4.052796215762569
-5.322346837567712
1.513694972152285
6.6895551995117115
11.279468986037996
15.967040512703136
14.892805371175708
18.994430457007706
21.92416266117342
21.24055848020142
24.267948424505988
26.416418707560844
26.90470740825513
27.68596932936599
27.49065384908827
27.588311589227132
27.49065384908827
27.49065384908827
25.63515678644999
24.072632944228275
22.510109102006563
20.947585259784848
21.338216220340275
17.43190661478599
14.404516670481422
15.088120851453422
10.205233844510566
6.494239719233997
3.466849774929427
0.34180209048599985
1.0254062714579995
-3.7598229953459983
-7.470817120622568
-6.6895551995117115
-10.693522545204852
-13.623254749370565
-15.771725032425422
-18.11551079575799
-17.627222095063708
-19.678034637979707
-21.14290074006256
-20.752269779507134
-23.682001983672848
-25.92813000686656
-27.295338368810558
-28.857862211032273
-28.564888990615703
-31.494621194781413
-33.64309147783627
-33.15480277714199
-36.182192721446555
-38.33066300450141
-40.67444876783398
-43.018234531166556
-42.529945830472265
-44.48310063324941
-45.947966735332265
-45.55733577477684
-47.60814831769284
-48.97535667963683
-49.658960860608836
-50.44022278171969
-50.24490730144198
-53.07698176546884
-55.32310978866255
-54.83482108796826
-59.71770809491112
-63.33104448004883
-67.23735408560312
-71.1436636911574
-70.26474402990769
-71.43663691157397
-72.12024109254597
-71.92492561226825
-71.92492561226825
-71.92492561226825
-68.01861600671397
-65.08888380254825
-65.6748302433814
-59.815365835049974
-55.32310978866255
-56.29968719005112
-50.34256504158083
-45.947966735332265
-43.11589227130541
-39.893186846723125
-40.57679102769512
-36.57282368200198
-33.64309147783627
-34.22903791866941
-27.392996108949415
-22.21713588158999
-14.795147631036851
-7.861448081177996
-9.42397192339971
-0.43945983062485694
6.005951018539712
4.541084916456855
14.404516670481422
21.826504921034562
28.760204470893417
35.79156176089113
34.22903791866941
41.26039520866713
46.33859769588769
45.16670481422141
50.14724956130312
53.85824368657969
56.7879758907454
59.91302357518883
59.22941939421683
61.28023193713283
62.745098039215684
62.35446707866026
64.3076218814374
65.77248798352025
67.33501182574197
68.89753566796368
68.50690470740825
68.60456244754711
68.50690470740825
68.50690470740825
66.55374990463112
65.08888380254825
63.42870222018769
61.86617837796597
62.2568093385214
59.22941939421683
57.08094911116198
57.471580071717405
53.56527046616312
50.635538261997404
47.412832837415124
44.28778515297169
44.97138933394369
41.943999389639124
39.69787136644541
40.186160067139696
37.256427862973986
35.010299839780274
32.56885633630884
30.22507057297627
30.811017013809415
28.760204470893417
27.295338368810558
27.588311589227132
24.65857938506142
22.412451361867703
21.045242999923705
19.385061417563133
19.775692378118563
16.84596017395285
14.599832150759136
15.088120851453422
13.037308308537423
11.572442206454566
10.009918364232853
8.44739452201114
8.74036774242771
7.763790341039139
6.982528419928283
7.177843900205997
6.201266498817426
5.420004577706569
3.662165255207141
2.197299153124285
2.490272373540856
0.537117570763714
-0.8300907911802854
-0.537117570763714
-2.490272373540856
-3.9551384756237127
-5.517662317845426
-7.080186160067139
-6.787212939650568
-9.71694514381628
-11.865415426871138
-11.377126726176853
-14.404516670481422
-16.55298695353628
-18.017853055619135
-19.58037689784085
-19.18974593728542
-21.24055848020142
-22.705424582284277
-22.314793621728846
-23.389028763256274
-24.072632944228275
-22.021820401312276
-20.55695429922942
-20.84992751964599
-17.920195315480278
-15.674067292286564
-16.16235599298085
-10.302891584649425
-5.908293278400855
0.6347753109025711
6.787212939650568
5.420004577706569
14.306858930342566
20.947585259784848
19.48271915770199
28.369573510337986
35.010299839780274
42.13931486991684
49.073014419775696
47.51049057755398
53.56527046616312
57.95986877241169
56.983291371023114
61.96383611810483
65.57717250324254
67.62798504615854
69.9717708094911
69.38582436865796
70.4600595101854
71.1436636911574
71.04600595101854
71.04600595101854
70.94834821087969
69.9717708094911
69.28816662851911
69.38582436865796
66.45609216449226
64.20996414129854
64.69825284199283
60.79194323643854
57.764553292133975
54.639505607690545
51.51445792324712
52.10040436408026
48.19409475852598
45.16670481422141
45.85030899519341
39.99084458686198
35.49858854047456
31.68993667505913
27.783627069504846
28.66254673075456
23.682001983672848
19.971007858396277
20.752269779507134
15.869382772564279
12.158388647287708
9.130998702983138
6.005951018539712
6.6895551995117115
2.68558785381857
-0.14648661020828566
0.43945983062485694
-2.490272373540856
-4.638742656595713
-7.080186160067139
-9.42397192339971
-8.838025482566568
-11.865415426871138
-14.013885709925994
-13.525597009231708
-16.55298695353628
-18.701457236591136
-20.16632333867399
-21.728847180895706
-21.338216220340275
-26.22110322728313
-29.834439612420844
-29.053177691309987
-35.889219501029984
-41.065079728389414
-46.533913176165406
-52.002746623941405
-50.83085374227512
-54.83482108796826
-57.764553292133975
-57.08094911116198
-58.1551842526894
-58.8387884336614
-55.81139848935683
-53.56527046616312
-54.053559166857404
-49.17067215991455
-45.45967803463798
-46.240939955748836
-41.358052948805984
-37.64705882352941
-35.596246280613414
-33.15480277714199
-33.64309147783627
-34.52201113908598
-35.303273060196844
-35.10795757991913
-35.10795757991913
-35.10795757991913
-33.15480277714199
-31.68993667505913
-31.9829098954757
-28.076600289921416
-25.146868085755703
-25.732814526588847
-20.84992751964599
-17.13893339436942
-12.256046387426567
-7.568474860761425
-8.642710002288853
-1.7090104524299992
3.36919203479057
2.197299153124285
9.130998702983138
14.306858930342566
18.89677271686885
23.58434424353399
22.510109102006563
27.49065384908827
31.103990234225986
30.322728313115128
33.3501182574197
35.49858854047456
36.96345464255741
38.525978484779124
38.1353475242237
39.20958266575113
39.893186846723125
39.69787136644541
39.79552910658427
39.69787136644541
38.72129396505684
38.03768978408484
38.1353475242237
36.182192721446555
34.717326619363696
35.010299839780274
32.08056763561456
29.834439612420844
27.49065384908827
25.146868085755703
25.63515678644999
20.752269779507134
17.041275654230564
17.82253757534142
13.81857022964828
10.888838025482567
6.787212939650568
2.9785610742351416
3.7598229953459983
-1.0254062714579995
-4.736400396734569
-3.9551384756237127
-8.838025482566568
-12.549019607843137
-16.45532921339742
-20.361638818951704
-19.48271915770199
-23.48668650339513
-26.416418707560844
-25.732814526588847
-29.736781872281988
-32.6665140764477
-34.91264209964141
-37.256427862973986
-36.67048142214084
-39.69787136644541
-41.84634164950027
-41.358052948805984
-44.28778515297169
-46.533913176165406
-47.90112153810941
-49.46364538033112
-49.073014419775696
-51.123826962691695
-52.49103532463569
-52.19806210421912
-53.17463950560769
-53.95590142671855
-54.639505607690545
-55.420767528801406
-55.22545204852369
-56.20202944991226
-56.983291371023114
-56.7879758907454
-56.7879758907454
-56.7879758907454
-57.66689555199512
-58.44815747310597
-58.25284199282826
-58.25284199282826
-58.25284199282826
-58.25284199282826
-58.1551842526894
-58.1551842526894
-59.13176165407798
-59.815365835049974
-59.62005035477226
-58.74113069352254
-57.95986877241169
-58.057526512550545
-57.08094911116198
-56.29968719005112
-52.6863508049134
-49.658960860608836
-50.24490730144198
-45.362020294499125
-41.651026169222554
-42.43228809033341
-34.61966887922484
-28.760204470893417
-20.45929655909056
-12.74433508812085
-14.50217441062028
-2.5879301136797133
6.103608758678568
4.150453955901427
14.11154345006485
21.43587396047913
29.346150911726557
37.15877012283513
35.4009308003357
42.43228809033341
47.51049057755398
46.43625543602655
50.44022278171969
53.36995498588541
54.639505607690545
56.20202944991226
55.81139848935683
55.90905622949569
55.90905622949569
55.81139848935683
53.95590142671855
52.39337758449683
49.85427634088655
47.51049057755398
48.09643701838712
45.069047074082555
42.822919050888835
43.311207751583126
38.42832074464027
34.717326619363696
30.71335927367056
26.807049668116274
27.68596932936599
22.705424582284277
19.092088197146563
19.87335011825742
14.892805371175708
11.181811245899137
8.252079041733426
5.0293736171511405
5.810635538261997
3.662165255207141
2.2949568932631417
2.5879301136797133
0.6347753109025711
-0.8300907911802854
-1.416037232013428
-2.197299153124285
-2.0019836728465705
-3.076218814373999
-3.7598229953459983
-3.5645075150682843
-4.638742656595713
-5.322346837567712
-6.103608758678568
-6.884870679789426
-6.6895551995117115
-10.595864805065995
-13.525597009231708
-12.84199282825971
-18.701457236591136
-23.19371328297856
-27.881284809643702
-32.56885633630884
-31.494621194781413
-35.596246280613414
-38.42832074464027
-37.84237430380713
-38.91660944533455
-39.600213626306555
-38.42832074464027
-37.74471656366827
-37.84237430380713
-35.010299839780274
-32.764171816586554
-33.252460517280845
-30.22507057297627
-28.076600289921416
-28.467231250476843
-28.369573510337986
-28.369573510337986
-31.2993057145037
-33.44777599755856
-32.95948729686427
-35.889219501029984
-38.1353475242237
-40.479133287556266
-42.822919050888835
-42.236972610055695
-44.28778515297169
-45.75265125505455
-45.362020294499125
-46.43625543602655
-47.11985961699855
-45.947966735332265
-45.26436255436027
-45.45967803463798
-41.5533684290837
-38.525978484779124
-39.20958266575113
-33.3501182574197
-28.857862211032273
-22.21713588158999
-16.064698252841993
-17.43190661478599
-8.545052262149996
-1.9043259327077133
-3.36919203479057
4.443427176317998
10.400549324788281
15.771725032425422
21.24055848020142
19.971007858396277
25.049210345616846
28.66254673075456
27.881284809643702
31.885252155336843
34.717326619363696
36.96345464255741
39.307240405889985
38.818951705195694
39.79552910658427
40.57679102769512
40.38147554741741
40.38147554741741
40.38147554741741
39.40489814602884
38.62363622491798
38.818951705195694
36.86579690241855
35.4009308003357
35.69390402075227
33.64309147783627
32.178225375753414
29.63912413214313
27.392996108949415
27.881284809643702
24.853894865339132
22.60776684214542
23.096055542839704
20.16632333867399
17.920195315480278
14.599832150759136
11.572442206454566
12.256046387426567
9.228656443121995
6.982528419928283
7.470817120622568
3.5645075150682843
0.6347753109025711
-2.490272373540856
-5.615320057984283
-4.931715877012284
-8.838025482566568
-11.767757686732281
-11.181811245899137
-14.11154345006485
-16.357671473258563
-17.724879835202564
-19.385061417563133
-18.994430457007706
-20.947585259784848
-22.412451361867703
-22.119478141451133
-23.096055542839704
-23.779659723811704
-23.682001983672848
-23.682001983672848
-23.682001983672848
-24.65857938506142
-25.342183566033416
-25.146868085755703
-25.24452582589456
-25.146868085755703
-26.123445487144274
-26.90470740825513
-26.709391927977418
-27.68596932936599
-28.369573510337986
-28.27191577019913
-29.2484931715877
-29.9320973525597
-30.71335927367056
-31.494621194781413
-31.2993057145037
-32.27588311589227
-33.05714503700313
-32.86182955672541
-33.838406958113985
-34.52201113908598
-34.424353398947126
-34.424353398947126
-34.424353398947126
-34.424353398947126
-34.32669565880827
-34.32669565880827
-31.494621194781413
-29.2484931715877
-24.95155260547799
-21.14290074006256
-21.92416266117342
-15.088120851453422
-9.912260624093996
-11.08415350576028
-2.197299153124285
4.345769436179141
13.330281528953995
21.826504921034562
19.971007858396277
29.9320973525597
37.256427862973986
35.596246280613414
43.604180971999696
49.365987640192266
55.713740749217976
61.96383611810483
60.49897001602197
65.57717250324254
69.19050888838025
68.4092469672694
72.41321431296254
75.2452887769894
76.51483939879454
78.07736324101626
77.78439002059967
78.76096742198825
79.44457160296025
79.24925612268254
78.27267872129397
77.58907454032196
76.71015487907225
75.9288929579614
76.02655069810025
74.07339589532312
72.60852979324025
72.90150301365682
69.9717708094911
67.7256427862974
65.28419928282597
62.9404135194934
63.42870222018769
60.49897001602197
58.25284199282826
58.74113069352254
55.713740749217976
53.467612726024264
51.123826962691695
48.78004119935912
49.26832990005341
46.240939955748836
44.09246967269398
44.48310063324941
41.5533684290837
39.307240405889985
36.96345464255741
34.61966887922484
35.10795757991913
28.27191577019913
23.096055542839704
24.267948424505988
15.381094071869994
8.74036774242771
2.5879301136797133
-3.5645075150682843
-2.197299153124285
-8.252079041733426
-12.646677347981994
-11.670099946593423
-14.697489890897993
-16.84596017395285
-15.47875181200885
-14.795147631036851
-14.892805371175708
-11.08415350576028
-8.154421301594567
-8.74036774242771
-4.834058136873426
-1.9043259327077133
-1.513694972152285
-0.6347753109025711
-0.8300907911802854
-3.662165255207141
-5.908293278400855
-5.420004577706569
-7.470817120622568
-8.935683222705425
-11.47478446631571
-13.720912489509422
-13.232623788815136
-15.283436331731137
-16.650644693675137
-16.357671473258563
-18.310826276035705
-19.775692378118563
-21.338216220340275
-22.90074006256199
-22.60776684214542
-23.58434424353399
-24.365606164644845
-24.17029068436713
-24.17029068436713
-24.17029068436713
-21.338216220340275
-19.092088197146563
-19.58037689784085
-14.697489890897993
-10.986495765621424
-11.767757686732281
-4.931715877012284
0.14648661020828566
6.6895551995117115
12.84199282825971
11.47478446631571
21.338216220340275
28.66254673075456
27.002365148393988
35.010299839780274
40.86976424811169
46.240939955748836
51.709773403524835
50.44022278171969
55.51842526894026
59.13176165407798
58.25284199282826
62.2568093385214
65.18654154268711
66.45609216449226
68.01861600671397
67.62798504615854
67.7256427862974
67.62798504615854
67.62798504615854
65.6748302433814
64.20996414129854
61.67086289768826
59.32707713435569
59.815365835049974
55.90905622949569
52.881666285191116
53.56527046616312
49.56130312046998
46.63157091630426
43.40886549172198
40.28381780727855
40.96742198825055
36.0845349813077
32.37354085603113
33.15480277714199
28.174258030060273
24.560921644922562
20.55695429922942
16.650644693675137
17.52956435492485
12.549019607843137
8.838025482566568
9.71694514381628
5.71297779812314
2.783245593957427
-0.34180209048599985
-3.466849774929427
-2.783245593957427
-6.6895551995117115
-9.619287403677424
-9.033340962844282
-11.963073167009995
-14.209201190203707
-15.576409552147707
-17.236591134508277
-16.84596017395285
-18.799114976729992
-20.263981078812847
-19.971007858396277
-21.92416266117342
-23.389028763256274
-24.95155260547799
-26.514076447699704
-26.123445487144274
-27.1976806286717
-27.881284809643702
-27.68596932936599
-29.63912413214313
-31.103990234225986
-32.6665140764477
-34.22903791866941
-33.93606469825284
-35.889219501029984
-37.35408560311284
-36.96345464255741
-39.893186846723125
-42.13931486991684
-43.50652323186084
-45.069047074082555
-44.77607385366598
-45.75265125505455
-46.43625543602655
-46.240939955748836
-47.21751735713741
-47.998779278248264
-47.80346379797055
-47.80346379797055
-47.80346379797055
-46.826886396581976
-46.04562447547112
-46.240939955748836
-44.28778515297169
-42.822919050888835
-39.307240405889985
-36.182192721446555
-36.86579690241855
-32.86182955672541
-29.9320973525597
-30.615701533531702
-24.756237125200276
-20.263981078812847
-14.599832150759136
-9.130998702983138
-10.400549324788281
-4.345769436179141
0.04882887006942855
-0.9277485313191425
5.908293278400855
10.986495765621424
14.599832150759136
18.60379949645228
17.724879835202564
21.728847180895706
24.65857938506142
23.974975204089418
27.002365148393988
29.150835431448844
29.63912413214313
30.518043793392845
30.322728313115128
31.2993057145037
31.9829098954757
31.787594415197987
30.908674753948272
30.127412832837415
27.392996108949415
25.146868085755703
25.63515678644999
22.60776684214542
20.45929655909056
20.947585259784848
17.920195315480278
15.771725032425422
12.45136186770428
9.326314183260854
10.009918364232853
6.005951018539712
3.076218814373999
3.7598229953459983
-0.14648661020828566
-3.076218814373999
-6.201266498817426
-9.326314183260854
-8.642710002288853
-14.50217441062028
-18.89677271686885
-17.920195315480278
-25.830472266727703
-31.68993667505913
-36.0845349813077
-40.86976424811169
-39.79552910658427
-43.79949645227741
-46.72922865644312
-46.04562447547112
-45.26436255436027
-44.38544289311055
-42.72526131074998
-41.16273746852827
-41.45571068894484
-36.57282368200198
-32.86182955672541
-33.74074921797513
-28.760204470893417
-25.049210345616846
-24.95155260547799
-23.974975204089418
-24.17029068436713
-25.049210345616846
-25.830472266727703
-25.63515678644999
-25.63515678644999
-25.63515678644999
-26.61173418783856
-27.392996108949415
-27.1976806286717
-28.174258030060273
-28.857862211032273
-28.66254673075456
-29.736781872281988
-30.420386053253985
-31.201647974364842
-31.9829098954757
-31.787594415197987
-32.764171816586554
-33.44777599755856
-33.3501182574197
-35.20561532005799
-36.67048142214084
-38.33066300450141
-39.79552910658427
-39.5025558861677
-41.45571068894484
-42.92057679102769
-42.529945830472265
-44.580758373388264
-45.947966735332265
-45.654993514915695
-45.75265125505455
-45.654993514915695
-43.79949645227741
-42.236972610055695
-42.529945830472265
-38.62363622491798
-35.69390402075227
-31.592278934920273
-27.68596932936599
-28.564888990615703
-22.60776684214542
-18.21316853589685
-19.18974593728542
-14.209201190203707
-10.498207064927138
-6.591897459372854
-2.68558785381857
-3.5645075150682843
0.43945983062485694
3.36919203479057
2.68558785381857
5.71297779812314
7.861448081177996
11.181811245899137
14.306858930342566
13.623254749370565
15.674067292286564
17.13893339436942
16.748302433813993
17.82253757534142
18.506141756313422
18.310826276035705
18.40848401617456
18.310826276035705
16.45532921339742
14.990463111314565
15.283436331731137
12.353704127565424
10.10757610437171
6.787212939650568
3.662165255207141
4.345769436179141
0.43945983062485694
-2.392614633401999
-1.8066681925688564
-4.736400396734569
-6.982528419928283
-9.326314183260854
-11.670099946593423
-11.181811245899137
-13.13496604867628
-14.599832150759136
-14.306858930342566
-16.260013733119706
-17.724879835202564
-19.287403677424276
-20.84992751964599
-20.55695429922942
-21.533531700617992
-22.21713588158999
-22.119478141451133
-23.096055542839704
-23.779659723811704
-24.560921644922562
-25.342183566033416
-25.146868085755703
-26.123445487144274
-26.90470740825513
-26.709391927977418
-27.68596932936599
-28.467231250476843
-28.27191577019913
-28.27191577019913
-28.27191577019913
-29.2484931715877
-29.9320973525597
-29.736781872281988
-29.834439612420844
-29.736781872281988
-29.736781872281988
-29.736781872281988
-29.736781872281988
-29.736781872281988
-29.736781872281988
-29.736781872281988
-29.736781872281988
-29.736781872281988
-29.736781872281988
-29.736781872281988
-29.63912413214313
-27.783627069504846
-26.22110322728313
-26.61173418783856
-24.560921644922562
-23.096055542839704
-21.533531700617992
-19.971007858396277
-20.263981078812847
-17.334248874647134
-15.185778591592278
-15.674067292286564
-11.670099946593423
-8.74036774242771
-5.615320057984283
-2.490272373540856
-3.1738765545128556
1.7090104524299992
5.322346837567712
4.541084916456855
10.400549324788281
14.892805371175708
20.55695429922942
25.92813000686656
24.756237125200276
32.6665140764477
38.525978484779124
37.15877012283513
45.069047074082555
51.02616922255284
54.44419012741283
58.44815747310597
57.471580071717405
61.475547417410546
64.40527962157626
63.72167544060426
65.77248798352025
67.23735408560312
65.8701457236591
65.18654154268711
65.38185702296482
63.42870222018769
61.86617837796597
62.15915159838254
59.22941939421683
56.983291371023114
53.66292820630198
50.53788052185855
51.22148470283055
48.19409475852598
45.947966735332265
46.43625543602655
41.5533684290837
37.84237430380713
34.81498435950255
31.68993667505913
32.37354085603113
24.560921644922562
18.701457236591136
19.971007858396277
10.10757610437171
2.783245593957427
-4.052796215762569
-11.181811245899137
-9.521629663538567
-15.674067292286564
-19.971007858396277
-18.994430457007706
-21.14290074006256
-22.60776684214542
-20.361638818951704
-18.89677271686885
-19.18974593728542
-15.381094071869994
-12.353704127565424
-13.037308308537423
-9.033340962844282
-6.103608758678568
-5.810635538261997
-4.931715877012284
-5.127031357289998
-6.982528419928283
-8.44739452201114
-8.154421301594567
-10.10757610437171
-11.572442206454566
-13.13496604867628
-14.697489890897993
-14.404516670481422
-16.357671473258563
-17.82253757534142
-17.52956435492485
-19.48271915770199
-20.947585259784848
-22.510109102006563
-24.072632944228275
-23.682001983672848
-25.63515678644999
-27.100022888532845
-26.807049668116274
-27.783627069504846
-28.564888990615703
-30.322728313115128
-31.787594415197987
-31.494621194781413
-34.424353398947126
-36.57282368200198
-36.0845349813077
-37.15877012283513
-37.84237430380713
-39.600213626306555
-41.065079728389414
-40.772106507972836
-40.772106507972836
-40.772106507972836
-40.772106507972836
-38.818951705195694
-37.35408560311284
-32.86182955672541
-29.053177691309987
-29.9320973525597
-22.119478141451133
-16.16235599298085
-17.43190661478599
-8.545052262149996
-2.0019836728465705
7.959105821316854
17.13893339436942
15.088120851453422
26.025787747005417
34.131380178530556
32.27588311589227
42.236972610055695
49.56130312046998
56.49500267032883
63.526359960326545
61.96383611810483
68.99519340810254
74.07339589532312
72.90150301365682
78.85862516212711
83.25322346837568
85.10872053101396
87.55016403448539
86.96421759365225
88.91737239642939
90.38223849851225
89.99160753795681
90.08926527809568
89.99160753795681
89.01503013656824
88.23376821545739
88.4290836957351
85.49935149156939
83.25322346837568
83.74151216906996
80.71412222476539
78.46799420157168
74.17105363546197
70.36240177004655
71.1436636911574
65.18654154268711
60.79194323643854
61.768520637827116
55.81139848935683
51.31914244296941
47.51049057755398
43.604180971999696
44.48310063324941
39.5025558861677
35.79156176089113
36.57282368200198
32.56885633630884
29.63912413214313
26.416418707560844
23.291371023117417
23.974975204089418
21.045242999923705
18.799114976729992
19.287403677424276
16.260013733119706
14.11154345006485
11.670099946593423
9.326314183260854
9.912260624093996
6.884870679789426
4.736400396734569
5.224689097428855
2.197299153124285
0.04882887006942855
-1.3183794918745708
-2.8809033340962844
-2.5879301136797133
-5.517662317845426
-7.666132600900283
-7.177843900205997
-9.228656443121995
-10.693522545204852
-13.232623788815136
-15.47875181200885
-14.990463111314565
-18.89677271686885
-21.826504921034562
-21.24055848020142
-24.17029068436713
-26.416418707560844
-28.760204470893417
-31.103990234225986
-30.518043793392845
-32.56885633630884
-34.0337224383917
-33.64309147783627
-35.69390402075227
-37.15877012283513
-38.72129396505684
-40.186160067139696
-39.893186846723125
-39.893186846723125
-39.893186846723125
-39.893186846723125
-37.94003204394598
-36.475165941863125
-32.95948729686427
-29.9320973525597
-30.615701533531702
-24.65857938506142
-20.263981078812847
-21.24055848020142
-12.45136186770428
-5.810635538261997
1.2207217517357138
8.252079041733426
6.6895551995117115
16.55298695353628
23.87731746395056
22.314793621728846
30.22507057297627
36.0845349813077
40.57679102769512
45.26436255436027
44.19012741283284
49.17067215991455
52.881666285191116
52.002746623941405
55.03013656824598
57.178606851300835
58.643472953383686
60.2059967956054
59.815365835049974
60.79194323643854
61.5732051575494
61.37788967727169
60.401312275883114
59.62005035477226
57.86221103227283
56.29968719005112
56.690318150606544
51.80743114366369
48.09643701838712
48.877698939497975
40.08850232700084
33.44777599755856
27.295338368810558
20.947585259784848
22.412451361867703
17.334248874647134
13.623254749370565
14.404516670481422
11.377126726176853
9.228656443121995
8.74036774242771
7.861448081177996
8.05676356145571
8.935683222705425
9.71694514381628
9.521629663538567
10.498207064927138
11.279468986037996
10.10757610437171
9.42397192339971
9.619287403677424
6.6895551995117115
4.443427176317998
4.931715877012284
2.0019836728465705
-0.14648661020828566
-3.466849774929427
-6.494239719233997
-5.810635538261997
-9.81460288395514
-12.74433508812085
-12.060730907148852
-16.064698252841993
-18.994430457007706
-21.14290074006256
-23.58434424353399
-22.998397802700847
-24.072632944228275
-24.756237125200276
-24.65857938506142
-25.63515678644999
-26.318760967421987
-26.123445487144274
-26.22110322728313
-26.123445487144274
-26.123445487144274
-26.123445487144274
-26.123445487144274
-27.100022888532845
-27.783627069504846
-28.564888990615703
-29.346150911726557
-29.150835431448844
-31.103990234225986
-32.56885633630884
-32.27588311589227
-34.22903791866941
-35.69390402075227
-36.27985046158541
-37.15877012283513
-36.96345464255741
-37.94003204394598
-38.62363622491798
-38.42832074464027
-37.549401083390556
-36.768139162279695
-33.05714503700313
-30.029755092698558
-30.71335927367056
-25.830472266727703
-22.119478141451133
-22.90074006256199
-17.041275654230564
-12.549019607843137
-6.884870679789426
-1.416037232013428
-2.68558785381857
4.150453955901427
9.326314183260854
8.154421301594567
14.11154345006485
18.60379949645228
21.43587396047913
24.560921644922562
23.87731746395056
25.92813000686656
27.392996108949415
27.002365148393988
28.95551995117113
30.420386053253985
31.103990234225986
31.885252155336843
31.68993667505913
31.68993667505913
31.68993667505913
31.68993667505913
30.71335927367056
29.9320973525597
28.27191577019913
26.709391927977418
27.002365148393988
23.096055542839704
20.16632333867399
20.84992751964599
16.84596017395285
13.916227969787137
10.693522545204852
7.568474860761425
8.252079041733426
4.345769436179141
1.416037232013428
2.0019836728465705
-1.8066681925688564
-4.736400396734569
-6.982528419928283
-9.326314183260854
-8.838025482566568
-10.888838025482567
-12.256046387426567
-11.963073167009995
-13.916227969787137
-15.381094071869994
-16.064698252841993
-16.84596017395285
-16.650644693675137
-16.650644693675137
-16.650644693675137
-16.650644693675137
-16.650644693675137
-16.650644693675137
-15.674067292286564
-14.990463111314565
-15.088120851453422
-14.11154345006485
-13.427939269092851
-13.525597009231708
-12.549019607843137
-11.767757686732281
-12.939650568398566
-13.623254749370565
-13.427939269092851
-14.404516670481422
-15.185778591592278
-14.990463111314565
-17.920195315480278
-20.16632333867399
-23.48668650339513
-26.514076447699704
-25.830472266727703
-29.736781872281988
-32.6665140764477
-32.08056763561456
-35.98687724116884
-38.91660944533455
-42.04165712977798
-45.16670481422141
-44.48310063324941
-48.38941023880369
-51.31914244296941
-50.73319600213626
-53.66292820630198
-55.81139848935683
-57.27626459143969
-58.8387884336614
-58.44815747310597
-59.522392614633404
-60.2059967956054
-60.01068131532769
-59.03410391393912
-58.25284199282826
-55.61608300907912
-53.27229724574655
-53.760585946440834
-48.877698939497975
-45.16670481422141
-45.947966735332265
-38.1353475242237
-32.27588311589227
-23.974975204089418
-16.260013733119706
-18.017853055619135
-8.05676356145571
-0.7324330510414282
-2.2949568932631417
6.494239719233997
13.13496604867628
19.287403677424276
25.537499046311133
24.17029068436713
30.22507057297627
34.52201113908598
33.545433737697415
37.549401083390556
40.479133287556266
41.74868390936141
43.40886549172198
43.018234531166556
42.13931486991684
41.358052948805984
41.45571068894484
35.69390402075227
31.2993057145037
26.514076447699704
21.826504921034562
22.803082322423133
18.799114976729992
15.869382772564279
16.55298695353628
15.381094071869994
14.697489890897993
14.892805371175708
14.795147631036851
14.795147631036851
16.748302433813993
18.21316853589685
17.82253757534142
18.89677271686885
19.58037689784085
18.506141756313422
17.724879835202564
17.920195315480278
14.013885709925994
11.08415350576028
11.767757686732281
8.74036774242771
6.494239719233997
5.127031357289998
3.466849774929427
3.8574807354848555
0.9277485313191425
-1.2207217517357138
-0.7324330510414282
-3.662165255207141
-5.908293278400855
-7.275501640344854
-8.838025482566568
-8.545052262149996
-11.47478446631571
-13.720912489509422
-13.13496604867628
-16.16235599298085
-18.310826276035705
-20.752269779507134
-22.998397802700847
-22.510109102006563
-25.537499046311133
-27.68596932936599
-27.1976806286717
-29.150835431448844
-30.615701533531702
-32.178225375753414
-33.74074921797513
-33.44777599755856
-35.4009308003357
-36.86579690241855
-36.475165941863125
-37.549401083390556
-38.23300526436255
-39.014267185473415
-39.79552910658427
-39.600213626306555
-40.57679102769512
-41.26039520866713
-41.16273746852827
-41.16273746852827
-41.16273746852827
-40.186160067139696
-39.40489814602884
-39.600213626306555
-37.64705882352941
-36.0845349813077
-36.475165941863125
-32.56885633630884
-29.541466392004274
-24.4632639047837
-19.87335011825742
-20.84992751964599
-13.037308308537423
-7.080186160067139
-8.44739452201114
0.34180209048599985
6.982528419928283
15.088120851453422
22.803082322423133
21.045242999923705
30.029755092698558
36.67048142214084
35.10795757991913
44.09246967269398
50.635538261997404
56.7879758907454
63.03807125963226
61.67086289768826
68.60456244754711
73.68276493476768
72.60852979324025
78.56565194171054
82.86259250782025
85.6946669718471
88.91737239642939
88.13611047531853
90.18692301823454
91.55413138017853
91.26115815976196
92.23773556115053
92.92133974212253
90.87052719920653
89.40566109712367
89.69863431754024
86.67124437323568
84.42511635004196
84.91340505073624
81.00709544518196
77.97970550087739
73.87808041504539
69.9717708094911
70.85069047074083
65.77248798352025
62.15915159838254
62.9404135194934
57.95986877241169
54.24887464713512
51.22148470283055
48.09643701838712
48.78004119935912
44.77607385366598
41.84634164950027
42.43228809033341
39.40489814602884
37.256427862973986
33.838406958113985
30.811017013809415
31.494621194781413
27.49065384908827
24.560921644922562
25.146868085755703
20.263981078812847
16.55298695353628
11.670099946593423
6.982528419928283
8.05676356145571
2.0996414129854277
-2.197299153124285
-1.2207217517357138
-6.201266498817426
-9.912260624093996
-13.81857022964828
-17.724879835202564
-16.84596017395285
-21.826504921034562
-25.537499046311133
-24.65857938506142
-29.63912413214313
-33.252460517280845
-36.27985046158541
-39.40489814602884
-38.72129396505684
-42.62760357061112
-45.55733577477684
-44.873731593804834
-48.877698939497975
-51.80743114366369
-53.95590142671855
-56.29968719005112
-55.81139848935683
-57.764553292133975
-59.22941939421683
-58.936446173800256
-60.8896009765774
-62.35446707866026
-61.96383611810483
-62.061493858243686
-61.96383611810483
-60.108339055466544
-58.54581521324483
-58.8387884336614
-54.053559166857404
-50.24490730144198
-43.50652323186084
-37.35408560311284
-38.62363622491798
-28.857862211032273
-21.43587396047913
-23.096055542839704
-12.158388647287708
-4.150453955901427
5.420004577706569
14.795147631036851
12.646677347981994
23.682001983672848
31.68993667505913
29.9320973525597
39.79552910658427
47.11985961699855
53.17463950560769
59.42473487449455
58.057526512550545
61.182574196993976
63.33104448004883
62.84275577935454
61.96383611810483
61.182574196993976
58.44815747310597
56.20202944991226
56.690318150606544
55.61608300907912
54.83482108796826
54.932478828107115
54.932478828107115
54.932478828107115
56.7879758907454
58.25284199282826
57.95986877241169
59.91302357518883
61.37788967727169
60.987258716716255
62.9404135194934
64.40527962157626
62.15915159838254
60.694285496299685
60.987258716716255
56.1043717097734
52.39337758449683
53.27229724574655
47.31517509727627
42.92057679102769
39.11192492561227
35.10795757991913
35.98687724116884
31.9829098954757
29.053177691309987
29.63912413214313
25.732814526588847
22.803082322423133
20.55695429922942
18.11551079575799
18.701457236591136
16.650644693675137
15.185778591592278
15.47875181200885
12.549019607843137
10.302891584649425
7.959105821316854
5.615320057984283
6.103608758678568
3.1738765545128556
0.9277485313191425
1.416037232013428
-2.392614633401999
-5.322346837567712
-8.44739452201114
-11.572442206454566
-10.888838025482567
-15.869382772564279
-19.48271915770199
-18.701457236591136
-21.728847180895706
-23.87731746395056
-27.1976806286717
-30.322728313115128
-29.63912413214313
-32.56885633630884
-34.81498435950255
-34.32669565880827
-37.256427862973986
-39.40489814602884
-41.84634164950027
-44.09246967269398
-43.604180971999696
-46.533913176165406
-48.78004119935912
-48.19409475852598
-51.22148470283055
-53.36995498588541
-53.85824368657969
-54.639505607690545
-54.44419012741283
-55.420767528801406
-56.20202944991226
-56.006713969634546
-53.17463950560769
-50.928511482413974
-47.51049057755398
-44.48310063324941
-45.069047074082555
-37.35408560311284
-31.396963454642556
-32.6665140764477
-24.756237125200276
-18.89677271686885
-10.595864805065995
-2.8809033340962844
-4.638742656595713
4.248111696040284
10.888838025482567
9.42397192339971
16.357671473258563
21.533531700617992
26.123445487144274
30.811017013809415
29.736781872281988
34.717326619363696
38.42832074464027
37.549401083390556
40.57679102769512
42.72526131074998
44.19012741283284
45.75265125505455
45.362020294499125
45.45967803463798
45.45967803463798
45.362020294499125
44.48310063324941
43.70183871213855
40.96742198825055
38.72129396505684
39.20958266575113
36.182192721446555
33.93606469825284
34.424353398947126
29.541466392004274
25.830472266727703
22.90074006256199
19.678034637979707
20.361638818951704
14.50217441062028
10.10757610437171
11.08415350576028
6.103608758678568
2.392614633401999
-1.416037232013428
-5.322346837567712
-4.443427176317998
-9.42397192339971
-13.13496604867628
-12.256046387426567
-17.236591134508277
-20.947585259784848
-23.87731746395056
-27.100022888532845
-26.318760967421987
-29.346150911726557
-31.592278934920273
-31.00633249408713
-33.05714503700313
-34.52201113908598
-35.10795757991913
-35.889219501029984
-35.69390402075227
-37.64705882352941
-39.11192492561227
-38.818951705195694
-41.74868390936141
-43.89715419241627
-46.240939955748836
-48.584725719081405
-48.09643701838712
-50.04959182116426
-51.51445792324712
-51.22148470283055
-53.17463950560769
-54.639505607690545
-56.20202944991226
-57.66689555199512
-57.37392233157855
-57.37392233157855
-57.37392233157855
-57.37392233157855
-58.25284199282826
-59.03410391393912
-59.815365835049974
-60.49897001602197
-60.30365453574426
-61.28023193713283
-62.061493858243686
-61.86617837796597
-62.84275577935454
-63.526359960326545
-64.3076218814374
-65.08888380254825
-64.89356832227054
-63.91699092088197
-63.13572899977112
-63.33104448004883
-60.401312275883114
-58.1551842526894
-53.85824368657969
-50.04959182116426
-50.83085374227512
-43.018234531166556
-37.06111238269627
-38.42832074464027
-29.541466392004274
-22.90074006256199
-15.771725032425422
-8.74036774242771
-10.302891584649425
-3.2715342946517127
1.8066681925688564
0.6347753109025711
3.7598229953459983
5.908293278400855
6.39658197909514
7.275501640344854
7.080186160067139
10.888838025482567
13.81857022964828
13.232623788815136
17.13893339436942
20.068665598535134
26.123445487144274
31.494621194781413
30.22507057297627
38.1353475242237
43.99481193255512
42.72526131074998
48.68238345922026
53.07698176546884
53.07698176546884
53.95590142671855
53.760585946440834
50.928511482413974
48.68238345922026
49.17067215991455
45.16670481422141
42.236972610055695
38.1353475242237
34.22903791866941
35.10795757991913
31.103990234225986
28.174258030060273
28.760204470893417
24.756237125200276
21.826504921034562
19.678034637979707
17.236591134508277
17.724879835202564
13.81857022964828
10.888838025482567
11.572442206454566
7.568474860761425
4.638742656595713
1.416037232013428
-1.513694972152285
-0.8300907911802854
-5.810635538261997
-9.42397192339971
-8.642710002288853
-12.646677347981994
-15.576409552147707
-18.701457236591136
-21.826504921034562
-21.14290074006256
-25.146868085755703
-28.076600289921416
-27.392996108949415
-30.420386053253985
-32.56885633630884
-34.91264209964141
-37.256427862973986
-36.768139162279695
-38.72129396505684
-40.186160067139696
-39.893186846723125
-40.86976424811169
-41.5533684290837
-42.33463035019455
-43.11589227130541
-42.92057679102769
-43.89715419241627
-44.67841611352712
-44.48310063324941
-44.48310063324941
-44.48310063324941
-44.48310063324941
-44.38544289311055
-44.38544289311055
-43.40886549172198
-42.72526131074998
-42.822919050888835
-42.822919050888835
-42.822919050888835
-42.822919050888835
-42.72526131074998
-42.72526131074998
-41.74868390936141
-41.065079728389414
-41.16273746852827
-39.20958266575113
-37.74471656366827
-34.22903791866941
-31.201647974364842
-31.885252155336843
-24.95155260547799
-19.775692378118563
-20.947585259784848
-12.158388647287708
-5.517662317845426
2.490272373540856
10.205233844510566
8.545052262149996
19.385061417563133
27.49065384908827
25.63515678644999
35.596246280613414
42.92057679102769
48.97535667963683
55.22545204852369
53.760585946440834
58.8387884336614
62.45212481879911
61.67086289768826
65.6748302433814
68.60456244754711
69.77645532921339
71.43663691157397
71.04600595101854
71.04600595101854
71.04600595101854
71.04600595101854
69.0928511482414
67.62798504615854
64.9912260624094
62.745098039215684
63.233386739909974
59.22941939421683
56.29968719005112
56.88563363088426
51.02616922255284
46.63157091630426
42.822919050888835
38.818951705195694
39.69787136644541
33.74074921797513
29.346150911726557
30.322728313115128
25.342183566033416
21.63118944075685
17.627222095063708
13.81857022964828
14.599832150759136
11.572442206454566
9.42397192339971
9.912260624093996
5.908293278400855
2.9785610742351416
0.7324330510414282
-1.513694972152285
-0.9277485313191425
-3.9551384756237127
-6.103608758678568
-5.615320057984283
-8.642710002288853
-10.79118028534371
-13.232623788815136
-15.576409552147707
-14.990463111314565
-17.041275654230564
-18.506141756313422
-18.11551079575799
-20.16632333867399
-21.63118944075685
-23.19371328297856
-24.756237125200276
-24.365606164644845
-25.439841306172273
-26.123445487144274
-25.92813000686656
-26.90470740825513
-27.68596932936599
-29.346150911726557
-30.908674753948272
-30.518043793392845
-32.56885633630884
-33.93606469825284
-33.64309147783627
-35.596246280613414
-37.06111238269627
-38.62363622491798
-40.186160067139696
-39.79552910658427
-41.84634164950027
-43.21355001144427
-42.92057679102769
-43.018234531166556
-42.92057679102769
-41.065079728389414
-39.5025558861677
-39.893186846723125
-35.98687724116884
-32.95948729686427
-33.64309147783627
-26.807049668116274
-21.63118944075685
-14.209201190203707
-7.177843900205997
-8.74036774242771
-1.7090104524299992
3.2715342946517127
2.197299153124285
7.177843900205997
10.79118028534371
12.84199282825971
15.283436331731137
14.795147631036851
19.678034637979707
23.291371023117417
22.510109102006563
27.392996108949415
31.103990234225986
36.96345464255741
42.33463035019455
41.16273746852827
48.97535667963683
54.83482108796826
53.56527046616312
59.522392614633404
63.91699092088197
66.74906538490883
69.87411306935225
69.19050888838025
69.28816662851911
69.28816662851911
69.28816662851911
69.19050888838025
69.19050888838025
68.21393148699168
67.43266956588083
67.62798504615854
65.6748302433814
64.11230640115969
64.40527962157626
61.475547417410546
59.22941939421683
55.90905622949569
52.78400854505226
53.467612726024264
48.584725719081405
44.873731593804834
45.654993514915695
39.69787136644541
35.303273060196844
31.494621194781413
27.588311589227132
28.467231250476843
24.365606164644845
21.43587396047913
22.119478141451133
18.11551079575799
15.185778591592278
12.939650568398566
10.595864805065995
11.08415350576028
7.177843900205997
4.248111696040284
4.931715877012284
0.9277485313191425
-1.9043259327077133
-5.127031357289998
-8.154421301594567
-7.470817120622568
-11.47478446631571
-14.404516670481422
-13.720912489509422
-16.748302433813993
-18.89677271686885
-21.338216220340275
-23.682001983672848
-23.096055542839704
-25.146868085755703
-26.61173418783856
-26.22110322728313
-27.295338368810558
-27.97894254978256
-27.783627069504846
-27.881284809643702
-27.783627069504846
-27.783627069504846
-27.783627069504846
-27.783627069504846
-26.807049668116274
-26.123445487144274
-25.24452582589456
-24.4632639047837
-24.65857938506142
-23.682001983672848
-22.90074006256199
-23.096055542839704
-22.998397802700847
-22.998397802700847
-22.998397802700847
-22.998397802700847
-22.998397802700847
-21.14290074006256
-19.58037689784085
-19.971007858396277
-16.943617914091707
-14.795147631036851
-9.521629663538567
-4.931715877012284
-6.005951018539712
1.8066681925688564
7.666132600900283
6.39658197909514
15.283436331731137
21.826504921034562
28.95551995117113
35.98687724116884
34.424353398947126
42.43228809033341
48.19409475852598
46.92454413672083
52.002746623941405
55.61608300907912
56.690318150606544
58.350499732967116
57.95986877241169
58.936446173800256
59.62005035477226
59.522392614633404
59.522392614633404
59.522392614633404
58.54581521324483
57.764553292133975
57.86221103227283
56.88563363088426
56.1043717097734
56.29968719005112
53.36995498588541
51.123826962691695
48.78004119935912
46.33859769588769
46.92454413672083
41.943999389639124
38.33066300450141
39.11192492561227
34.131380178530556
30.420386053253985
24.560921644922562
19.18974593728542
20.361638818951704
14.404516670481422
10.009918364232853
10.888838025482567
5.0293736171511405
0.537117570763714
-4.052796215762569
-8.74036774242771
-7.666132600900283
-11.767757686732281
-14.697489890897993
-14.013885709925994
-18.017853055619135
-20.947585259784848
-24.072632944228275
-27.1976806286717
-26.514076447699704
-29.443808651865414
-31.68993667505913
-31.201647974364842
-34.131380178530556
-36.27985046158541
-38.72129396505684
-40.96742198825055
-40.479133287556266
-43.40886549172198
-45.654993514915695
-45.16670481422141
-48.09643701838712
-50.24490730144198
-52.588693064774546
-54.932478828107115
-54.44419012741283
-57.37392233157855
-59.522392614633404
-59.03410391393912
-61.08491645685512
-62.45212481879911
-64.01464866102083
-65.57717250324254
-65.18654154268711
-67.23735408560312
-68.60456244754711
-68.31158922713054
-70.26474402990769
-71.72961013199054
-73.29213397421225
-74.75700007629511
-74.46402685587854
-76.41718165865568
-77.88204776073853
-77.4914168001831
-78.46799420157168
-79.15159838254368
-79.93286030365454
-80.71412222476539
-80.51880674448768
-81.49538414587624
-82.17898832684826
-81.98367284657053
-82.96025024795911
-83.6438544289311
-80.61646448462653
-78.37033646143283
-78.85862516212711
-71.1436636911574
-65.18654154268711
-66.45609216449226
-54.639505607690545
-45.85030899519341
-34.424353398947126
-23.58434424353399
-25.92813000686656
-10.10757610437171
1.513694972152285
-1.0254062714579995
12.84199282825971
23.096055542839704
29.443808651865414
36.57282368200198
35.010299839780274
39.11192492561227
42.04165712977798
41.358052948805984
43.40886549172198
44.873731593804834
46.43625543602655
47.998779278248264
47.60814831769284
47.705806057831694
47.60814831769284
47.60814831769284
47.60814831769284
47.60814831769284
45.654993514915695
44.19012741283284
44.48310063324941
41.5533684290837
39.307240405889985
39.79552910658427
36.768139162279695
34.61966887922484
30.322728313115128
26.514076447699704
27.295338368810558
22.314793621728846
18.701457236591136
19.48271915770199
14.50217441062028
10.79118028534371
5.908293278400855
1.3183794918745708
2.2949568932631417
-2.5879301136797133
-6.298924238956283
-5.420004577706569
-9.42397192339971
-12.353704127565424
-14.599832150759136
-16.943617914091707
-16.45532921339742
-19.385061417563133
-21.533531700617992
-21.045242999923705
-24.072632944228275
-26.22110322728313
-27.68596932936599
-29.2484931715877
-28.857862211032273
-31.787594415197987
-34.0337224383917
-33.545433737697415
-35.49858854047456
-36.96345464255741
-38.525978484779124
-40.08850232700084
-39.69787136644541
-42.62760357061112
-44.873731593804834
-44.38544289311055
-46.33859769588769
-47.80346379797055
-48.38941023880369
-49.17067215991455
-48.97535667963683
-50.928511482413974
-52.39337758449683
-52.10040436408026
-53.07698176546884
-53.760585946440834
-55.51842526894026
-56.983291371023114
-56.690318150606544
-57.66689555199512
-58.350499732967116
-58.25284199282826
-59.13176165407798
-59.91302357518883
-60.694285496299685
-61.475547417410546
-61.28023193713283
-60.30365453574426
-59.522392614633404
-59.71770809491112
-56.7879758907454
-54.54184786755169
-49.26832990005341
-44.67841611352712
-45.654993514915695
-37.84237430380713
-31.885252155336843
-33.252460517280845
-23.389028763256274
-15.967040512703136
-7.080186160067139
1.3183794918745708
-0.43945983062485694
9.42397192339971
16.748302433813993
15.088120851453422
24.072632944228275
30.615701533531702
36.768139162279695
43.018234531166556
41.651026169222554
46.72922865644312
50.34256504158083
49.56130312046998
52.588693064774546
54.7371633478294
56.1043717097734
57.66689555199512
57.27626459143969
57.37392233157855
57.37392233157855
57.37392233157855
56.39734493018997
55.61608300907912
52.881666285191116
50.635538261997404
51.123826962691695
48.09643701838712
45.85030899519341
46.33859769588769
42.43228809033341
39.40489814602884
36.27985046158541
33.15480277714199
33.838406958113985
30.811017013809415
28.564888990615703
29.053177691309987
27.002365148393988
25.537499046311133
23.974975204089418
22.412451361867703
22.803082322423133
20.752269779507134
19.287403677424276
19.58037689784085
17.627222095063708
16.16235599298085
12.646677347981994
9.619287403677424
10.302891584649425
7.275501640344854
5.0293736171511405
5.517662317845426
1.6113527122911422
-1.2207217517357138
-4.345769436179141
-7.470817120622568
-6.787212939650568
-9.81460288395514
-12.060730907148852
-11.572442206454566
-13.525597009231708
-14.990463111314565
-16.55298695353628
-18.11551079575799
-17.82253757534142
-19.775692378118563
-21.24055848020142
-20.84992751964599
-23.779659723811704
-26.025787747005417
-27.392996108949415
-29.053177691309987
-28.66254673075456
-32.56885633630884
-35.49858854047456
-34.81498435950255
-37.84237430380713
-39.99084458686198
-43.311207751583126
-46.33859769588769
-45.654993514915695
-50.635538261997404
-54.24887464713512
-53.467612726024264
-59.32707713435569
-63.72167544060426
-66.55374990463112
-69.67879758907453
-68.99519340810254
-68.11627374685283
-67.33501182574197
-67.53032730601969
-62.64744029907683
-58.936446173800256
-50.24490730144198
-42.529945830472265
-44.28778515297169
-29.541466392004274
-18.506141756313422
-20.947585259784848
-6.103608758678568
4.834058136873426
14.795147631036851
25.049210345616846
22.705424582284277
31.787594415197987
38.42832074464027
36.96345464255741
44.873731593804834
50.73319600213626
55.127794308384836
59.91302357518883
58.8387884336614
61.86617837796597
64.01464866102083
63.526359960326545
65.47951476310368
66.94438086518655
67.53032730601969
68.4092469672694
68.11627374685283
67.23735408560312
66.45609216449226
66.55374990463112
65.57717250324254
64.79591058213168
61.182574196993976
58.1551842526894
58.74113069352254
54.83482108796826
51.80743114366369
52.49103532463569
47.51049057755398
43.79949645227741
38.91660944533455
34.22903791866941
35.303273060196844
30.322728313115128
26.61173418783856
27.392996108949415
22.412451361867703
18.799114976729992
15.771725032425422
12.646677347981994
13.330281528953995
9.326314183260854
6.39658197909514
7.080186160067139
3.076218814373999
0.14648661020828566
-2.0019836728465705
-4.345769436179141
-3.8574807354848555
-7.763790341039139
-10.693522545204852
-10.009918364232853
-14.013885709925994
-16.943617914091707
-19.18974593728542
-21.533531700617992
-20.947585259784848
-22.998397802700847
-24.4632639047837
-24.072632944228275
-25.146868085755703
-25.830472266727703
-26.61173418783856
-27.392996108949415
-27.1976806286717
-27.295338368810558
-27.1976806286717
-27.1976806286717
-27.1976806286717
-27.1976806286717
-27.1976806286717
-27.1976806286717
-27.1976806286717
-28.174258030060273
-28.857862211032273
-28.66254673075456
-30.615701533531702
-32.08056763561456
-33.64309147783627
-35.20561532005799
-34.91264209964141
-36.86579690241855
-38.33066300450141
-37.94003204394598
-38.03768978408484
-38.03768978408484
-36.0845349813077
-34.61966887922484
-34.91264209964141
-31.00633249408713
-28.076600289921416
-28.66254673075456
-21.826504921034562
-16.650644693675137
-9.228656443121995
-2.2949568932631417
-3.8574807354848555
6.884870679789426
14.990463111314565
13.232623788815136
24.072632944228275
32.178225375753414
39.893186846723125
47.705806057831694
45.947966735332265
53.95590142671855
59.815365835049974
58.54581521324483
65.47951476310368
70.55771725032426
74.17105363546197
78.17502098115511
77.19844357976653
81.20241092545967
84.13214312962539
83.4485389486534
86.37827115281911
88.62439917601282
89.01503013656824
89.89394979781795
89.60097657740138
88.72205691615167
87.94079499504082
88.03845273517967
85.10872053101396
82.86259250782025
79.54222934309911
76.41718165865568
77.10078583962768
71.1436636911574
66.74906538490883
67.7256427862974
62.64744029907683
59.03410391393912
54.053559166857404
49.46364538033112
50.44022278171969
45.45967803463798
41.74868390936141
42.529945830472265
37.549401083390556
33.838406958113985
30.908674753948272
27.68596932936599
28.369573510337986
25.342183566033416
23.19371328297856
23.682001983672848
20.654612039368278
18.506141756313422
16.064698252841993
13.720912489509422
14.209201190203707
12.256046387426567
10.79118028534371
11.08415350576028
9.130998702983138
7.666132600900283
6.982528419928283
6.201266498817426
6.39658197909514
5.322346837567712
4.638742656595713
4.834058136873426
3.7598229953459983
3.076218814373999
3.1738765545128556
3.1738765545128556
3.1738765545128556
2.197299153124285
1.513694972152285
1.6113527122911422
-0.14648661020828566
-1.7090104524299992
-4.248111696040284
-6.494239719233997
-6.005951018539712
-11.865415426871138
-16.260013733119706
-15.283436331731137
-24.072632944228275
-30.71335927367056
-37.84237430380713
-44.77607385366598
-43.21355001144427
-49.26832990005341
-53.66292820630198
-52.6863508049134
-53.85824368657969
-54.54184786755169
-51.51445792324712
-49.26832990005341
-49.75661860074769
-41.943999389639124
-36.0845349813077
-37.35408560311284
-28.467231250476843
-21.826504921034562
-15.674067292286564
-9.326314183260854
-10.79118028534371
-4.736400396734569
-0.34180209048599985
-1.3183794918745708
4.541084916456855
8.935683222705425
12.74433508812085
16.650644693675137
15.771725032425422
19.775692378118563
22.705424582284277
22.021820401312276
24.072632944228275
25.537499046311133
27.100022888532845
28.66254673075456
28.369573510337986
30.322728313115128
31.787594415197987
31.396963454642556
32.471198596169984
33.15480277714199
32.95948729686427
33.05714503700313
32.95948729686427
31.9829098954757
31.2993057145037
31.396963454642556
30.420386053253985
29.63912413214313
27.002365148393988
24.65857938506142
25.24452582589456
21.24055848020142
18.310826276035705
18.994430457007706
14.013885709925994
10.302891584649425
5.420004577706569
0.8300907911802854
1.8066681925688564
-3.076218814373999
-6.787212939650568
-5.908293278400855
-10.888838025482567
-14.50217441062028
-18.506141756313422
-22.412451361867703
-21.533531700617992
-25.537499046311133
-28.467231250476843
-27.783627069504846
-31.68993667505913
-34.61966887922484
-36.86579690241855
-39.20958266575113
-38.72129396505684
-41.651026169222554
-43.79949645227741
-43.311207751583126
-45.362020294499125
-46.826886396581976
-48.38941023880369
-49.951934081025406
-49.56130312046998
-51.51445792324712
-52.97932402532997
-52.588693064774546
-54.54184786755169
-56.006713969634546
-57.56923781185626
-59.13176165407798
-58.74113069352254
-60.79194323643854
-62.15915159838254
-61.86617837796597
-63.819333180743115
-65.28419928282597
-66.84672312504769
-68.4092469672694
-68.01861600671397
-69.9717708094911
-71.43663691157397
-71.04600595101854
-72.99916075379568
-74.46402685587854
-76.02655069810025
-77.58907454032196
-77.19844357976653
-79.15159838254368
-80.61646448462653
-80.2258335240711
-82.17898832684826
-83.6438544289311
-83.25322346837568
-83.35088120851454
-83.25322346837568
-82.27664606698711
-81.49538414587624
-81.69069962615396
-77.78439002059967
-74.85465781643397
-68.79987792782482
-63.42870222018769
-64.60059510185397
-54.7371633478294
-47.31517509727627
-48.97535667963683
-38.1353475242237
-30.029755092698558
-21.24055848020142
-12.74433508812085
-14.599832150759136
-3.662165255207141
4.345769436179141
2.490272373540856
11.47478446631571
18.11551079575799
23.291371023117417
28.857862211032273
27.588311589227132
32.56885633630884
36.27985046158541
35.4009308003357
37.549401083390556
38.91660944533455
40.479133287556266
42.04165712977798
41.74868390936141
41.74868390936141
41.74868390936141
41.74868390936141
40.772106507972836
39.99084458686198
39.20958266575113
38.42832074464027
38.62363622491798
35.69390402075227
33.44777599755856
33.93606469825284
30.908674753948272
28.760204470893417
26.318760967421987
23.974975204089418
24.4632639047837
20.55695429922942
17.627222095063708
18.21316853589685
15.283436331731137
13.037308308537423
9.71694514381628
6.591897459372854
7.275501640344854
4.248111696040284
2.0996414129854277
2.5879301136797133
-0.34180209048599985
-2.490272373540856
-4.834058136873426
-7.177843900205997
-6.6895551995117115
-9.619287403677424
-11.865415426871138
-11.377126726176853
-14.306858930342566
-16.55298695353628
-17.920195315480278
-19.58037689784085
-19.18974593728542
-21.14290074006256
-22.60776684214542
-22.314793621728846
-24.267948424505988
-25.732814526588847
-27.295338368810558
-28.857862211032273
-28.467231250476843
-31.396963454642556
-33.64309147783627
-33.15480277714199
-38.91660944533455
-43.40886549172198
-47.11985961699855
-51.02616922255284
-50.14724956130312
-52.295719844357976
-53.66292820630198
-53.36995498588541
-52.49103532463569
-51.709773403524835
-47.998779278248264
-44.97138933394369
-45.654993514915695
-39.79552910658427
-35.303273060196844
-36.27985046158541
-31.2993057145037
-27.588311589227132
-24.560921644922562
-21.43587396047913
-22.119478141451133
-20.068665598535134
-18.60379949645228
-18.89677271686885
-15.967040512703136
-13.720912489509422
-8.545052262149996
-3.9551384756237127
-4.931715877012284
2.783245593957427
8.74036774242771
7.373159380483711
17.236591134508277
24.560921644922562
32.471198596169984
40.28381780727855
38.525978484779124
47.51049057755398
54.053559166857404
52.588693064774546
59.522392614633404
64.69825284199283
68.31158922713054
72.21789883268482
71.33897917143511
74.36636911573969
76.51483939879454
76.02655069810025
77.97970550087739
79.44457160296025
78.17502098115511
77.4914168001831
77.58907454032196
76.51483939879454
75.83123521782254
75.9288929579614
72.99916075379568
70.75303273060197
67.43266956588083
64.3076218814374
64.9912260624094
60.01068131532769
56.29968719005112
57.178606851300835
51.22148470283055
46.826886396581976
42.04165712977798
37.35408560311284
38.33066300450141
32.37354085603113
27.97894254978256
28.95551995117113
22.998397802700847
18.60379949645228
13.81857022964828
9.130998702983138
10.205233844510566
5.224689097428855
1.513694972152285
2.2949568932631417
-1.6113527122911422
-4.541084916456855
-7.666132600900283
-10.79118028534371
-10.10757610437171
-14.013885709925994
-16.943617914091707
-16.357671473258563
-20.263981078812847
-23.19371328297856
-25.439841306172273
-27.783627069504846
-27.295338368810558
-31.201647974364842
-34.131380178530556
-33.44777599755856
-37.4517433432517
-40.28381780727855
-43.50652323186084
-46.63157091630426
-45.85030899519341
-49.85427634088655
-52.78400854505226
-52.10040436408026
-55.127794308384836
-57.27626459143969
-59.62005035477226
-61.96383611810483
-61.37788967727169
-62.45212481879911
-63.13572899977112
-62.9404135194934
-64.89356832227054
-66.3584344243534
-66.94438086518655
-67.7256427862974
-67.53032730601969
-68.50690470740825
-69.19050888838025
-69.0928511482414
-69.0928511482414
-68.99519340810254
-67.13969634546426
-65.57717250324254
-65.8701457236591
-61.96383611810483
-59.03410391393912
-59.62005035477226
-52.78400854505226
-47.60814831769284
-40.186160067139696
-33.252460517280845
-34.717326619363696
-24.853894865339132
-17.52956435492485
-19.092088197146563
-8.252079041733426
-0.14648661020828566
6.494239719233997
13.623254749370565
12.060730907148852
20.947585259784848
27.588311589227132
26.123445487144274
33.05714503700313
38.23300526436255
42.822919050888835
47.51049057755398
46.43625543602655
50.44022278171969
53.36995498588541
52.6863508049134
56.690318150606544
59.62005035477226
60.79194323643854
62.45212481879911
62.061493858243686
63.03807125963226
63.72167544060426
63.6240177004654
64.50293736171511
65.28419928282597
65.08888380254825
65.08888380254825
65.08888380254825
65.08888380254825
64.9912260624094
64.9912260624094
63.03807125963226
61.5732051575494
60.01068131532769
58.350499732967116
58.74113069352254
55.81139848935683
53.56527046616312
54.053559166857404
51.02616922255284
48.78004119935912
44.48310063324941
40.67444876783398
41.45571068894484
37.4517433432517
34.52201113908598
35.20561532005799
31.201647974364842
28.27191577019913
26.025787747005417
23.682001983672848
24.17029068436713
22.119478141451133
20.654612039368278
21.045242999923705
18.017853055619135
15.869382772564279
12.549019607843137
9.42397192339971
10.10757610437171
2.2949568932631417
-3.466849774929427
-2.197299153124285
-12.939650568398566
-21.045242999923705
-29.736781872281988
-38.33066300450141
-36.37750820172427
-43.50652323186084
-48.584725719081405
-47.412832837415124
-50.53788052185855
-52.6863508049134
-51.22148470283055
-50.635538261997404
-50.73319600213626
-45.947966735332265
-42.13931486991684
-43.018234531166556
-39.014267185473415
-36.0845349813077
-34.81498435950255
-33.15480277714199
-33.44777599755856
-33.3501182574197
-33.3501182574197
-33.3501182574197
-32.37354085603113
-31.68993667505913
-27.002365148393988
-23.291371023117417
-24.072632944228275
-17.236591134508277
-12.060730907148852
-13.232623788815136
-3.36919203479057
3.8574807354848555
12.74433508812085
21.24055848020142
19.385061417563133
29.346150911726557
36.67048142214084
35.010299839780274
43.018234531166556
48.78004119935912
53.27229724574655
57.95986877241169
56.88563363088426
60.8896009765774
63.819333180743115
63.13572899977112
65.18654154268711
66.65140764476998
67.23735408560312
68.01861600671397
67.82330052643626
68.79987792782482
69.48348210879682
69.28816662851911
69.38582436865796
69.28816662851911
69.28816662851911
69.28816662851911
69.28816662851911
68.31158922713054
67.53032730601969
67.62798504615854
64.69825284199283
62.45212481879911
60.108339055466544
57.764553292133975
58.25284199282826
54.24887464713512
51.31914244296941
52.002746623941405
47.0222018768597
43.311207751583126
40.28381780727855
37.15877012283513
37.84237430380713
33.838406958113985
30.908674753948272
31.592278934920273
27.588311589227132
24.65857938506142
22.412451361867703
20.068665598535134
20.55695429922942
17.52956435492485
15.381094071869994
15.869382772564279
11.963073167009995
8.935683222705425
5.810635538261997
2.68558785381857
3.36919203479057
-0.537117570763714
-3.466849774929427
-2.783245593957427
-6.787212939650568
-9.71694514381628
-12.84199282825971
-15.967040512703136
-15.283436331731137
-19.18974593728542
-22.119478141451133
-21.533531700617992
-24.4632639047837
-26.709391927977418
-28.076600289921416
-29.63912413214313
-29.346150911726557
-31.2993057145037
-32.764171816586554
-32.471198596169984
-34.424353398947126
-35.889219501029984
-35.49858854047456
-35.596246280613414
-35.596246280613414
-35.49858854047456
-35.49858854047456
-35.49858854047456
-35.49858854047456
-35.49858854047456
-36.475165941863125
-37.15877012283513
-36.96345464255741
-38.91660944533455
-40.38147554741741
-40.08850232700084
-43.018234531166556
-45.16670481422141
-47.51049057755398
-49.85427634088655
-49.365987640192266
-52.295719844357976
-54.44419012741283
-53.95590142671855
-55.03013656824598
-55.713740749217976
-53.66292820630198
-52.19806210421912
-52.49103532463569
-48.584725719081405
-45.55733577477684
-46.240939955748836
-39.40489814602884
-34.22903791866941
-28.66254673075456
-23.19371328297856
-24.365606164644845
-16.45532921339742
-10.595864805065995
-11.865415426871138
-5.908293278400855
-1.513694972152285
3.1738765545128556
7.861448081177996
6.787212939650568
9.912260624093996
12.060730907148852
11.572442206454566
13.623254749370565
15.088120851453422
14.697489890897993
14.795147631036851
14.795147631036851
13.81857022964828
13.037308308537423
13.232623788815136
11.279468986037996
9.81460288395514
8.154421301594567
6.6895551995117115
6.982528419928283
4.052796215762569
1.8066681925688564
2.2949568932631417
-0.537117570763714
-2.783245593957427
-5.127031357289998
-7.470817120622568
-6.982528419928283
-9.912260624093996
-12.158388647287708
-11.670099946593423
-13.623254749370565
-15.088120851453422
-16.650644693675137
-18.21316853589685
-17.920195315480278
-19.87335011825742
-21.338216220340275
-20.947585259784848
-22.998397802700847
-24.4632639047837
-25.049210345616846
-25.830472266727703
-25.63515678644999
-28.564888990615703
-30.811017013809415
-30.22507057297627
-34.22903791866941
-37.15877012283513
-40.28381780727855
-43.40886549172198
-42.62760357061112
-42.822919050888835
-42.72526131074998
-42.72526131074998
-40.86976424811169
-39.307240405889985
-36.768139162279695
-34.52201113908598
-35.010299839780274
-29.150835431448844
-24.65857938506142
-25.63515678644999
-21.63118944075685
-18.701457236591136
-18.40848401617456
-17.52956435492485
-17.627222095063708
-19.58037689784085
-21.045242999923705
-20.654612039368278
-23.58434424353399
-25.830472266727703
-27.1976806286717
-28.857862211032273
-28.467231250476843
-32.37354085603113
-35.303273060196844
-34.61966887922484
-37.64705882352941
-39.79552910658427
-40.28381780727855
-41.065079728389414
-40.86976424811169
-39.99084458686198
-39.20958266575113
-39.307240405889985
-35.49858854047456
-32.471198596169984
-27.392996108949415
-22.803082322423133
-23.87731746395056
-16.943617914091707
-11.767757686732281
-12.939650568398566
-6.005951018539712
-0.8300907911802854
3.662165255207141
8.349736781872283
7.373159380483711
12.353704127565424
15.967040512703136
15.185778591592278
19.18974593728542
22.119478141451133
23.291371023117417
24.95155260547799
24.560921644922562
24.65857938506142
24.65857938506142
24.65857938506142
23.682001983672848
22.90074006256199
21.14290074006256
19.678034637979707
19.971007858396277
17.041275654230564
14.795147631036851
15.283436331731137
12.353704127565424
10.10757610437171
6.787212939650568
3.662165255207141
4.345769436179141
0.43945983062485694
-2.392614633401999
-1.8066681925688564
-5.71297779812314
-8.642710002288853
-11.865415426871138
-14.990463111314565
-14.209201190203707
-17.236591134508277
-19.48271915770199
-18.994430457007706
-20.947585259784848
-22.412451361867703
-23.974975204089418
-25.537499046311133
-25.24452582589456
-27.1976806286717
-28.66254673075456
-28.27191577019913
-30.322728313115128
-31.68993667505913
-33.3501182574197
-34.81498435950255
-34.52201113908598
-36.475165941863125
-37.94003204394598
-37.549401083390556
-39.600213626306555
-41.065079728389414
-42.62760357061112
-44.09246967269398
-43.79949645227741
-45.75265125505455
-47.21751735713741
-46.826886396581976
-47.90112153810941
-48.584725719081405
-48.38941023880369
-48.38941023880369
-48.38941023880369
-48.38941023880369
-48.38941023880369
-48.38941023880369
-46.43625543602655
-44.97138933394369
-44.28778515297169
-43.50652323186084
-43.604180971999696
-41.651026169222554
-40.186160067139696
-40.479133287556266
-37.549401083390556
-35.303273060196844
-32.95948729686427
-30.615701533531702
-31.103990234225986
-27.1976806286717
-24.17029068436713
-24.853894865339132
-18.994430457007706
-14.50217441062028
-6.884870679789426
-0.04882887006942855
-1.513694972152285
8.252079041733426
15.576409552147707
13.916227969787137
24.756237125200276
32.86182955672541
42.529945830472265
51.80743114366369
49.75661860074769
60.694285496299685
68.70222018768597
66.94438086518655
74.95231555657283
80.81177996490425
84.22980086976425
88.23376821545739
87.25719081406882
91.26115815976196
94.19089036392768
93.50728618295567
96.43701838712138
98.58548867017625
99.07377737087053
99.85503929198138
99.65972381170367
98.6831464103151
97.90188448920424
98.09719996948196
97.02296482795452
96.24170290684367
92.62836652170596
89.60097657740138
90.18692301823454
85.20637827115281
81.49538414587624
82.37430380712597
76.41718165865568
71.92492561226825
66.26077668421455
60.79194323643854
61.96383611810483
55.03013656824598
49.85427634088655
51.02616922255284
43.99481193255512
38.91660944533455
34.32669565880827
29.541466392004274
30.615701533531702
23.682001983672848
18.506141756313422
19.678034637979707
13.623254749370565
9.228656443121995
3.5645075150682843
-1.8066681925688564
-0.537117570763714
-10.400549324788281
-17.724879835202564
-16.064698252841993
-27.881284809643702
-36.768139162279695
-45.26436255436027
-53.85824368657969
-51.90508888380255
-59.03410391393912
-64.11230640115969
-62.9404135194934
-66.06546120393683
-68.21393148699168
-66.74906538490883
-66.06546120393683
-66.16311894407569
-63.233386739909974
-61.08491645685512
-61.475547417410546
-57.56923781185626
-54.639505607690545
-54.24887464713512
-53.36995498588541
-53.56527046616312
-55.420767528801406
-56.88563363088426
-56.49500267032883
-58.54581521324483
-59.91302357518883
-60.59662775616083
-61.37788967727169
-61.182574196993976
-61.182574196993976
-61.182574196993976
-61.08491645685512
-61.08491645685512
-61.08491645685512
-60.108339055466544
-59.32707713435569
-59.522392614633404
-56.59266041046769
-54.346532387273975
-54.83482108796826
-48.97535667963683
-44.48310063324941
-36.86579690241855
-30.029755092698558
-31.494621194781413
-21.63118944075685
-14.209201190203707
-15.869382772564279
-6.005951018539712
1.3183794918745708
9.228656443121995
16.943617914091707
15.283436331731137
23.291371023117417
29.150835431448844
27.783627069504846
34.717326619363696
39.893186846723125
42.529945830472265
45.75265125505455
45.069047074082555
47.998779278248264
50.24490730144198
49.75661860074769
50.73319600213626
51.416800183108265
52.19806210421912
52.97932402532997
52.78400854505226
51.90508888380255
51.123826962691695
51.22148470283055
48.38941023880369
46.14328221560998
42.72526131074998
39.69787136644541
40.38147554741741
34.424353398947126
30.029755092698558
31.00633249408713
22.21713588158999
15.576409552147707
7.470817120622568
-0.24414435034714274
1.416037232013428
-8.44739452201114
-15.771725032425422
-14.11154345006485
-23.974975204089418
-31.396963454642556
-38.33066300450141
-45.362020294499125
-43.79949645227741
-50.73319600213626
-55.90905622949569
-54.7371633478294
-58.74113069352254
-61.67086289768826
-63.91699092088197
-66.26077668421455
-65.6748302433814
-66.74906538490883
-67.43266956588083
-67.23735408560312
-67.23735408560312
-67.23735408560312
-67.23735408560312
-67.13969634546426
-67.13969634546426
-68.11627374685283
-68.79987792782482
-68.60456244754711
-68.60456244754711
-68.60456244754711
-69.58113984893568
-70.26474402990769
-70.06942854962998
-72.02258335240711
-73.48744945448996
-73.09681849393453
-74.07339589532312
-74.85465781643397
-75.63591973754482
-76.31952391851682
-76.12420843823911
-75.2452887769894
-74.46402685587854
-74.5616845960174
-73.58510719462882
-72.80384527351796
-71.04600595101854
-69.48348210879682
-69.77645532921339
-66.84672312504769
-64.60059510185397
-65.08888380254825
-62.061493858243686
-59.91302357518883
-56.49500267032883
-53.467612726024264
-54.053559166857404
-50.14724956130312
-47.11985961699855
-47.80346379797055
-42.822919050888835
-39.11192492561227
-33.252460517280845
-27.881284809643702
-29.053177691309987
-22.119478141451133
-16.943617914091707
-18.11551079575799
-11.181811245899137
-6.005951018539712
-0.43945983062485694
4.834058136873426
3.662165255207141
9.619287403677424
14.013885709925994
13.037308308537423
17.13893339436942
19.971007858396277
22.21713588158999
24.560921644922562
24.072632944228275
26.123445487144274
27.49065384908827
27.1976806286717
27.295338368810558
27.1976806286717
26.318760967421987
25.537499046311133
25.63515678644999
24.65857938506142
23.974975204089418
24.072632944228275
21.14290074006256
18.994430457007706
14.697489890897993
10.888838025482567
11.670099946593423
5.810635538261997
1.3183794918745708
2.2949568932631417
-2.5879301136797133
-6.201266498817426
-10.205233844510566
-14.11154345006485
-13.232623788815136
-17.236591134508277
-20.16632333867399
-19.48271915770199
-21.533531700617992
-22.998397802700847
-23.58434424353399
-24.365606164644845
-24.17029068436713
-26.123445487144274
-27.588311589227132
-27.295338368810558
-32.08056763561456
-35.79156176089113
-38.818951705195694
-41.943999389639124
-41.26039520866713
-43.311207751583126
-44.67841611352712
-44.38544289311055
-45.362020294499125
-46.14328221560998
-43.99481193255512
-42.529945830472265
-42.822919050888835
-38.91660944533455
-35.98687724116884
