ppg
13.232623788815136
13.037308308537423
13.037308308537423
13.037308308537423
12.060730907148852
11.377126726176853
11.47478446631571
9.521629663538567
8.05676356145571
8.44739452201114
5.420004577706569
3.2715342946517127
0.8300907911802854
-1.3183794918745708
-0.8300907911802854
-2.8809033340962844
-4.345769436179141
-3.9551384756237127
-6.982528419928283
-9.130998702983138
-10.595864805065995
-12.158388647287708
-11.767757686732281
-13.81857022964828
-15.283436331731137
-14.892805371175708
-15.967040512703136
-16.650644693675137
-18.40848401617456
-19.87335011825742
-19.58037689784085
-20.55695429922942
-21.338216220340275
-21.14290074006256
-22.119478141451133
-22.90074006256199
-24.560921644922562
-26.123445487144274
-25.732814526588847
-26.807049668116274
-27.49065384908827
-27.295338368810558
-29.2484931715877
-30.71335927367056
-33.252460517280845
-35.596246280613414
-35.010299839780274
-37.06111238269627
-38.525978484779124
-38.1353475242237
-40.08850232700084
-41.5533684290837
-44.09246967269398
-46.43625543602655
-45.85030899519341
-47.90112153810941
-49.365987640192266
-48.97535667963683
-51.90508888380255
-54.053559166857404
-55.51842526894026
-57.08094911116198
-56.690318150606544
-58.643472953383686
-60.108339055466544
-59.815365835049974
-60.79194323643854
-61.475547417410546
-60.401312275883114
-59.62005035477226
-59.815365835049974
-56.88563363088426
-54.639505607690545
-55.127794308384836
-49.26832990005341
-44.77607385366598
-38.1353475242237
-31.9829098954757
-33.3501182574197
-24.365606164644845
-17.82253757534142
-19.287403677424276
-10.302891584649425
-3.662165255207141
2.392614633401999
8.642710002288853
7.275501640344854
13.232623788815136
17.627222095063708
16.650644693675137
21.63118944075685
25.342183566033416
27.392996108949415
29.736781872281988
29.2484931715877
30.322728313115128
31.00633249408713
30.811017013809415
31.787594415197987
32.56885633630884
32.37354085603113
32.37354085603113
32.37354085603113
32.37354085603113
32.37354085603113
32.37354085603113
31.396963454642556
30.615701533531702
29.834439612420844
29.053177691309987
29.150835431448844
27.1976806286717
25.732814526588847
26.025787747005417
24.072632944228275
22.60776684214542
20.068665598535134
17.724879835202564
18.21316853589685
14.306858930342566
11.377126726176853
12.060730907148852
9.033340962844282
6.787212939650568
3.466849774929427
0.43945983062485694
1.1230640115968566
-1.8066681925688564
-4.052796215762569
-3.5645075150682843
-7.470817120622568
-10.400549324788281
-12.646677347981994
-14.990463111314565
-14.50217441062028
-20.263981078812847
-24.756237125200276
-23.682001983672848
-31.592278934920273
-37.4517433432517
-42.822919050888835
-48.291752498664835
-47.0222018768597
-51.123826962691695
-54.053559166857404
-53.36995498588541
-55.420767528801406
-56.88563363088426
-54.54184786755169
-53.17463950560769
-53.467612726024264
-49.56130312046998
-46.533913176165406
-47.21751735713741
-43.21355001144427
-40.28381780727855
-39.014267185473415
-37.35408560311284
-37.74471656366827
-38.62363622491798
-39.307240405889985
-39.11192492561227
-39.20958266575113
-39.20958266575113
-38.23300526436255
-37.4517433432517
-37.549401083390556
-36.57282368200198
-35.889219501029984
-35.98687724116884
-34.0337224383917
-32.56885633630884
-30.029755092698558
-27.68596932936599
-28.174258030060273
-23.291371023117417
-19.58037689784085
-20.45929655909056
-13.525597009231708
-8.349736781872283
-2.8809033340962844
2.490272373540856
1.3183794918745708
8.252079041733426
13.427939269092851
12.256046387426567
18.21316853589685
22.60776684214542
26.416418707560844
30.322728313115128
29.443808651865414
34.424353398947126
38.03768978408484
37.256427862973986
40.28381780727855
42.43228809033341
45.75265125505455
48.78004119935912
48.09643701838712
51.123826962691695
53.27229724574655
52.78400854505226
54.83482108796826
56.20202944991226
58.74113069352254
61.08491645685512
60.49897001602197
62.54978255893797
63.91699092088197
63.6240177004654
65.57717250324254
67.0420386053254
68.60456244754711
70.06942854962998
69.77645532921339
71.72961013199054
73.19447623407339
72.80384527351796
72.90150301365682
72.80384527351796
72.80384527351796
72.80384527351796
72.70618753337911
69.87411306935225
67.62798504615854
68.11627374685283
65.08888380254825
62.84275577935454
58.54581521324483
54.7371633478294
55.51842526894026
49.658960860608836
45.16670481422141
46.14328221560998
41.16273746852827
37.4517433432517
33.545433737697415
29.63912413214313
30.420386053253985
27.392996108949415
25.24452582589456
25.63515678644999
23.682001983672848
22.21713588158999
20.55695429922942
18.994430457007706
19.385061417563133
18.310826276035705
17.627222095063708
17.724879835202564
17.724879835202564
17.724879835202564
16.748302433813993
15.967040512703136
16.16235599298085
15.185778591592278
14.404516670481422
14.599832150759136
12.646677347981994
11.181811245899137
8.642710002288853
6.298924238956283
6.787212939650568
2.8809033340962844
0.04882887006942855
0.6347753109025711
-4.248111696040284
-7.861448081177996
-9.912260624093996
-12.353704127565424
-11.767757686732281
-14.795147631036851
-16.943617914091707
-16.45532921339742
-16.55298695353628
-16.55298695353628
-14.697489890897993
-13.13496604867628
-13.525597009231708
-9.619287403677424
-6.591897459372854
-7.275501640344854
-2.392614633401999
1.2207217517357138
5.127031357289998
9.033340962844282
8.154421301594567
14.11154345006485
18.506141756313422
17.52956435492485
21.533531700617992
24.4632639047837
27.68596932936599
30.71335927367056
30.029755092698558
32.08056763561456
33.545433737697415
33.252460517280845
34.22903791866941
34.91264209964141
34.717326619363696
34.81498435950255
34.81498435950255
33.838406958113985
33.05714503700313
33.252460517280845
30.322728313115128
28.076600289921416
25.732814526588847
23.389028763256274
23.87731746395056
20.84992751964599
18.701457236591136
19.18974593728542
15.185778591592278
12.256046387426567
9.130998702983138
6.005951018539712
6.6895551995117115
2.68558785381857
-0.14648661020828566
0.43945983062485694
-3.466849774929427
-6.39658197909514
-8.642710002288853
-10.986495765621424
-10.498207064927138
-14.404516670481422
-17.334248874647134
-16.650644693675137
-18.701457236591136
-20.16632333867399
-22.705424582284277
-24.95155260547799
-24.4632639047837
-27.392996108949415
-29.63912413214313
-29.150835431448844
-34.91264209964141
-39.40489814602884
-43.11589227130541
-47.11985961699855
-46.14328221560998
-49.26832990005341
-51.416800183108265
-50.928511482413974
-51.02616922255284
-50.928511482413974
-48.09643701838712
-45.85030899519341
-46.33859769588769
-42.33463035019455
-39.40489814602884
-40.08850232700084
-36.0845349813077
-33.15480277714199
-31.885252155336843
-30.22507057297627
-30.615701533531702
-32.37354085603113
-33.838406958113985
-33.545433737697415
-34.52201113908598
-35.303273060196844
-36.0845349813077
-36.86579690241855
-36.67048142214084
-37.64705882352941
-38.33066300450141
-38.1353475242237
-39.11192492561227
-39.893186846723125
-38.72129396505684
-38.03768978408484
-38.1353475242237
-37.15877012283513
-36.37750820172427
-36.57282368200198
-32.6665140764477
-29.736781872281988
-25.63515678644999
-21.728847180895706
-22.60776684214542
-17.627222095063708
-13.916227969787137
-14.795147631036851
-8.838025482566568
-4.443427176317998
0.24414435034714274
4.931715877012284
3.8574807354848555
9.81460288395514
14.209201190203707
13.232623788815136
18.21316853589685
21.92416266117342
24.853894865339132
28.076600289921416
27.295338368810558
31.2993057145037
34.22903791866941
33.545433737697415
35.596246280613414
37.06111238269627
37.64705882352941
38.42832074464027
38.23300526436255
37.35408560311284
36.57282368200198
36.768139162279695
33.838406958113985
31.592278934920273
29.2484931715877
26.90470740825513
27.392996108949415
23.389028763256274
20.45929655909056
21.14290074006256
17.13893339436942
14.209201190203707
11.963073167009995
9.619287403677424
10.10757610437171
9.033340962844282
8.349736781872283
8.545052262149996
7.470817120622568
6.787212939650568
6.005951018539712
5.224689097428855
5.420004577706569
5.322346837567712
5.322346837567712
5.322346837567712
5.322346837567712
5.322346837567712
5.322346837567712
5.322346837567712
5.322346837567712
4.345769436179141
3.662165255207141
3.7598229953459983
1.8066681925688564
0.34180209048599985
-1.1230640115968566
-2.68558785381857
-2.2949568932631417
-5.224689097428855
-7.470817120622568
-6.982528419928283
-9.033340962844282
-10.498207064927138
-12.060730907148852
-13.623254749370565
-13.232623788815136
-16.16235599298085
-18.40848401617456
-17.920195315480278
-19.87335011825742
-21.338216220340275
-22.90074006256199
-24.4632639047837
-24.17029068436713
-26.123445487144274
-27.588311589227132
-27.1976806286717
-28.27191577019913
-28.95551995117113
-29.736781872281988
-30.518043793392845
-30.322728313115128
-31.2993057145037
-32.08056763561456
-31.885252155336843
-32.86182955672541
-33.545433737697415
-33.44777599755856
-33.44777599755856
-33.44777599755856
-33.44777599755856
-33.3501182574197
-33.3501182574197
-30.518043793392845
-28.27191577019913
-24.95155260547799
-21.826504921034562
-22.510109102006563
-16.650644693675137
-12.256046387426567
-13.232623788815136
-6.298924238956283
-1.1230640115968566
3.36919203479057
8.05676356145571
6.982528419928283
12.939650568398566
17.334248874647134
16.357671473258563
20.45929655909056
23.291371023117417
25.537499046311133
27.881284809643702
27.392996108949415
28.467231250476843
29.150835431448844
28.95551995117113
29.9320973525597
30.71335927367056
30.518043793392845
30.518043793392845
30.518043793392845
29.541466392004274
28.760204470893417
28.95551995117113
27.97894254978256
27.1976806286717
25.439841306172273
23.87731746395056
24.267948424505988
22.21713588158999
20.752269779507134
21.14290074006256
19.092088197146563
17.627222095063708
16.064698252841993
14.50217441062028
14.795147631036851
11.865415426871138
9.71694514381628
10.205233844510566
7.177843900205997
5.0293736171511405
2.5879301136797133
0.24414435034714274
0.8300907911802854
-4.052796215762569
-7.666132600900283
-6.884870679789426
-13.720912489509422
-18.89677271686885
-22.510109102006563
-26.514076447699704
-25.537499046311133
-27.68596932936599
-29.150835431448844
-28.760204470893417
-27.881284809643702
-27.100022888532845
-23.48668650339513
-20.45929655909056
-21.14290074006256
-15.185778591592278
-10.79118028534371
-11.767757686732281
-6.787212939650568
-3.076218814373999
-2.0019836728465705
-0.34180209048599985
-0.7324330510414282
-2.5879301136797133
-4.052796215762569
-3.7598229953459983
-6.6895551995117115
-8.838025482566568
-11.181811245899137
-13.525597009231708
-13.037308308537423
-15.967040512703136
-18.21316853589685
-17.724879835202564
-21.63118944075685
-24.560921644922562
-26.807049668116274
-29.150835431448844
-28.564888990615703
-31.592278934920273
-33.74074921797513
-33.252460517280845
-34.32669565880827
-35.010299839780274
-34.81498435950255
-34.91264209964141
-34.91264209964141
-31.9829098954757
-29.736781872281988
-30.22507057297627
-24.365606164644845
-19.971007858396277
-15.185778591592278
-10.498207064927138
-11.572442206454566
-3.662165255207141
2.0996414129854277
0.8300907911802854
7.763790341039139
12.939650568398566
17.52956435492485
22.21713588158999
21.14290074006256
26.123445487144274
29.736781872281988
28.95551995117113
31.9829098954757
34.131380178530556
35.596246280613414
37.15877012283513
36.768139162279695
37.84237430380713
38.525978484779124
38.33066300450141
37.4517433432517
36.67048142214084
34.91264209964141
33.3501182574197
33.74074921797513
30.811017013809415
28.564888990615703
29.053177691309987
26.025787747005417
23.87731746395056
20.45929655909056
17.43190661478599
18.11551079575799
14.11154345006485
11.181811245899137
11.865415426871138
8.838025482566568
6.591897459372854
3.2715342946517127
0.14648661020828566
0.8300907911802854
-1.1230640115968566
-2.490272373540856
-2.197299153124285
-5.127031357289998
-7.373159380483711
-8.74036774242771
-10.400549324788281
-10.009918364232853
-11.963073167009995
-13.427939269092851
-13.13496604867628
-14.11154345006485
-14.892805371175708
-16.650644693675137
-18.11551079575799
-17.82253757534142
-18.799114976729992
-19.48271915770199
-19.385061417563133
-20.361638818951704
-21.045242999923705
-21.826504921034562
-22.60776684214542
-22.412451361867703
-24.365606164644845
-25.830472266727703
-25.537499046311133
-26.514076447699704
-27.295338368810558
-28.95551995117113
-30.518043793392845
-30.127412832837415
-31.201647974364842
-31.885252155336843
-31.68993667505913
-32.6665140764477
-33.44777599755856
-34.22903791866941
-35.010299839780274
-34.81498435950255
-35.79156176089113
-36.475165941863125
-36.37750820172427
-37.35408560311284
-38.03768978408484
-37.84237430380713
-37.84237430380713
-37.84237430380713
-37.84237430380713
-37.84237430380713
-37.84237430380713
-37.84237430380713
-37.84237430380713
-36.86579690241855
-36.0845349813077
-36.27985046158541
-34.32669565880827
-32.764171816586554
-33.15480277714199
-29.2484931715877
-26.22110322728313
-23.096055542839704
-19.971007858396277
-20.654612039368278
-15.674067292286564
-12.060730907148852
-12.84199282825971
-8.838025482566568
-5.908293278400855
-1.8066681925688564
2.0019836728465705
1.1230640115968566
4.150453955901427
6.39658197909514
5.908293278400855
7.861448081177996
9.326314183260854
10.888838025482567
12.45136186770428
12.158388647287708
13.13496604867628
13.916227969787137
13.720912489509422
13.720912489509422
13.720912489509422
13.720912489509422
13.720912489509422
13.720912489509422
11.865415426871138
10.302891584649425
10.693522545204852
9.619287403677424
8.935683222705425
7.177843900205997
5.615320057984283
6.005951018539712
3.9551384756237127
2.490272373540856
2.783245593957427
0.8300907911802854
-0.537117570763714
-2.0996414129854277
-3.662165255207141
-3.2715342946517127
-8.154421301594567
-11.865415426871138
-11.08415350576028
-17.920195315480278
-23.096055542839704
-27.588311589227132
-32.37354085603113
-31.2993057145037
-35.303273060196844
-38.23300526436255
-37.549401083390556
-38.62363622491798
-39.307240405889985
-38.23300526436255
-37.4517433432517
-37.64705882352941
-34.717326619363696
-32.471198596169984
-32.95948729686427
-30.029755092698558
-27.783627069504846
-27.295338368810558
-26.416418707560844
-26.61173418783856
-27.588311589227132
-28.27191577019913
-28.076600289921416
-29.053177691309987
-29.834439612420844
-29.63912413214313
-29.63912413214313
-29.63912413214313
-29.63912413214313
-29.63912413214313
-29.63912413214313
-29.63912413214313
-29.63912413214313
-29.63912413214313
-29.541466392004274
-29.541466392004274
-29.541466392004274
-29.541466392004274
-29.541466392004274
-29.541466392004274
-29.541466392004274
-29.541466392004274
-29.541466392004274
-29.541466392004274
-28.564888990615703
-27.783627069504846
-27.97894254978256
-26.025787747005417
-24.4632639047837
-22.90074006256199
-21.338216220340275
-21.728847180895706
-16.84596017395285
-13.13496604867628
-13.916227969787137
-9.033340962844282
-5.322346837567712
-0.43945983062485694
4.150453955901427
3.076218814373999
9.033340962844282
13.427939269092851
12.45136186770428
18.40848401617456
22.803082322423133
25.63515678644999
28.857862211032273
28.076600289921416
31.103990234225986
33.3501182574197
32.86182955672541
34.81498435950255
36.27985046158541
35.98687724116884
35.98687724116884
35.98687724116884
35.010299839780274
34.22903791866941
34.424353398947126
32.471198596169984
31.00633249408713
28.467231250476843
26.123445487144274
26.61173418783856
22.705424582284277
19.678034637979707
20.361638818951704
15.47875181200885
11.767757686732281
8.74036774242771
5.615320057984283
6.298924238956283
2.2949568932631417
-0.537117570763714
0.04882887006942855
-2.8809033340962844
-5.0293736171511405
-6.494239719233997
-8.05676356145571
-7.763790341039139
-8.74036774242771
-9.521629663538567
-9.326314183260854
-9.326314183260854
-9.326314183260854
-8.349736781872283
-7.666132600900283
-7.763790341039139
-7.763790341039139
-7.763790341039139
-7.763790341039139
-7.763790341039139
-7.763790341039139
-7.763790341039139
-7.763790341039139
-7.763790341039139
-7.763790341039139
-7.763790341039139
-7.763790341039139
-8.642710002288853
-9.42397192339971
-10.205233844510566
-10.986495765621424
-10.79118028534371
-11.767757686732281
-12.549019607843137
-12.353704127565424
-14.306858930342566
-15.771725032425422
-15.47875181200885
-15.47875181200885
-15.47875181200885
-16.45532921339742
-17.13893339436942
-17.041275654230564
-17.041275654230564
-17.041275654230564
-18.017853055619135
-18.701457236591136
-18.506141756313422
-18.60379949645228
-18.60379949645228
-18.60379949645228
-18.60379949645228
-18.506141756313422
-17.627222095063708
-16.84596017395285
-17.041275654230564
-15.967040512703136
-15.283436331731137
-15.381094071869994
-11.572442206454566
-8.642710002288853
-5.420004577706569
-2.2949568932631417
-2.9785610742351416
2.783245593957427
7.177843900205997
6.201266498817426
12.158388647287708
16.55298695353628
22.21713588158999
27.68596932936599
26.416418707560844
32.471198596169984
36.86579690241855
35.79156176089113
40.772106507972836
44.48310063324941
46.533913176165406
48.877698939497975
48.38941023880369
51.31914244296941
53.467612726024264
52.97932402532997
54.053559166857404
54.7371633478294
54.54184786755169
54.54184786755169
54.54184786755169
53.56527046616312
52.78400854505226
52.97932402532997
52.002746623941405
51.22148470283055
49.46364538033112
47.90112153810941
48.291752498664835
47.21751735713741
46.43625543602655
46.63157091630426
44.67841611352712
43.11589227130541
41.5533684290837
39.99084458686198
40.28381780727855
37.35408560311284
35.10795757991913
35.596246280613414
30.71335927367056
27.002365148393988
23.096055542839704
19.18974593728542
20.068665598535134
17.920195315480278
16.45532921339742
16.748302433813993
17.627222095063708
18.40848401617456
20.16632333867399
21.63118944075685
21.338216220340275
25.24452582589456
28.174258030060273
27.49065384908827
30.518043793392845
32.6665140764477
32.178225375753414
32.27588311589227
32.27588311589227
30.322728313115128
28.857862211032273
29.150835431448844
26.22110322728313
23.974975204089418
23.48668650339513
22.705424582284277
22.803082322423133
20.84992751964599
19.385061417563133
19.678034637979707
17.724879835202564
16.260013733119706
14.697489890897993
13.13496604867628
13.427939269092851
11.47478446631571
10.009918364232853
10.302891584649425
10.205233844510566
10.205233844510566
9.326314183260854
8.545052262149996
8.74036774242771
9.619287403677424
10.400549324788281
10.205233844510566
11.181811245899137
11.963073167009995
13.623254749370565
15.185778591592278
14.795147631036851
17.724879835202564
19.971007858396277
19.48271915770199
23.389028763256274
26.318760967421987
29.541466392004274
32.56885633630884
31.885252155336843
35.889219501029984
38.818951705195694
38.1353475242237
42.04165712977798
44.97138933394369
48.19409475852598
51.22148470283055
50.53788052185855
54.54184786755169
57.37392233157855
56.7879758907454
58.74113069352254
60.2059967956054
62.745098039215684
64.9912260624094
64.50293736171511
66.45609216449226
67.92095826657511
67.62798504615854
68.60456244754711
69.28816662851911
70.06942854962998
70.85069047074083
70.65537499046312
70.65537499046312
70.65537499046312
70.55771725032426
70.55771725032426
70.55771725032426
68.60456244754711
67.13969634546426
67.43266956588083
64.50293736171511
62.2568093385214
62.745098039215684
58.74113069352254
55.81139848935683
51.61211566338598
47.80346379797055
48.584725719081405
43.604180971999696
39.99084458686198
40.772106507972836
36.768139162279695
33.838406958113985
30.615701533531702
27.49065384908827
28.174258030060273
24.17029068436713
21.24055848020142
21.92416266117342
18.89677271686885
16.650644693675137
15.283436331731137
13.623254749370565
14.013885709925994
12.060730907148852
10.595864805065995
10.888838025482567
7.959105821316854
5.71297779812314
4.345769436179141
2.68558785381857
3.076218814373999
0.14648661020828566
-2.0019836728465705
-1.513694972152285
-4.443427176317998
-6.6895551995117115
-10.009918364232853
-13.037308308537423
-12.353704127565424
-17.334248874647134
-20.947585259784848
-20.16632333867399
-24.17029068436713
-27.100022888532845
-30.22507057297627
-33.3501182574197
-32.6665140764477
-37.549401083390556
-41.26039520866713
-40.38147554741741
-43.40886549172198
-45.654993514915695
-47.998779278248264
-50.24490730144198
-49.75661860074769
-51.80743114366369
-53.17463950560769
-52.881666285191116
-52.881666285191116
-52.881666285191116
-50.04959182116426
-47.80346379797055
-48.291752498664835
-43.311207751583126
-39.600213626306555
-40.479133287556266
-34.52201113908598
-30.127412832837415
-24.365606164644845
-18.994430457007706
-20.16632333867399
-14.209201190203707
-9.81460288395514
-10.693522545204852
-4.834058136873426
-0.34180209048599985
3.2715342946517127
7.275501640344854
6.39658197909514
10.400549324788281
13.330281528953995
12.646677347981994
14.697489890897993
16.16235599298085
17.724879835202564
19.287403677424276
18.89677271686885
19.971007858396277
20.654612039368278
20.45929655909056
20.55695429922942
20.55695429922942
19.58037689784085
18.799114976729992
18.994430457007706
17.041275654230564
15.576409552147707
15.869382772564279
13.916227969787137
12.353704127565424
9.81460288395514
7.568474860761425
8.05676356145571
3.1738765545128556
-0.43945983062485694
0.34180209048599985
-7.373159380483711
-13.330281528953995
-19.678034637979707
-25.830472266727703
-24.4632639047837
-28.564888990615703
-31.494621194781413
-30.811017013809415
-32.86182955672541
-34.32669565880827
-33.93606469825284
-34.0337224383917
-34.0337224383917
-32.08056763561456
-30.615701533531702
-30.908674753948272
-28.95551995117113
-27.49065384908827
-27.783627069504846
-27.68596932936599
-27.68596932936599
-30.518043793392845
-32.764171816586554
-32.27588311589227
-34.22903791866941
-35.69390402075227
-37.256427862973986
-38.818951705195694
-38.525978484779124
-39.5025558861677
-40.186160067139696
-40.08850232700084
-41.065079728389414
-41.74868390936141
-42.529945830472265
-43.311207751583126
-43.11589227130541
-43.11589227130541
-43.11589227130541
-43.11589227130541
-43.99481193255512
-44.77607385366598
-44.580758373388264
-44.580758373388264
-44.580758373388264
-44.580758373388264
-44.580758373388264
-44.580758373388264
-45.45967803463798
-46.240939955748836
-46.04562447547112
-46.04562447547112
-46.04562447547112
-46.04562447547112
-46.04562447547112
-45.947966735332265
-44.09246967269398
-42.529945830472265
-39.99084458686198
-37.74471656366827
-38.23300526436255
-34.22903791866941
-31.2993057145037
-31.9829098954757
-26.025787747005417
-21.63118944075685
-16.84596017395285
-12.158388647287708
-13.232623788815136
-7.275501640344854
-2.8809033340962844
-3.8574807354848555
1.0254062714579995
4.736400396734569
7.763790341039139
10.888838025482567
10.205233844510566
14.11154345006485
17.041275654230564
16.45532921339742
18.506141756313422
19.87335011825742
21.533531700617992
22.998397802700847
22.705424582284277
23.682001983672848
24.4632639047837
24.267948424505988
24.267948424505988
24.267948424505988
24.267948424505988
24.267948424505988
24.267948424505988
22.314793621728846
20.84992751964599
21.14290074006256
19.18974593728542
17.724879835202564
15.185778591592278
12.84199282825971
13.330281528953995
10.400549324788281
8.154421301594567
8.642710002288853
5.71297779812314
3.466849774929427
1.1230640115968566
-1.1230640115968566
-0.6347753109025711
-3.5645075150682843
-5.810635538261997
-5.322346837567712
-8.252079041733426
-10.498207064927138
-12.84199282825971
-15.185778591592278
-14.697489890897993
-17.627222095063708
-19.87335011825742
-19.287403677424276
-22.314793621728846
-24.4632639047837
-25.92813000686656
-27.49065384908827
-27.100022888532845
-28.174258030060273
-28.857862211032273
-28.66254673075456
-29.63912413214313
-30.420386053253985
-30.22507057297627
-30.22507057297627
-30.22507057297627
-31.201647974364842
-31.885252155336843
-31.787594415197987
-31.787594415197987
-31.787594415197987
-30.811017013809415
-30.029755092698558
-30.22507057297627
-29.2484931715877
-28.467231250476843
-28.564888990615703
-28.564888990615703
-28.564888990615703
-29.541466392004274
-30.22507057297627
-30.029755092698558
-30.127412832837415
-30.029755092698558
-30.029755092698558
-30.029755092698558
-30.029755092698558
-30.029755092698558
-30.029755092698558
-30.029755092698558
-28.076600289921416
-26.61173418783856
-26.90470740825513
-22.998397802700847
-20.068665598535134
-14.990463111314565
-10.400549324788281
-11.377126726176853
-4.443427176317998
0.537117570763714
-0.43945983062485694
8.252079041733426
14.892805371175708
22.021820401312276
29.053177691309987
27.392996108949415
35.4009308003357
41.26039520866713
39.99084458686198
46.92454413672083
52.002746623941405
56.59266041046769
61.28023193713283
60.2059967956054
64.3076218814374
67.13969634546426
66.45609216449226
68.50690470740825
69.9717708094911
70.55771725032426
71.33897917143511
71.1436636911574
69.28816662851911
67.7256427862974
68.01861600671397
66.06546120393683
64.60059510185397
61.08491645685512
57.95986877241169
58.643472953383686
52.78400854505226
48.291752498664835
49.26832990005341
40.479133287556266
33.838406958113985
26.709391927977418
19.678034637979707
21.24055848020142
16.064698252841993
12.45136186770428
13.232623788815136
11.181811245899137
9.71694514381628
10.986495765621424
11.670099946593423
11.47478446631571
14.404516670481422
16.55298695353628
16.064698252841993
18.11551079575799
19.58037689784085
19.18974593728542
19.287403677424276
19.287403677424276
16.45532921339742
14.209201190203707
14.697489890897993
11.670099946593423
9.521629663538567
8.05676356145571
6.494239719233997
6.787212939650568
3.8574807354848555
1.7090104524299992
2.197299153124285
0.14648661020828566
-1.2207217517357138
-3.7598229953459983
-6.103608758678568
-5.517662317845426
-7.568474860761425
-9.033340962844282
-8.74036774242771
-11.670099946593423
-13.81857022964828
-16.260013733119706
-18.506141756313422
-18.017853055619135
-21.92416266117342
-24.853894865339132
-24.267948424505988
-27.1976806286717
-29.443808651865414
-30.811017013809415
-32.37354085603113
-32.08056763561456
-33.05714503700313
-33.74074921797513
-33.64309147783627
-32.6665140764477
-31.885252155336843
-29.2484931715877
-26.90470740825513
-27.392996108949415
-23.48668650339513
-20.55695429922942
-21.14290074006256
-15.283436331731137
-10.888838025482567
-6.103608758678568
-1.416037232013428
-2.490272373540856
4.345769436179141
9.42397192339971
8.349736781872283
16.16235599298085
22.119478141451133
27.49065384908827
32.95948729686427
31.68993667505913
38.62363622491798
43.79949645227741
42.62760357061112
48.584725719081405
52.97932402532997
55.81139848935683
58.936446173800256
58.25284199282826
61.28023193713283
63.42870222018769
62.9404135194934
63.03807125963226
62.9404135194934
61.96383611810483
61.182574196993976
61.37788967727169
60.401312275883114
59.62005035477226
59.71770809491112
57.764553292133975
56.29968719005112
54.7371633478294
53.07698176546884
53.467612726024264
51.416800183108265
49.951934081025406
50.24490730144198
48.291752498664835
46.826886396581976
44.19012741283284
41.943999389639124
42.43228809033341
39.40489814602884
37.256427862973986
37.64705882352941
34.717326619363696
32.471198596169984
28.174258030060273
24.365606164644845
25.24452582589456
21.24055848020142
18.21316853589685
18.89677271686885
14.013885709925994
10.302891584649425
7.275501640344854
4.150453955901427
4.834058136873426
0.8300907911802854
-2.0019836728465705
-1.3183794918745708
-4.345769436179141
-6.494239719233997
-8.935683222705425
-11.279468986037996
-10.693522545204852
-12.74433508812085
-14.209201190203707
-13.81857022964828
-15.869382772564279
-17.334248874647134
-18.89677271686885
-20.45929655909056
-20.068665598535134
-22.021820401312276
-23.48668650339513
-23.19371328297856
-24.17029068436713
-24.95155260547799
-26.709391927977418
-28.174258030060273
-27.881284809643702
-29.834439612420844
-31.2993057145037
-30.908674753948272
-31.9829098954757
-32.6665140764477
-32.471198596169984
-32.56885633630884
-32.471198596169984
-32.471198596169984
-32.471198596169984
-32.471198596169984
-30.518043793392845
-29.053177691309987
-26.514076447699704
-24.17029068436713
-24.756237125200276
-19.775692378118563
-16.16235599298085
-16.943617914091707
-11.963073167009995
-8.252079041733426
-4.345769436179141
-0.43945983062485694
-1.3183794918745708
3.5645075150682843
7.275501640344854
6.39658197909514
10.400549324788281
13.330281528953995
16.45532921339742
19.58037689784085
18.89677271686885
21.92416266117342
24.072632944228275
23.58434424353399
26.61173418783856
28.760204470893417
30.22507057297627
31.787594415197987
31.396963454642556
32.471198596169984
33.15480277714199
32.95948729686427
33.93606469825284
34.717326619363696
33.545433737697415
32.86182955672541
32.95948729686427
30.029755092698558
27.881284809643702
28.369573510337986
21.533531700617992
16.357671473258563
10.79118028534371
5.322346837567712
6.591897459372854
1.513694972152285
-2.0019836728465705
-1.2207217517357138
-3.2715342946517127
-4.736400396734569
-4.443427176317998
-4.541084916456855
-4.541084916456855
-0.6347753109025711
2.197299153124285
1.513694972152285
4.541084916456855
6.787212939650568
7.177843900205997
8.05676356145571
7.861448081177996
6.005951018539712
4.541084916456855
4.834058136873426
1.9043259327077133
-0.24414435034714274
-3.5645075150682843
-6.591897459372854
-5.908293278400855
-9.912260624093996
-12.84199282825971
-12.158388647287708
-17.13893339436942
-20.752269779507134
-23.779659723811704
-26.90470740825513
-26.22110322728313
-31.103990234225986
-34.81498435950255
-33.93606469825284
-37.94003204394598
-40.86976424811169
-43.99481193255512
-47.11985961699855
-46.43625543602655
-50.34256504158083
-53.27229724574655
-52.6863508049134
-55.61608300907912
-57.764553292133975
-59.22941939421683
-60.79194323643854
-60.401312275883114
-62.35446707866026
-63.819333180743115
-63.526359960326545
-63.526359960326545
-63.526359960326545
-63.526359960326545
-63.42870222018769
-63.42870222018769
-60.59662775616083
-58.350499732967116
-58.8387884336614
-54.83482108796826
-51.90508888380255
-47.705806057831694
-43.89715419241627
-44.67841611352712
-38.818951705195694
-34.32669565880827
-35.303273060196844
-29.346150911726557
-24.95155260547799
-20.16632333867399
-15.47875181200885
-16.55298695353628
-11.572442206454566
-7.861448081177996
-8.642710002288853
-4.638742656595713
-1.7090104524299992
1.3183794918745708
4.443427176317998
3.7598229953459983
6.787212939650568
8.935683222705425
8.44739452201114
10.498207064927138
11.963073167009995
12.549019607843137
13.330281528953995
13.13496604867628
13.232623788815136
13.232623788815136
13.232623788815136
13.232623788815136
13.232623788815136
11.279468986037996
9.81460288395514
10.10757610437171
9.130998702983138
8.349736781872283
8.545052262149996
5.615320057984283
3.36919203479057
2.0019836728465705
0.34180209048599985
0.7324330510414282
-2.0996414129854277
-4.345769436179141
-3.8574807354848555
-6.787212939650568
-9.033340962844282
-11.377126726176853
-13.720912489509422
-13.13496604867628
-16.16235599298085
-18.310826276035705
-17.82253757534142
-19.87335011825742
-21.338216220340275
-22.90074006256199
-24.4632639047837
-24.072632944228275
-26.123445487144274
-27.588311589227132
-27.1976806286717
-29.150835431448844
-30.615701533531702
-31.2993057145037
-32.08056763561456
-31.885252155336843
-32.86182955672541
-33.545433737697415
-33.44777599755856
-34.424353398947126
-35.10795757991913
-35.889219501029984
-36.67048142214084
-36.475165941863125
-37.4517433432517
-38.1353475242237
-38.03768978408484
-38.03768978408484
-38.03768978408484
-38.03768978408484
-37.94003204394598
-37.94003204394598
-38.91660944533455
-39.600213626306555
-39.5025558861677
-39.5025558861677
-39.5025558861677
-39.5025558861677
-39.40489814602884
-39.40489814602884
-40.38147554741741
-41.065079728389414
-40.96742198825055
-40.96742198825055
-40.96742198825055
-40.96742198825055
-40.86976424811169
-40.86976424811169
-39.014267185473415
-37.4517433432517
-37.74471656366827
-34.81498435950255
-32.6665140764477
-28.369573510337986
-24.4632639047837
-25.342183566033416
-19.385061417563133
-14.990463111314565
-15.967040512703136
-10.009918364232853
-5.615320057984283
-1.8066681925688564
2.0019836728465705
1.1230640115968566
5.127031357289998
8.05676356145571
7.470817120622568
11.377126726176853
14.306858930342566
17.52956435492485
20.55695429922942
19.87335011825742
22.90074006256199
25.049210345616846
24.560921644922562
27.588311589227132
29.736781872281988
32.08056763561456
34.424353398947126
33.93606469825284
33.05714503700313
32.27588311589227
32.471198596169984
28.564888990615703
25.63515678644999
21.533531700617992
17.627222095063708
18.506141756313422
15.381094071869994
13.232623788815136
13.720912489509422
13.623254749370565
13.623254749370565
14.599832150759136
15.283436331731137
15.088120851453422
18.994430457007706
21.92416266117342
21.24055848020142
24.267948424505988
26.514076447699704
25.049210345616846
24.365606164644845
24.4632639047837
21.63118944075685
19.385061417563133
19.87335011825742
16.84596017395285
14.697489890897993
12.256046387426567
9.912260624093996
10.498207064927138
8.44739452201114
6.982528419928283
7.275501640344854
4.345769436179141
2.197299153124285
-0.14648661020828566
-2.490272373540856
-1.9043259327077133
-3.9551384756237127
-5.420004577706569
-5.127031357289998
-7.080186160067139
-8.545052262149996
-10.10757610437171
-11.670099946593423
-11.377126726176853
-13.330281528953995
-14.795147631036851
-14.404516670481422
-15.47875181200885
-16.16235599298085
-16.943617914091707
-17.724879835202564
-17.52956435492485
-19.48271915770199
-20.947585259784848
-20.654612039368278
-21.63118944075685
-22.412451361867703
-22.21713588158999
-22.21713588158999
-22.21713588158999
-22.21713588158999
-22.21713588158999
-22.21713588158999
-20.263981078812847
-18.799114976729992
-16.260013733119706
-13.916227969787137
-14.50217441062028
-9.619287403677424
-5.908293278400855
-6.6895551995117115
-0.8300907911802854
3.5645075150682843
9.228656443121995
14.599832150759136
13.427939269092851
20.361638818951704
25.537499046311133
24.365606164644845
29.346150911726557
33.05714503700313
36.96345464255741
40.86976424811169
39.99084458686198
43.99481193255512
46.92454413672083
46.240939955748836
48.291752498664835
49.658960860608836
51.31914244296941
52.78400854505226
52.49103532463569
53.467612726024264
54.15121690699626
53.95590142671855
54.053559166857404
53.95590142671855
52.97932402532997
52.295719844357976
52.39337758449683
51.416800183108265
50.635538261997404
50.83085374227512
48.877698939497975
47.31517509727627
44.77607385366598
42.529945830472265
43.018234531166556
40.96742198825055
39.5025558861677
39.79552910658427
36.86579690241855
34.61966887922484
32.27588311589227
29.834439612420844
30.420386053253985
28.369573510337986
26.90470740825513
27.1976806286717
24.267948424505988
22.021820401312276
20.654612039368278
18.994430457007706
19.385061417563133
16.45532921339742
14.209201190203707
14.697489890897993
11.670099946593423
9.521629663538567
8.05676356145571
6.494239719233997
6.787212939650568
3.8574807354848555
1.7090104524299992
2.197299153124285
0.14648661020828566
-1.2207217517357138
-3.7598229953459983
-6.005951018539712
-5.517662317845426
-7.568474860761425
-9.033340962844282
-8.74036774242771
-10.693522545204852
-12.158388647287708
-13.720912489509422
-15.283436331731137
-14.892805371175708
-17.82253757534142
-20.068665598535134
-19.58037689784085
-21.533531700617992
-22.998397802700847
-24.560921644922562
-26.123445487144274
-25.830472266727703
-27.783627069504846
-29.2484931715877
-28.857862211032273
-29.9320973525597
-30.615701533531702
-31.396963454642556
-32.178225375753414
-31.9829098954757
-32.08056763561456
-31.9829098954757
-31.9829098954757
-30.127412832837415
-28.564888990615703
-25.049210345616846
-22.021820401312276
-22.705424582284277
-17.82253757534142
-14.11154345006485
-14.892805371175708
-9.033340962844282
-4.541084916456855
1.0254062714579995
6.39658197909514
5.224689097428855
10.302891584649425
13.916227969787137
13.13496604867628
18.994430457007706
23.389028763256274
27.1976806286717
31.103990234225986
30.22507057297627
35.20561532005799
38.818951705195694
38.03768978408484
43.018234531166556
46.63157091630426
49.658960860608836
52.78400854505226
52.002746623941405
53.17463950560769
53.85824368657969
53.66292820630198
50.83085374227512
48.584725719081405
44.28778515297169
40.479133287556266
41.26039520866713
38.23300526436255
35.98687724116884
36.475165941863125
34.424353398947126
32.95948729686427
33.252460517280845
33.252460517280845
33.252460517280845
36.0845349813077
38.33066300450141
37.74471656366827
38.818951705195694
39.5025558861677
39.40489814602884
39.40489814602884
39.40489814602884
35.49858854047456
32.56885633630884
33.252460517280845
30.22507057297627
27.97894254978256
25.63515678644999
23.291371023117417
23.779659723811704
19.775692378118563
16.84596017395285
17.52956435492485
14.50217441062028
12.256046387426567
9.912260624093996
7.568474860761425
8.05676356145571
5.127031357289998
2.8809033340962844
3.36919203479057
-0.43945983062485694
-3.36919203479057
-6.494239719233997
-9.619287403677424
-8.935683222705425
-11.963073167009995
-14.209201190203707
-13.623254749370565
-17.627222095063708
-20.55695429922942
-22.705424582284277
-25.146868085755703
-24.560921644922562
-27.588311589227132
-29.736781872281988
-29.2484931715877
-32.178225375753414
-34.424353398947126
-36.768139162279695
-39.11192492561227
-38.525978484779124
-40.57679102769512
-42.04165712977798
-41.651026169222554
-43.604180971999696
-45.069047074082555
-44.77607385366598
-44.77607385366598
-44.77607385366598
-43.79949645227741
-43.018234531166556
-43.21355001144427
-41.26039520866713
-39.79552910658427
-35.303273060196844
-31.494621194781413
-32.37354085603113
-27.392996108949415
-23.682001983672848
-24.4632639047837
-19.58037689784085
-15.869382772564279
-10.888838025482567
-6.298924238956283
-7.373159380483711
-2.2949568932631417
1.2207217517357138
0.43945983062485694
4.443427176317998
7.373159380483711
10.498207064927138
13.623254749370565
12.939650568398566
15.967040512703136
18.11551079575799
17.627222095063708
20.654612039368278
22.803082322423133
24.267948424505988
25.830472266727703
25.439841306172273
26.514076447699704
27.1976806286717
27.002365148393988
27.002365148393988
27.002365148393988
26.025787747005417
25.342183566033416
25.439841306172273
23.48668650339513
22.021820401312276
22.314793621728846
18.506141756313422
15.47875181200885
13.330281528953995
10.888838025482567
11.47478446631571
7.470817120622568
4.541084916456855
5.224689097428855
1.2207217517357138
-1.6113527122911422
-3.8574807354848555
-6.201266498817426
-5.615320057984283
-7.666132600900283
-9.130998702983138
-8.838025482566568
-11.767757686732281
-13.916227969787137
-15.381094071869994
-16.943617914091707
-16.55298695353628
-18.60379949645228
-20.068665598535134
-19.678034637979707
-21.728847180895706
-23.19371328297856
-24.756237125200276
-26.318760967421987
-25.92813000686656
-27.881284809643702
-29.346150911726557
-29.053177691309987
-31.00633249408713
-32.471198596169984
-34.0337224383917
-35.596246280613414
-35.20561532005799
-37.15877012283513
-38.62363622491798
-38.33066300450141
-40.28381780727855
-41.74868390936141
-43.311207751583126
-44.873731593804834
-44.48310063324941
-45.45967803463798
-46.240939955748836
-46.04562447547112
-47.0222018768597
-47.705806057831694
-47.51049057755398
-47.60814831769284
-47.51049057755398
-48.48706797894255
-49.26832990005341
-49.073014419775696
-49.073014419775696
-49.073014419775696
-49.073014419775696
-48.97535667963683
-48.97535667963683
-47.998779278248264
-47.31517509727627
-47.412832837415124
-44.48310063324941
-42.236972610055695
-38.91660944533455
-35.79156176089113
-36.475165941863125
-30.615701533531702
-26.22110322728313
-27.1976806286717
-21.24055848020142
-16.748302433813993
-12.060730907148852
-7.373159380483711
-8.44739452201114
-3.36919203479057
0.14648661020828566
-0.537117570763714
4.345769436179141
7.959105821316854
10.986495765621424
14.11154345006485
13.427939269092851
13.623254749370565
13.525597009231708
13.525597009231708
9.71694514381628
6.787212939650568
3.5645075150682843
0.43945983062485694
1.1230640115968566
-1.8066681925688564
-3.9551384756237127
-3.466849774929427
-3.5645075150682843
-3.5645075150682843
-2.5879301136797133
-1.8066681925688564
-2.0019836728465705
1.7090104524299992
4.736400396734569
4.052796215762569
6.103608758678568
7.568474860761425
7.177843900205997
7.275501640344854
7.275501640344854
4.443427176317998
2.197299153124285
2.68558785381857
0.6347753109025711
-0.7324330510414282
-2.2949568932631417
-3.8574807354848555
-3.466849774929427
-5.517662317845426
-6.982528419928283
-6.591897459372854
-8.642710002288853
-10.10757610437171
-12.646677347981994
-14.892805371175708
-14.404516670481422
-17.334248874647134
-19.58037689784085
-19.092088197146563
-21.045242999923705
-22.510109102006563
-24.072632944228275
-25.63515678644999
-25.342183566033416
-27.295338368810558
-28.760204470893417
-28.369573510337986
-28.467231250476843
-28.467231250476843
-28.467231250476843
-28.467231250476843
-28.369573510337986
-27.49065384908827
-26.709391927977418
-26.90470740825513
-26.807049668116274
-26.807049668116274
-25.830472266727703
-25.049210345616846
-25.24452582589456
-24.267948424505988
-23.48668650339513
-23.682001983672848
-23.58434424353399
-23.58434424353399
-24.560921644922562
-25.342183566033416
-25.146868085755703
-26.123445487144274
-26.807049668116274
-26.709391927977418
-27.68596932936599
-28.369573510337986
-28.174258030060273
-28.27191577019913
-28.174258030060273
-26.318760967421987
-24.853894865339132
-25.146868085755703
-21.24055848020142
-18.310826276035705
-14.11154345006485
-10.302891584649425
-11.181811245899137
-5.224689097428855
-0.8300907911802854
-1.8066681925688564
4.052796215762569
8.44739452201114
12.256046387426567
16.16235599298085
15.283436331731137
20.263981078812847
23.974975204089418
23.096055542839704
27.100022888532845
30.029755092698558
33.15480277714199
36.27985046158541
35.596246280613414
37.64705882352941
39.11192492561227
38.72129396505684
40.67444876783398
42.13931486991684
41.84634164950027
41.84634164950027
41.84634164950027
40.86976424811169
40.186160067139696
40.28381780727855
39.307240405889985
38.525978484779124
36.768139162279695
35.20561532005799
35.596246280613414
33.545433737697415
32.08056763561456
32.37354085603113
29.443808651865414
27.295338368810558
24.853894865339132
22.510109102006563
22.998397802700847
20.068665598535134
17.82253757534142
18.310826276035705
15.381094071869994
13.13496604867628
10.79118028534371
8.44739452201114
8.935683222705425
7.861448081177996
7.177843900205997
7.275501640344854
6.298924238956283
5.615320057984283
4.736400396734569
3.9551384756237127
4.150453955901427
4.150453955901427
4.150453955901427
4.150453955901427
4.150453955901427
4.150453955901427
4.150453955901427
4.150453955901427
4.150453955901427
3.1738765545128556
2.392614633401999
2.5879301136797133
1.6113527122911422
0.8300907911802854
0.04882887006942855
-0.6347753109025711
-0.43945983062485694
-1.416037232013428
-2.197299153124285
-2.0019836728465705
-2.9785610742351416
-3.7598229953459983
-4.541084916456855
-5.322346837567712
-5.127031357289998
-6.103608758678568
-6.787212939650568
-6.6895551995117115
-7.666132600900283
-8.349736781872283
-8.252079041733426
-8.252079041733426
-8.252079041733426
-8.252079041733426
-8.252079041733426
-8.252079041733426
-8.252079041733426
-8.252079041733426
-6.298924238956283
-4.834058136873426
-5.127031357289998
-1.3183794918745708
1.6113527122911422
0.9277485313191425
4.931715877012284
7.861448081177996
11.963073167009995
15.771725032425422
14.990463111314565
19.87335011825742
23.58434424353399
22.705424582284277
27.68596932936599
31.396963454642556
34.32669565880827
37.4517433432517
36.768139162279695
37.84237430380713
38.525978484779124
38.42832074464027
37.4517433432517
36.67048142214084
34.0337224383917
31.68993667505913
32.178225375753414
32.08056763561456
32.08056763561456
32.08056763561456
33.05714503700313
33.74074921797513
35.49858854047456
37.06111238269627
36.67048142214084
39.600213626306555
41.74868390936141
41.26039520866713
43.311207751583126
44.77607385366598
43.40886549172198
42.72526131074998
42.92057679102769
39.99084458686198
37.74471656366827
38.23300526436255
34.32669565880827
31.2993057145037
29.150835431448844
26.709391927977418
27.295338368810558
24.267948424505988
22.021820401312276
22.510109102006563
19.58037689784085
17.334248874647134
14.013885709925994
10.888838025482567
11.572442206454566
8.545052262149996
6.39658197909514
6.884870679789426
3.9551384756237127
1.7090104524299992
0.24414435034714274
-1.2207217517357138
-0.8300907911802854
-2.8809033340962844
-4.345769436179141
-3.9551384756237127
-6.005951018539712
-7.470817120622568
-9.033340962844282
-10.595864805065995
-10.205233844510566
-12.158388647287708
-13.623254749370565
-13.330281528953995
-16.260013733119706
-18.506141756313422
-19.87335011825742
-21.43587396047913
-21.14290074006256
-24.072632944228275
-26.22110322728313
-25.732814526588847
-27.783627069504846
-29.2484931715877
-30.811017013809415
-32.37354085603113
-31.9829098954757
-33.93606469825284
-35.4009308003357
-35.10795757991913
-37.06111238269627
-38.525978484779124
-39.11192492561227
-39.893186846723125
-39.69787136644541
-40.67444876783398
-41.45571068894484
-41.26039520866713
-41.26039520866713
-41.26039520866713
-38.42832074464027
-36.182192721446555
-36.67048142214084
-33.64309147783627
-31.396963454642556
-31.885252155336843
-27.002365148393988
-23.291371023117417
-18.40848401617456
-13.720912489509422
-14.795147631036851
-9.81460288395514
-6.103608758678568
-6.884870679789426
-2.0019836728465705
1.6113527122911422
4.638742656595713
7.763790341039139
7.080186160067139
10.10757610437171
12.256046387426567
11.767757686732281
14.697489890897993
16.943617914091707
18.310826276035705
19.971007858396277
19.58037689784085
20.654612039368278
21.338216220340275
21.14290074006256
22.119478141451133
22.90074006256199
23.682001983672848
24.4632639047837
24.267948424505988
23.291371023117417
22.60776684214542
22.705424582284277
21.728847180895706
20.947585259784848
19.18974593728542
17.724879835202564
18.017853055619135
15.088120851453422
12.84199282825971
13.330281528953995
10.400549324788281
8.154421301594567
4.834058136873426
1.8066681925688564
2.490272373540856
-0.43945983062485694
-2.68558785381857
-2.197299153124285
-5.127031357289998
-7.373159380483711
-8.74036774242771
-10.400549324788281
-10.009918364232853
-10.986495765621424
-11.767757686732281
-11.572442206454566
-13.525597009231708
-14.990463111314565
-16.55298695353628
-18.11551079575799
-17.82253757534142
-18.799114976729992
-19.48271915770199
-19.385061417563133
-21.338216220340275
-22.803082322423133
-23.389028763256274
-24.17029068436713
-23.974975204089418
-24.95155260547799
-25.732814526588847
-25.537499046311133
-26.514076447699704
-27.295338368810558
-28.076600289921416
-28.857862211032273
-28.66254673075456
-29.63912413214313
-30.322728313115128
-30.127412832837415
-31.103990234225986
-31.885252155336843
-32.6665140764477
-33.44777599755856
-33.252460517280845
-35.20561532005799
-36.67048142214084
-36.27985046158541
-37.35408560311284
-38.03768978408484
-38.818951705195694
-39.600213626306555
-39.40489814602884
-39.40489814602884
-39.40489814602884
-39.40489814602884
-37.4517433432517
-35.98687724116884
-33.44777599755856
-31.103990234225986
-31.592278934920273
-26.709391927977418
-22.998397802700847
-23.87731746395056
-16.943617914091707
-11.767757686732281
-7.177843900205997
-2.490272373540856
-3.5645075150682843
0.43945983062485694
3.36919203479057
2.68558785381857
3.7598229953459983
4.443427176317998
4.345769436179141
4.345769436179141
4.345769436179141
6.298924238956283
7.763790341039139
7.373159380483711
11.279468986037996
14.209201190203707
19.287403677424276
23.87731746395056
22.90074006256199
31.68993667505913
38.33066300450141
36.86579690241855
43.79949645227741
48.97535667963683
50.635538261997404
53.07698176546884
52.588693064774546
51.709773403524835
50.928511482413974
51.02616922255284
49.073014419775696
47.60814831769284
45.069047074082555
42.72526131074998
43.21355001144427
39.307240405889985
36.37750820172427
36.96345464255741
33.05714503700313
30.029755092698558
27.881284809643702
25.439841306172273
26.025787747005417
22.998397802700847
20.752269779507134
21.24055848020142
19.287403677424276
17.724879835202564
15.185778591592278
12.939650568398566
13.427939269092851
10.400549324788281
8.252079041733426
8.74036774242771
4.834058136873426
1.8066681925688564
-1.2207217517357138
-4.345769436179141
-3.662165255207141
-8.545052262149996
-12.256046387426567
-11.377126726176853
-16.357671473258563
-20.068665598535134
-23.974975204089418
-27.881284809643702
-27.002365148393988
-31.00633249408713
-33.93606469825284
-33.252460517280845
-36.27985046158541
-38.42832074464027
-40.772106507972836
-43.11589227130541
-42.62760357061112
-44.580758373388264
-46.04562447547112
-45.75265125505455
-46.72922865644312
-47.412832837415124
-47.21751735713741
-47.31517509727627
-47.21751735713741
-47.21751735713741
-47.21751735713741
-47.21751735713741
-46.240939955748836
-45.45967803463798
-43.70183871213855
-42.236972610055695
-42.529945830472265
-39.600213626306555
-37.35408560311284
-37.84237430380713
-33.838406958113985
-30.908674753948272
-26.807049668116274
-22.90074006256199
-23.779659723811704
-17.82253757534142
-13.427939269092851
-14.404516670481422
-8.44739452201114
-4.052796215762569
0.6347753109025711
5.224689097428855
4.248111696040284
9.228656443121995
12.939650568398566
12.060730907148852
16.064698252841993
18.994430457007706
21.24055848020142
23.58434424353399
22.998397802700847
26.025787747005417
28.174258030060273
27.68596932936599
28.760204470893417
29.443808651865414
30.22507057297627
31.00633249408713
30.811017013809415
29.9320973525597
29.150835431448844
29.346150911726557
28.27191577019913
27.588311589227132
26.807049668116274
26.025787747005417
26.123445487144274
24.17029068436713
22.705424582284277
22.998397802700847
20.068665598535134
17.82253757534142
16.45532921339742
14.795147631036851
15.185778591592278
12.256046387426567
10.009918364232853
10.498207064927138
7.568474860761425
5.322346837567712
3.9551384756237127
2.2949568932631417
2.68558785381857
0.6347753109025711
-0.7324330510414282
-0.34180209048599985
-2.392614633401999
-3.8574807354848555
-6.39658197909514
-8.642710002288853
-8.154421301594567
-10.10757610437171
-11.572442206454566
-11.279468986037996
-14.209201190203707
-16.45532921339742
-18.799114976729992
-21.14290074006256
-20.55695429922942
-22.60776684214542
-24.072632944228275
-23.779659723811704
-25.732814526588847
-27.1976806286717
-27.783627069504846
-28.564888990615703
-28.369573510337986
-29.346150911726557
-30.127412832837415
-29.9320973525597
-29.9320973525597
-29.9320973525597
-29.9320973525597
-29.9320973525597
-29.9320973525597
-28.95551995117113
-28.174258030060273
-28.369573510337986
-28.27191577019913
-28.27191577019913
-28.27191577019913
-28.27191577019913
-28.27191577019913
-28.27191577019913
-28.27191577019913
-28.27191577019913
-27.295338368810558
-26.514076447699704
-23.87731746395056
-21.533531700617992
-22.021820401312276
-19.092088197146563
-16.84596017395285
-17.334248874647134
-11.47478446631571
-7.080186160067139
-0.43945983062485694
5.615320057984283
4.248111696040284
11.279468986037996
16.357671473258563
15.185778591592278
20.263981078812847
23.87731746395056
28.857862211032273
33.44777599755856
32.37354085603113
39.307240405889985
44.48310063324941
43.311207751583126
50.24490730144198
55.32310978866255
60.8896009765774
66.26077668421455
65.08888380254825
72.90150301365682
78.76096742198825
77.4914168001831
82.47196154726483
86.08529793240254
88.13611047531853
90.57755397878996
89.99160753795681
88.13611047531853
86.57358663309682
86.96421759365225
84.91340505073624
83.4485389486534
81.78835736629281
80.2258335240711
80.51880674448768
77.58907454032196
75.34294651712825
75.83123521782254
72.80384527351796
70.55771725032426
67.23735408560312
64.11230640115969
64.79591058213168
60.79194323643854
57.86221103227283
58.44815747310597
54.54184786755169
51.51445792324712
47.412832837415124
43.50652323186084
44.38544289311055
40.38147554741741
37.4517433432517
38.03768978408484
34.0337224383917
31.103990234225986
28.95551995117113
26.514076447699704
27.002365148393988
23.096055542839704
20.16632333867399
20.752269779507134
17.82253757534142
15.576409552147707
14.11154345006485
12.549019607843137
12.939650568398566
10.009918364232853
7.763790341039139
8.252079041733426
5.224689097428855
3.076218814373999
1.6113527122911422
0.04882887006942855
0.43945983062485694
-0.537117570763714
-1.2207217517357138
-1.1230640115968566
-3.076218814373999
-4.541084916456855
-6.103608758678568
-7.666132600900283
-7.275501640344854
-9.326314183260854
-10.79118028534371
-10.400549324788281
-13.330281528953995
-15.576409552147707
-17.920195315480278
-20.263981078812847
-19.775692378118563
-21.728847180895706
-23.19371328297856
-22.90074006256199
-23.87731746395056
-24.65857938506142
-23.48668650339513
-22.803082322423133
-22.90074006256199
-20.947585259784848
-19.48271915770199
-19.775692378118563
-15.967040512703136
-12.939650568398566
-8.838025482566568
-5.0293736171511405
-5.810635538261997
0.04882887006942855
4.443427176317998
3.36919203479057
9.326314183260854
13.720912489509422
16.55298695353628
19.775692378118563
19.092088197146563
22.998397802700847
25.92813000686656
25.342183566033416
27.392996108949415
28.760204470893417
28.467231250476843
28.564888990615703
28.467231250476843
27.588311589227132
26.807049668116274
26.90470740825513
25.92813000686656
25.24452582589456
22.510109102006563
20.263981078812847
20.752269779507134
17.724879835202564
15.576409552147707
15.967040512703136
13.037308308537423
10.79118028534371
8.44739452201114
6.103608758678568
6.591897459372854
3.662165255207141
1.416037232013428
1.9043259327077133
-0.9277485313191425
-3.1738765545128556
-4.541084916456855
-6.201266498817426
-5.810635538261997
-8.74036774242771
-10.986495765621424
-10.498207064927138
-12.45136186770428
-13.916227969787137
-15.47875181200885
-17.041275654230564
-16.748302433813993
-18.701457236591136
-20.16632333867399
-19.775692378118563
-21.826504921034562
-23.291371023117417
-24.853894865339132
-26.416418707560844
-26.025787747005417
-27.97894254978256
-29.443808651865414
-29.150835431448844
-31.103990234225986
-32.56885633630884
-33.15480277714199
-33.93606469825284
-33.838406958113985
-34.81498435950255
-35.49858854047456
-35.303273060196844
-36.27985046158541
-37.06111238269627
-37.84237430380713
-38.525978484779124
-38.42832074464027
-39.40489814602884
-40.08850232700084
-39.893186846723125
-39.893186846723125
-39.893186846723125
-40.86976424811169
-41.5533684290837
-41.45571068894484
-42.43228809033341
-43.11589227130541
-42.92057679102769
-43.89715419241627
-44.67841611352712
-45.45967803463798
-46.14328221560998
-45.947966735332265
-47.90112153810941
-49.365987640192266
-49.073014419775696
-49.073014419775696
-49.073014419775696
-47.11985961699855
-45.654993514915695
-45.947966735332265
-45.85030899519341
-45.85030899519341
-45.85030899519341
-45.85030899519341
-45.85030899519341
-44.873731593804834
-44.09246967269398
-44.28778515297169
-39.40489814602884
-35.69390402075227
-36.475165941863125
-29.63912413214313
-24.4632639047837
-18.017853055619135
-11.767757686732281
-13.13496604867628
-3.2715342946517127
3.9551384756237127
2.2949568932631417
10.302891584649425
16.16235599298085
18.701457236591136
21.92416266117342
21.24055848020142
22.314793621728846
22.998397802700847
22.90074006256199
22.90074006256199
22.90074006256199
22.90074006256199
22.90074006256199
22.90074006256199
22.803082322423133
22.803082322423133
22.803082322423133
21.826504921034562
21.14290074006256
20.361638818951704
19.58037689784085
19.678034637979707
17.724879835202564
16.260013733119706
16.55298695353628
13.623254749370565
11.47478446631571
10.009918364232853
8.44739452201114
8.74036774242771
5.810635538261997
3.662165255207141
4.150453955901427
1.1230640115968566
-1.0254062714579995
-2.392614633401999
-3.9551384756237127
-3.662165255207141
-5.615320057984283
-7.080186160067139
-6.787212939650568
-7.763790341039139
-8.545052262149996
-10.205233844510566
-11.767757686732281
-11.47478446631571
-12.45136186770428
-13.13496604867628
-13.037308308537423
-14.013885709925994
-14.697489890897993
-15.47875181200885
-16.260013733119706
-16.064698252841993
-16.16235599298085
-16.16235599298085
-16.16235599298085
-17.041275654230564
-17.82253757534142
-17.627222095063708
-17.627222095063708
-17.627222095063708
-19.58037689784085
-21.045242999923705
-20.752269779507134
-21.728847180895706
-22.412451361867703
-23.19371328297856
-23.974975204089418
-23.779659723811704
-24.853894865339132
-25.537499046311133
-25.342183566033416
-26.318760967421987
-27.100022888532845
-26.90470740825513
-26.90470740825513
-26.90470740825513
-25.92813000686656
-25.24452582589456
-25.342183566033416
-22.412451361867703
-20.263981078812847
-16.84596017395285
-13.81857022964828
-14.50217441062028
-9.521629663538567
-5.908293278400855
-6.6895551995117115
0.04882887006942855
5.224689097428855
9.81460288395514
14.50217441062028
13.427939269092851
19.385061417563133
23.779659723811704
22.803082322423133
27.783627069504846
31.494621194781413
34.52201113908598
37.64705882352941
36.86579690241855
39.893186846723125
42.13931486991684
41.5533684290837
43.604180971999696
45.069047074082555
45.654993514915695
46.43625543602655
46.240939955748836
47.21751735713741
47.998779278248264
47.80346379797055
48.78004119935912
49.46364538033112
48.38941023880369
47.60814831769284
47.80346379797055
46.72922865644312
46.04562447547112
46.14328221560998
44.19012741283284
42.72526131074998
40.186160067139696
37.84237430380713
38.33066300450141
35.4009308003357
33.15480277714199
33.64309147783627
30.615701533531702
28.467231250476843
27.002365148393988
25.439841306172273
25.732814526588847
22.803082322423133
20.55695429922942
21.045242999923705
18.994430457007706
17.52956435492485
15.967040512703136
14.404516670481422
14.795147631036851
12.74433508812085
11.279468986037996
11.572442206454566
9.619287403677424
8.154421301594567
5.615320057984283
3.2715342946517127
3.8574807354848555
0.8300907911802854
-1.2207217517357138
-0.7324330510414282
-3.7598229953459983
-5.908293278400855
-7.373159380483711
-8.935683222705425
-8.642710002288853
-11.572442206454566
-13.720912489509422
-13.232623788815136
-15.283436331731137
-16.748302433813993
-19.287403677424276
-21.533531700617992
-21.045242999923705
-22.998397802700847
-24.4632639047837
-24.17029068436713
-26.123445487144274
-27.588311589227132
-28.174258030060273
-29.053177691309987
-28.857862211032273
-29.834439612420844
-30.518043793392845
-30.420386053253985
-29.443808651865414
-28.66254673075456
-27.881284809643702
-27.100022888532845
-27.295338368810558
-26.22110322728313
-25.537499046311133
-25.63515678644999
-24.65857938506142
-23.974975204089418
-22.21713588158999
-20.654612039368278
-20.947585259784848
-15.185778591592278
-10.693522545204852
-11.670099946593423
-3.8574807354848555
1.9043259327077133
10.205233844510566
17.920195315480278
16.16235599298085
26.123445487144274
33.44777599755856
31.787594415197987
40.772106507972836
47.31517509727627
51.61211566338598
56.29968719005112
55.22545204852369
57.37392233157855
58.8387884336614
58.44815747310597
59.42473487449455
60.2059967956054
60.01068131532769
60.01068131532769
60.01068131532769
59.03410391393912
58.25284199282826
58.350499732967116
56.39734493018997
54.932478828107115
53.36995498588541
51.80743114366369
52.10040436408026
49.17067215991455
46.92454413672083
47.412832837415124
45.362020294499125
43.89715419241627
41.358052948805984
39.014267185473415
39.5025558861677
36.475165941863125
34.32669565880827
34.81498435950255
31.787594415197987
29.63912413214313
27.1976806286717
24.853894865339132
25.342183566033416
22.412451361867703
20.16632333867399
20.654612039368278
17.724879835202564
15.47875181200885
14.013885709925994
12.45136186770428
12.84199282825971
9.81460288395514
7.666132600900283
8.154421301594567
6.103608758678568
4.638742656595713
2.0996414129854277
-0.14648661020828566
0.34180209048599985
-1.6113527122911422
-3.076218814373999
-2.783245593957427
-5.71297779812314
-7.861448081177996
-10.302891584649425
-12.549019607843137
-12.060730907148852
-14.11154345006485
-15.576409552147707
-15.185778591592278
-17.236591134508277
-18.701457236591136
-20.263981078812847
-21.826504921034562
-21.43587396047913
-22.412451361867703
-23.19371328297856
-22.998397802700847
-23.974975204089418
-24.756237125200276
-24.560921644922562
-24.560921644922562
-24.560921644922562
-23.58434424353399
-22.803082322423133
-22.998397802700847
-22.021820401312276
-21.24055848020142
-18.60379949645228
-16.260013733119706
-16.748302433813993
-12.84199282825971
-9.912260624093996
-10.595864805065995
-5.615320057984283
-1.9043259327077133
2.8809033340962844
7.470817120622568
6.494239719233997
13.330281528953995
18.506141756313422
17.334248874647134
24.267948424505988
29.443808651865414
35.889219501029984
42.13931486991684
40.67444876783398
47.705806057831694
52.78400854505226
51.61211566338598
57.56923781185626
61.96383611810483
64.79591058213168
68.01861600671397
67.23735408560312
69.28816662851911
70.75303273060197
70.36240177004655
72.31555657282368
73.78042267490653
73.48744945448996
73.48744945448996
73.48744945448996
72.5108720531014
71.72961013199054
71.8272678721294
70.85069047074083
70.06942854962998
68.31158922713054
66.74906538490883
67.0420386053254
66.06546120393683
65.28419928282597
65.47951476310368
62.54978255893797
60.30365453574426
57.86221103227283
55.51842526894026
56.006713969634546
53.07698176546884
50.83085374227512
51.31914244296941
46.43625543602655
42.72526131074998
39.69787136644541
36.475165941863125
37.15877012283513
32.27588311589227
28.564888990615703
29.346150911726557
24.365606164644845
20.752269779507134
16.748302433813993
12.84199282825971
13.720912489509422
8.74036774242771
5.127031357289998
5.908293278400855
0.9277485313191425
-2.5879301136797133
-6.591897459372854
-10.498207064927138
-9.619287403677424
-14.599832150759136
-18.21316853589685
-17.43190661478599
-21.43587396047913
-24.365606164644845
-27.49065384908827
-30.615701533531702
-29.9320973525597
-32.95948729686427
-35.10795757991913
-34.61966887922484
-37.549401083390556
-39.79552910658427
-41.16273746852827
-42.72526131074998
-42.33463035019455
-44.38544289311055
-45.75265125505455
-45.45967803463798
-47.412832837415124
-48.877698939497975
-50.44022278171969
-52.002746623941405
-51.61211566338598
-56.49500267032883
-60.108339055466544
-59.32707713435569
-65.18654154268711
-69.58113984893568
-72.41321431296254
-75.53826199740597
-74.85465781643397
-73.97573815518425
-73.19447623407339
-73.3897917143511
-68.50690470740825
-64.79591058213168
-56.1043717097734
-48.38941023880369
-50.14724956130312
-38.23300526436255
-29.443808651865414
-31.396963454642556
-19.48271915770199
-10.693522545204852
-5.908293278400855
-0.24414435034714274
-1.513694972152285
1.513694972152285
3.662165255207141
3.1738765545128556
5.224689097428855
6.6895551995117115
6.298924238956283
6.39658197909514
6.39658197909514
6.39658197909514
6.39658197909514
6.39658197909514
4.443427176317998
2.9785610742351416
0.43945983062485694
-1.7090104524299992
-1.2207217517357138
-4.248111696040284
-6.39658197909514
-5.908293278400855
-9.81460288395514
-12.74433508812085
-15.967040512703136
-19.092088197146563
-18.40848401617456
-21.338216220340275
-23.58434424353399
-23.096055542839704
-27.002365148393988
-29.9320973525597
-31.201647974364842
-32.764171816586554
-32.37354085603113
-34.424353398947126
-35.889219501029984
-35.49858854047456
-37.4517433432517
-38.91660944533455
-40.479133287556266
-42.04165712977798
-41.74868390936141
-42.72526131074998
-43.40886549172198
-43.21355001144427
-44.19012741283284
-44.97138933394369
-45.75265125505455
-46.533913176165406
-46.33859769588769
-46.33859769588769
-46.33859769588769
-46.33859769588769
-47.21751735713741
-47.998779278248264
-49.658960860608836
-51.22148470283055
-50.83085374227512
-51.90508888380255
-52.588693064774546
-52.39337758449683
-54.346532387273975
-55.81139848935683
-56.39734493018997
-57.178606851300835
-56.983291371023114
-58.936446173800256
-60.401312275883114
-60.01068131532769
-61.96383611810483
-63.42870222018769
-64.9912260624094
-66.55374990463112
-66.16311894407569
-67.13969634546426
-67.92095826657511
-67.7256427862974
-67.7256427862974
-67.7256427862974
-67.62798504615854
-67.62798504615854
-67.62798504615854
-66.65140764476998
-65.8701457236591
-66.06546120393683
-64.11230640115969
-62.54978255893797
-60.01068131532769
-57.66689555199512
-58.1551842526894
-53.27229724574655
-49.56130312046998
-50.34256504158083
-45.45967803463798
-41.74868390936141
-35.889219501029984
-30.420386053253985
-31.68993667505913
-25.63515678644999
-21.24055848020142
-22.21713588158999
-17.236591134508277
-13.525597009231708
-9.619287403677424
-5.71297779812314
-6.494239719233997
-2.490272373540856
0.34180209048599985
-0.24414435034714274
2.68558785381857
4.834058136873426
7.275501640344854
9.521629663538567
9.033340962844282
10.10757610437171
10.79118028534371
10.693522545204852
11.670099946593423
12.353704127565424
12.256046387426567
12.256046387426567
12.256046387426567
10.302891584649425
8.838025482566568
9.130998702983138
7.177843900205997
5.71297779812314
4.150453955901427
2.5879301136797133
2.8809033340962844
0.9277485313191425
-0.43945983062485694
-0.14648661020828566
-2.0996414129854277
-3.5645075150682843
-4.248111696040284
-5.0293736171511405
-4.834058136873426
-5.810635538261997
-6.591897459372854
-6.39658197909514
-7.373159380483711
-8.154421301594567
-8.935683222705425
-9.71694514381628
-9.521629663538567
-9.521629663538567
-9.521629663538567
-9.521629663538567
-11.47478446631571
-12.939650568398566
-13.525597009231708
-14.306858930342566
-14.209201190203707
-15.185778591592278
-15.869382772564279
-15.674067292286564
-17.627222095063708
-19.092088197146563
-19.775692378118563
-20.55695429922942
-20.361638818951704
-21.338216220340275
-22.119478141451133
-21.92416266117342
-22.90074006256199
-23.58434424353399
-23.48668650339513
-23.48668650339513
-23.48668650339513
-24.4632639047837
-25.146868085755703
-24.95155260547799
-25.92813000686656
-26.709391927977418
-26.514076447699704
-26.514076447699704
-26.514076447699704
-28.467231250476843
-29.9320973525597
-29.541466392004274
-32.471198596169984
-34.717326619363696
-35.10795757991913
-35.98687724116884
-35.79156176089113
-32.95948729686427
-30.71335927367056
-31.201647974364842
-25.342183566033416
-20.947585259784848
-12.353704127565424
-4.736400396734569
-6.39658197909514
5.322346837567712
14.209201190203707
12.256046387426567
24.072632944228275
32.86182955672541
38.525978484779124
44.97138933394369
43.50652323186084
48.584725719081405
52.19806210421912
51.416800183108265
55.32310978866255
58.25284199282826
60.49897001602197
62.84275577935454
62.2568093385214
64.3076218814374
65.77248798352025
65.38185702296482
65.47951476310368
65.38185702296482
65.38185702296482
65.38185702296482
65.38185702296482
65.28419928282597
65.28419928282597
65.28419928282597
65.28419928282597
65.28419928282597
64.3076218814374
63.526359960326545
63.6240177004654
61.67086289768826
60.2059967956054
60.49897001602197
58.44815747310597
56.983291371023114
54.44419012741283
52.10040436408026
52.588693064774546
49.658960860608836
47.412832837415124
47.90112153810941
43.89715419241627
40.96742198825055
37.84237430380713
34.717326619363696
35.4009308003357
32.37354085603113
30.127412832837415
30.615701533531702
27.588311589227132
25.439841306172273
22.998397802700847
20.654612039368278
21.24055848020142
19.18974593728542
17.724879835202564
18.017853055619135
16.064698252841993
14.599832150759136
13.916227969787137
13.13496604867628
13.330281528953995
12.256046387426567
11.572442206454566
11.670099946593423
10.693522545204852
10.009918364232853
8.252079041733426
6.6895551995117115
7.080186160067139
4.052796215762569
1.9043259327077133
2.392614633401999
-0.537117570763714
-2.68558785381857
-5.127031357289998
-7.373159380483711
-6.884870679789426
-10.79118028534371
-13.720912489509422
-13.13496604867628
-16.16235599298085
-18.310826276035705
-21.63118944075685
-24.65857938506142
-23.974975204089418
-26.025787747005417
-27.49065384908827
-27.1976806286717
-27.1976806286717
-27.1976806286717
-24.365606164644845
-22.119478141451133
-22.60776684214542
-17.724879835202564
-14.013885709925994
-14.795147631036851
-7.959105821316854
-2.783245593957427
3.5645075150682843
9.81460288395514
8.44739452201114
15.381094071869994
20.55695429922942
19.385061417563133
26.318760967421987
31.396963454642556
35.98687724116884
40.67444876783398
39.69787136644541
44.67841611352712
48.291752498664835
47.51049057755398
50.53788052185855
52.6863508049134
54.053559166857404
55.61608300907912
55.32310978866255
56.29968719005112
56.983291371023114
56.7879758907454
57.764553292133975
58.54581521324483
57.37392233157855
56.690318150606544
56.7879758907454
55.81139848935683
55.03013656824598
55.22545204852369
53.17463950560769
51.709773403524835
49.17067215991455
46.826886396581976
47.31517509727627
44.38544289311055
42.13931486991684
42.62760357061112
39.600213626306555
37.4517433432517
35.98687724116884
34.424353398947126
34.717326619363696
31.787594415197987
29.541466392004274
30.029755092698558
27.002365148393988
24.853894865339132
23.389028763256274
21.826504921034562
22.119478141451133
19.18974593728542
16.943617914091707
17.43190661478599
15.47875181200885
14.013885709925994
11.47478446631571
9.130998702983138
9.619287403677424
6.6895551995117115
4.443427176317998
4.931715877012284
2.0019836728465705
-0.14648661020828566
-3.466849774929427
-6.494239719233997
-5.810635538261997
-9.81460288395514
-12.74433508812085
-12.060730907148852
-15.088120851453422
-17.334248874647134
-20.654612039368278
-23.682001983672848
-22.998397802700847
-27.002365148393988
-29.9320973525597
-29.2484931715877
-33.15480277714199
-36.0845349813077
-38.33066300450141
-40.67444876783398
-40.08850232700084
-45.947966735332265
-50.34256504158083
-49.365987640192266
-56.29968719005112
-61.37788967727169
-65.96780346379796
-70.65537499046312
-69.58113984893568
-70.75303273060197
-71.43663691157397
-71.24132143129626
-67.43266956588083
-64.40527962157626
-57.471580071717405
-51.31914244296941
-52.6863508049134
-40.86976424811169
-32.08056763561456
-34.0337224383917
-22.119478141451133
-13.232623788815136
-5.71297779812314
2.0996414129854277
0.34180209048599985
7.373159380483711
12.549019607843137
11.377126726176853
17.334248874647134
21.728847180895706
24.560921644922562
27.783627069504846
27.002365148393988
31.00633249408713
33.93606469825284
33.252460517280845
37.256427862973986
40.186160067139696
41.358052948805984
43.018234531166556
42.62760357061112
43.70183871213855
44.38544289311055
44.19012741283284
43.311207751583126
42.529945830472265
41.74868390936141
40.86976424811169
41.065079728389414
39.11192492561227
37.64705882352941
37.94003204394598
35.98687724116884
34.424353398947126
31.885252155336843
29.63912413214313
30.127412832837415
27.100022888532845
24.95155260547799
25.342183566033416
22.412451361867703
20.16632333867399
18.799114976729992
17.13893339436942
17.52956435492485
14.599832150759136
12.353704127565424
12.84199282825971
9.912260624093996
7.666132600900283
5.322346837567712
2.9785610742351416
3.466849774929427
1.416037232013428
0.04882887006942855
0.34180209048599985
-2.490272373540856
-4.736400396734569
-7.080186160067139
-9.42397192339971
-8.935683222705425
-11.865415426871138
-14.11154345006485
-13.623254749370565
-16.55298695353628
-18.799114976729992
-21.14290074006256
-23.48668650339513
-22.998397802700847
-25.92813000686656
-28.076600289921416
-27.588311589227132
-30.615701533531702
-32.764171816586554
-34.22903791866941
-35.79156176089113
-35.4009308003357
-37.35408560311284
-38.818951705195694
-38.525978484779124
-39.5025558861677
-40.186160067139696
-40.96742198825055
-41.74868390936141
-41.5533684290837
-41.651026169222554
-41.5533684290837
-41.5533684290837
-42.529945830472265
-43.21355001144427
-43.11589227130541
-43.11589227130541
-43.11589227130541
-43.018234531166556
-43.018234531166556
-43.018234531166556
-42.04165712977798
-41.358052948805984
-38.62363622491798
-36.27985046158541
-36.768139162279695
-32.86182955672541
-29.9320973525597
-30.518043793392845
-24.65857938506142
-20.263981078812847
-15.47875181200885
-10.79118028534371
-11.865415426871138
-5.908293278400855
-1.513694972152285
-2.490272373540856
2.392614633401999
6.103608758678568
9.130998702983138
12.256046387426567
11.572442206454566
15.47875181200885
18.40848401617456
17.82253757534142
19.87335011825742
21.24055848020142
21.92416266117342
22.705424582284277
22.510109102006563
22.60776684214542
22.510109102006563
22.510109102006563
20.654612039368278
19.092088197146563
16.55298695353628
14.306858930342566
14.795147631036851
11.767757686732281
9.619287403677424
10.10757610437171
7.080186160067139
4.931715877012284
1.6113527122911422
-1.416037232013428
-0.7324330510414282
-4.736400396734569
-7.666132600900283
-6.982528419928283
-10.888838025482567
-13.81857022964828
-17.041275654230564
-20.16632333867399
-19.48271915770199
-23.389028763256274
-26.318760967421987
-25.63515678644999
-28.66254673075456
-30.908674753948272
-32.27588311589227
-33.838406958113985
-33.44777599755856
-35.49858854047456
-36.96345464255741
-36.57282368200198
-37.64705882352941
-38.33066300450141
-39.11192492561227
-39.893186846723125
-39.69787136644541
-39.69787136644541
-39.69787136644541
-39.69787136644541
-39.69787136644541
-39.69787136644541
-40.57679102769512
-41.358052948805984
-41.16273746852827
-41.16273746852827
-41.16273746852827
-41.16273746852827
-42.04165712977798
-42.822919050888835
-44.580758373388264
-46.04562447547112
-45.654993514915695
-48.584725719081405
-50.83085374227512
-50.34256504158083
-56.1043717097734
-60.49897001602197
-64.3076218814374
-68.21393148699168
-67.33501182574197
-68.4092469672694
-69.0928511482414
-68.99519340810254
-68.01861600671397
-67.23735408560312
-61.67086289768826
-57.178606851300835
-58.1551842526894
-49.26832990005341
-42.62760357061112
-44.09246967269398
-33.252460517280845
-25.146868085755703
-18.310826276035705
-11.279468986037996
-12.84199282825971
-5.810635538261997
-0.6347753109025711
-1.8066681925688564
4.052796215762569
8.44739452201114
13.232623788815136
17.920195315480278
16.84596017395285
20.84992751964599
23.779659723811704
23.096055542839704
26.123445487144274
28.369573510337986
29.736781872281988
31.2993057145037
31.00633249408713
31.9829098954757
32.6665140764477
32.56885633630884
33.545433737697415
34.22903791866941
35.010299839780274
35.79156176089113
35.596246280613414
34.717326619363696
33.93606469825284
34.0337224383917
32.08056763561456
30.615701533531702
29.053177691309987
27.49065384908827
27.783627069504846
24.853894865339132
22.60776684214542
23.096055542839704
20.16632333867399
17.920195315480278
16.45532921339742
14.892805371175708
15.283436331731137
13.232623788815136
11.767757686732281
12.060730907148852
10.10757610437171
8.642710002288853
8.05676356145571
7.177843900205997
7.373159380483711
6.39658197909514
5.615320057984283
5.810635538261997
4.834058136873426
4.052796215762569
3.2715342946517127
2.490272373540856
2.68558785381857
0.7324330510414282
-0.6347753109025711
-0.34180209048599985
-2.2949568932631417
-3.7598229953459983
-6.298924238956283
-8.642710002288853
-8.05676356145571
-10.10757610437171
-11.572442206454566
-11.279468986037996
-14.209201190203707
-16.357671473258563
-17.82253757534142
-19.385061417563133
-18.994430457007706
-21.045242999923705
-22.510109102006563
-22.119478141451133
-23.19371328297856
-23.87731746395056
-25.63515678644999
-27.100022888532845
-26.807049668116274
-27.783627069504846
-28.564888990615703
-28.369573510337986
-28.369573510337986
-28.369573510337986
-27.392996108949415
-26.61173418783856
-26.807049668116274
-24.853894865339132
-23.389028763256274
-23.682001983672848
-19.775692378118563
-16.84596017395285
-12.74433508812085
-8.838025482566568
-9.71694514381628
-3.7598229953459983
0.537117570763714
-0.34180209048599985
6.494239719233997
11.572442206454566
17.13893339436942
22.60776684214542
21.338216220340275
28.369573510337986
33.44777599755856
32.27588311589227
37.35408560311284
40.96742198825055
44.873731593804834
48.78004119935912
47.90112153810941
51.90508888380255
54.83482108796826
54.15121690699626
57.178606851300835
59.32707713435569
60.694285496299685
62.2568093385214
61.96383611810483
62.9404135194934
63.6240177004654
63.42870222018769
63.42870222018769
63.42870222018769
62.45212481879911
61.67086289768826
61.86617837796597
59.91302357518883
58.350499732967116
58.74113069352254
56.690318150606544
55.22545204852369
51.709773403524835
48.68238345922026
49.26832990005341
46.240939955748836
44.09246967269398
44.580758373388264
40.57679102769512
37.64705882352941
35.4009308003357
33.05714503700313
33.545433737697415
30.518043793392845
28.369573510337986
28.857862211032273
25.830472266727703
23.682001983672848
22.21713588158999
20.654612039368278
20.947585259784848
18.994430457007706
17.52956435492485
17.82253757534142
15.869382772564279
14.306858930342566
11.767757686732281
9.521629663538567
10.009918364232853
7.959105821316854
6.494239719233997
6.884870679789426
3.9551384756237127
1.7090104524299992
1.2207217517357138
0.34180209048599985
0.537117570763714
-1.3183794918745708
-2.783245593957427
-2.392614633401999
-3.466849774929427
-4.150453955901427
-4.052796215762569
-4.052796215762569
-4.052796215762569
-7.861448081177996
-10.79118028534371
-10.205233844510566
-16.064698252841993
-20.45929655909056
-26.123445487144274
-31.592278934920273
-30.322728313115128
-34.424353398947126
-37.35408560311284
-36.67048142214084
-38.72129396505684
-40.186160067139696
-38.818951705195694
-38.1353475242237
-38.33066300450141
-33.44777599755856
-29.736781872281988
-30.615701533531702
-24.65857938506142
-20.263981078812847
-16.45532921339742
-12.549019607843137
-13.427939269092851
-9.326314183260854
-6.39658197909514
-7.080186160067139
-1.2207217517357138
3.076218814373999
7.861448081177996
12.549019607843137
11.47478446631571
16.45532921339742
20.16632333867399
19.287403677424276
24.267948424505988
27.97894254978256
30.908674753948272
34.0337224383917
33.3501182574197
35.4009308003357
36.86579690241855
36.57282368200198
38.525978484779124
39.99084458686198
39.600213626306555
39.69787136644541
39.600213626306555
39.600213626306555
39.600213626306555
39.600213626306555
38.62363622491798
37.84237430380713
36.182192721446555
34.61966887922484
34.91264209964141
31.9829098954757
29.736781872281988
30.22507057297627
27.295338368810558
25.049210345616846
21.728847180895706
18.60379949645228
19.287403677424276
14.404516670481422
10.693522545204852
11.47478446631571
7.470817120622568
4.541084916456855
1.416037232013428
-1.6113527122911422
-0.9277485313191425
-4.931715877012284
-7.861448081177996
-7.177843900205997
-10.205233844510566
-12.353704127565424
-14.795147631036851
-17.041275654230564
-16.55298695353628
-19.58037689784085
-21.728847180895706
-21.24055848020142
-24.17029068436713
-26.416418707560844
-27.783627069504846
-29.443808651865414
-29.053177691309987
-31.00633249408713
-32.471198596169984
-32.178225375753414
-34.131380178530556
-35.596246280613414
-36.182192721446555
-36.96345464255741
-36.768139162279695
-37.74471656366827
-38.525978484779124
-38.33066300450141
-39.307240405889985
-39.99084458686198
-40.772106507972836
-41.5533684290837
-41.358052948805984
-42.33463035019455
-43.11589227130541
-42.92057679102769
-44.873731593804834
-46.33859769588769
-47.90112153810941
-49.365987640192266
-49.073014419775696
-50.04959182116426
-50.73319600213626
-50.635538261997404
-52.49103532463569
-53.95590142671855
-53.66292820630198
-53.66292820630198
-53.66292820630198
-52.6863508049134
-51.90508888380255
-52.10040436408026
-49.17067215991455
-46.92454413672083
-42.62760357061112
-38.818951705195694
-39.600213626306555
-32.764171816586554
-27.588311589227132
-28.760204470893417
-20.84992751964599
-14.892805371175708
-8.642710002288853
-2.392614633401999
-3.7598229953459983
4.052796215762569
10.009918364232853
8.642710002288853
14.697489890897993
19.092088197146563
22.90074006256199
26.807049668116274
25.92813000686656
28.95551995117113
31.103990234225986
30.615701533531702
32.6665140764477
34.131380178530556
34.717326619363696
35.49858854047456
35.303273060196844
34.424353398947126
33.64309147783627
33.74074921797513
32.764171816586554
32.08056763561456
29.346150911726557
27.100022888532845
27.588311589227132
24.560921644922562
22.314793621728846
22.803082322423133
18.89677271686885
15.967040512703136
12.74433508812085
9.619287403677424
10.302891584649425
7.373159380483711
5.127031357289998
5.615320057984283
2.68558785381857
0.43945983062485694
-1.8066681925688564
-4.150453955901427
-3.662165255207141
-5.71297779812314
-7.177843900205997
-6.787212939650568
-7.861448081177996
-8.545052262149996
-10.302891584649425
-11.865415426871138
-11.47478446631571
-12.549019607843137
-13.232623788815136
-13.037308308537423
-14.013885709925994
-14.795147631036851
-16.55298695353628
-18.017853055619135
-17.724879835202564
-18.701457236591136
-19.48271915770199
-19.287403677424276
-21.24055848020142
-22.705424582284277
-24.267948424505988
-25.830472266727703
-25.439841306172273
-28.369573510337986
-30.615701533531702
-30.127412832837415
-35.889219501029984
-40.28381780727855
-44.09246967269398
-47.998779278248264
-47.11985961699855
-50.14724956130312
-52.39337758449683
-51.80743114366369
-51.90508888380255
-51.90508888380255
-49.951934081025406
-48.48706797894255
-48.78004119935912
-43.89715419241627
-40.186160067139696
-41.065079728389414
-35.10795757991913
-30.71335927367056
-26.90470740825513
-22.90074006256199
-23.779659723811704
-19.775692378118563
-16.84596017395285
-17.52956435492485
-10.693522545204852
-5.517662317845426
0.04882887006942855
5.420004577706569
4.150453955901427
12.060730907148852
18.017853055619135
16.650644693675137
23.58434424353399
28.760204470893417
33.3501182574197
38.03768978408484
36.96345464255741
40.96742198825055
43.89715419241627
43.21355001144427
46.240939955748836
48.38941023880369
49.85427634088655
51.416800183108265
51.02616922255284
52.10040436408026
52.78400854505226
52.588693064774546
53.56527046616312
54.24887464713512
55.03013656824598
55.81139848935683
55.61608300907912
55.61608300907912
55.61608300907912
55.61608300907912
54.639505607690545
53.85824368657969
53.07698176546884
52.295719844357976
52.39337758449683
50.44022278171969
48.97535667963683
49.26832990005341
47.31517509727627
45.85030899519341
42.33463035019455
39.20958266575113
39.893186846723125
36.86579690241855
34.717326619363696
35.10795757991913
31.201647974364842
28.27191577019913
25.049210345616846
21.92416266117342
22.60776684214542
19.58037689784085
17.43190661478599
17.920195315480278
14.013885709925994
10.986495765621424
7.861448081177996
4.736400396734569
5.420004577706569
2.392614633401999
0.24414435034714274
0.7324330510414282
-3.1738765545128556
-6.103608758678568
-9.228656443121995
-12.353704127565424
-11.670099946593423
-14.697489890897993
-16.84596017395285
-16.357671473258563
-18.40848401617456
-19.87335011825742
-22.412451361867703
-24.65857938506142
-24.17029068436713
-25.24452582589456
-25.92813000686656
-25.732814526588847
-27.68596932936599
-29.150835431448844
-29.736781872281988
-30.615701533531702
-30.420386053253985
-31.396963454642556
-32.08056763561456
-31.885252155336843
-32.86182955672541
-33.64309147783627
-34.424353398947126
-35.20561532005799
-35.010299839780274
-34.0337224383917
-33.252460517280845
-33.44777599755856
-30.518043793392845
-28.27191577019913
-24.95155260547799
-21.92416266117342
-22.60776684214542
-16.650644693675137
-12.256046387426567
-13.232623788815136
-7.275501640344854
-2.8809033340962844
2.783245593957427
8.154421301594567
6.982528419928283
11.963073167009995
15.674067292286564
14.795147631036851
19.775692378118563
23.389028763256274
26.416418707560844
29.541466392004274
28.857862211032273
31.885252155336843
34.0337224383917
33.545433737697415
35.596246280613414
37.06111238269627
36.67048142214084
36.768139162279695
36.67048142214084
36.67048142214084
36.67048142214084
36.67048142214084
35.69390402075227
34.91264209964141
34.131380178530556
33.3501182574197
33.545433737697415
32.56885633630884
31.787594415197987
31.9829098954757
30.908674753948272
30.22507057297627
28.467231250476843
26.90470740825513
27.1976806286717
26.22110322728313
25.439841306172273
25.63515678644999
23.682001983672848
22.21713588158999
20.55695429922942
18.994430457007706
19.385061417563133
16.45532921339742
14.209201190203707
14.697489890897993
12.646677347981994
11.181811245899137
8.642710002288853
6.39658197909514
6.884870679789426
3.8574807354848555
1.7090104524299992
2.197299153124285
-0.7324330510414282
-2.8809033340962844
-3.36919203479057
-4.248111696040284
-4.052796215762569
-5.0293736171511405
-5.71297779812314
-5.615320057984283
-6.591897459372854
-7.275501640344854
-7.177843900205997
-7.177843900205997
-7.177843900205997
-10.009918364232853
-12.256046387426567
-11.767757686732281
-16.650644693675137
-20.361638818951704
-24.267948424505988
-28.174258030060273
-27.295338368810558
-29.346150911726557
-30.811017013809415
-30.518043793392845
-30.518043793392845
-30.518043793392845
-29.541466392004274
-28.760204470893417
-28.95551995117113
-25.146868085755703
-22.119478141451133
-22.803082322423133
-18.799114976729992
-15.869382772564279
-13.623254749370565
-11.279468986037996
-11.767757686732281
-10.693522545204852
-10.009918364232853
-10.10757610437171
-7.275501640344854
-5.0293736171511405
-0.7324330510414282
2.9785610742351416
2.0996414129854277
8.05676356145571
12.45136186770428
11.47478446631571
17.43190661478599
21.826504921034562
26.514076447699704
31.201647974364842
30.127412832837415
35.20561532005799
38.818951705195694
38.03768978408484
41.943999389639124
44.873731593804834
47.11985961699855
49.46364538033112
48.877698939497975
50.928511482413974
52.39337758449683
52.002746623941405
52.10040436408026
52.002746623941405
51.123826962691695
50.34256504158083
50.44022278171969
48.48706797894255
47.0222018768597
47.31517509727627
44.38544289311055
42.13931486991684
37.84237430380713
34.0337224383917
34.81498435950255
29.9320973525597
26.22110322728313
27.002365148393988
22.021820401312276
18.40848401617456
13.427939269092851
8.838025482566568
9.81460288395514
3.8574807354848555
-0.43945983062485694
0.43945983062485694
-5.420004577706569
-9.81460288395514
-13.623254749370565
-17.52956435492485
-16.650644693675137
-21.63118944075685
-25.24452582589456
-24.4632639047837
-28.467231250476843
-31.396963454642556
-34.52201113908598
-37.64705882352941
-36.86579690241855
-39.893186846723125
-42.13931486991684
-41.5533684290837
-42.62760357061112
-43.311207751583126
-43.21355001144427
-43.21355001144427
-43.21355001144427
-42.236972610055695
-41.45571068894484
-41.651026169222554
-40.57679102769512
-39.893186846723125
-39.014267185473415
-38.23300526436255
-38.42832074464027
-38.33066300450141
-38.33066300450141
-38.33066300450141
-38.33066300450141
-38.33066300450141
-39.307240405889985
-39.99084458686198
-39.79552910658427
-41.74868390936141
-43.21355001144427
-42.92057679102769
-43.89715419241627
-44.580758373388264
-45.362020294499125
-46.14328221560998
-45.947966735332265
-46.92454413672083
-47.705806057831694
-47.51049057755398
-46.533913176165406
-45.75265125505455
-44.97138933394369
-44.19012741283284
-44.38544289311055
-40.479133287556266
-37.549401083390556
-38.1353475242237
-33.252460517280845
-29.541466392004274
-24.560921644922562
-19.971007858396277
-20.947585259784848
-14.990463111314565
-10.595864805065995
-11.572442206454566
-5.615320057984283
-1.2207217517357138
3.466849774929427
8.05676356145571
7.080186160067139
12.060730907148852
15.674067292286564
14.892805371175708
18.89677271686885
21.826504921034562
24.95155260547799
28.076600289921416
27.392996108949415
30.420386053253985
32.56885633630884
32.08056763561456
33.15480277714199
33.838406958113985
34.61966887922484
35.4009308003357
35.20561532005799
35.20561532005799
35.20561532005799
35.20561532005799
34.22903791866941
33.44777599755856
31.68993667505913
30.22507057297627
30.518043793392845
28.564888990615703
27.100022888532845
27.392996108949415
24.4632639047837
22.21713588158999
20.752269779507134
19.18974593728542
19.48271915770199
17.52956435492485
16.064698252841993
16.357671473258563
14.404516670481422
12.939650568398566
12.256046387426567
11.47478446631571
11.670099946593423
10.693522545204852
9.912260624093996
10.10757610437171
9.033340962844282
8.349736781872283
6.591897459372854
5.0293736171511405
5.420004577706569
2.490272373540856
0.24414435034714274
0.7324330510414282
-2.0996414129854277
-4.345769436179141
-6.6895551995117115
-9.033340962844282
-8.545052262149996
-13.427939269092851
-17.041275654230564
-16.260013733119706
-24.072632944228275
-29.9320973525597
-36.27985046158541
-42.529945830472265
-41.065079728389414
-46.14328221560998
-49.85427634088655
-48.97535667963683
-51.02616922255284
-52.49103532463569
-52.10040436408026
-52.19806210421912
-52.19806210421912
-50.24490730144198
-48.78004119935912
-49.073014419775696
-46.14328221560998
-43.89715419241627
-43.40886549172198
-42.529945830472265
-42.72526131074998
-43.604180971999696
-44.38544289311055
-44.19012741283284
-43.21355001144427
-42.43228809033341
-39.79552910658427
-37.4517433432517
-37.94003204394598
-33.05714503700313
-29.346150911726557
-30.22507057297627
-24.267948424505988
-19.87335011825742
-14.11154345006485
-8.74036774242771
-9.912260624093996
-2.0019836728465705
3.7598229953459983
2.490272373540856
9.42397192339971
14.599832150759136
18.21316853589685
22.119478141451133
21.24055848020142
25.24452582589456
28.174258030060273
27.49065384908827
30.518043793392845
32.764171816586554
34.131380178530556
35.69390402075227
35.303273060196844
37.35408560311284
38.818951705195694
38.42832074464027
39.5025558861677
40.186160067139696
40.96742198825055
41.74868390936141
41.5533684290837
42.529945830472265
43.21355001144427
43.018234531166556
43.11589227130541
43.018234531166556
42.04165712977798
41.358052948805984
41.45571068894484
39.5025558861677
38.03768978408484
38.33066300450141
34.424353398947126
31.494621194781413
28.27191577019913
25.146868085755703
25.830472266727703
21.92416266117342
18.994430457007706
19.58037689784085
16.55298695353628
14.404516670481422
11.08415350576028
7.959105821316854
8.642710002288853
6.591897459372854
5.127031357289998
5.420004577706569
2.490272373540856
0.34180209048599985
-1.0254062714579995
-2.5879301136797133
-2.2949568932631417
-3.2715342946517127
-4.052796215762569
-3.8574807354848555
-3.8574807354848555
-3.8574807354848555
-4.834058136873426
-5.615320057984283
-5.420004577706569
-5.420004577706569
-5.420004577706569
-5.420004577706569
-6.39658197909514
-7.177843900205997
-7.959105821316854
-8.74036774242771
-8.545052262149996
-10.498207064927138
-11.963073167009995
-11.572442206454566
-12.646677347981994
-13.330281528953995
-15.088120851453422
-16.650644693675137
-16.260013733119706
-17.334248874647134
-18.017853055619135
-17.82253757534142
-18.799114976729992
-19.58037689784085
-19.385061417563133
-19.385061417563133
-19.385061417563133
-17.52956435492485
-15.967040512703136
-16.357671473258563
-12.45136186770428
-9.521629663538567
-5.322346837567712
-1.513694972152285
-2.392614633401999
3.466849774929427
7.861448081177996
6.884870679789426
12.84199282825971
17.236591134508277
22.021820401312276
26.61173418783856
25.63515678644999
31.592278934920273
35.98687724116884
35.010299839780274
39.99084458686198
43.604180971999696
48.48706797894255
53.07698176546884
52.10040436408026
56.1043717097734
59.03410391393912
58.350499732967116
62.2568093385214
65.18654154268711
66.45609216449226
68.01861600671397
67.62798504615854
68.70222018768597
69.38582436865796
69.19050888838025
70.16708628976883
70.85069047074083
68.79987792782482
67.33501182574197
67.62798504615854
65.57717250324254
64.11230640115969
64.40527962157626
60.49897001602197
57.56923781185626
54.346532387273975
51.22148470283055
51.90508888380255
46.92454413672083
43.311207751583126
44.09246967269398
40.08850232700084
37.15877012283513
33.93606469825284
30.811017013809415
31.494621194781413
28.467231250476843
26.22110322728313
26.709391927977418
23.779659723811704
21.533531700617992
19.18974593728542
16.84596017395285
17.334248874647134
14.404516670481422
12.158388647287708
12.646677347981994
8.74036774242771
5.71297779812314
1.6113527122911422
-2.0996414129854277
-1.2207217517357138
-8.154421301594567
-13.330281528953995
-12.158388647287708
-21.92416266117342
-29.346150911726557
-37.15877012283513
-44.97138933394369
-43.21355001144427
-49.365987640192266
-53.66292820630198
-52.6863508049134
-54.83482108796826
-56.20202944991226
-54.932478828107115
-54.24887464713512
-54.346532387273975
-50.53788052185855
-47.51049057755398
-48.19409475852598
-43.21355001144427
-39.5025558861677
-37.4517433432517
-35.10795757991913
-35.596246280613414
-35.49858854047456
-35.49858854047456
-35.49858854047456
-32.56885633630884
-30.322728313115128
-27.002365148393988
-23.974975204089418
-24.560921644922562
-18.701457236591136
-14.306858930342566
-15.283436331731137
-8.349736781872283
-3.1738765545128556
3.1738765545128556
9.42397192339971
7.959105821316854
16.943617914091707
23.48668650339513
22.021820401312276
28.076600289921416
32.471198596169984
37.15877012283513
41.84634164950027
40.772106507972836
43.89715419241627
46.04562447547112
45.55733577477684
47.51049057755398
48.97535667963683
49.658960860608836
50.44022278171969
50.24490730144198
49.26832990005341
48.48706797894255
48.68238345922026
47.705806057831694
46.92454413672083
46.14328221560998
45.362020294499125
45.45967803463798
43.50652323186084
42.04165712977798
42.33463035019455
40.38147554741741
38.818951705195694
36.27985046158541
34.0337224383917
34.52201113908598
31.494621194781413
29.346150911726557
29.736781872281988
25.830472266727703
22.90074006256199
19.678034637979707
16.55298695353628
17.236591134508277
13.330281528953995
10.400549324788281
10.986495765621424
7.080186160067139
4.150453955901427
0.9277485313191425
-2.0996414129854277
-1.416037232013428
-5.322346837567712
-8.252079041733426
-7.666132600900283
-11.572442206454566
-14.50217441062028
-16.748302433813993
-19.092088197146563
-18.60379949645228
-22.510109102006563
-25.439841306172273
-24.756237125200276
-27.783627069504846
-29.9320973525597
-32.37354085603113
-34.61966887922484
-34.131380178530556
-36.182192721446555
-37.549401083390556
-37.256427862973986
-40.186160067139696
-42.33463035019455
-43.79949645227741
-45.362020294499125
-44.97138933394369
-46.92454413672083
-48.38941023880369
-48.09643701838712
-50.04959182116426
-51.51445792324712
-52.10040436408026
-52.881666285191116
-52.6863508049134
-53.66292820630198
-54.44419012741283
-54.24887464713512
-54.24887464713512
-54.24887464713512
-54.24887464713512
-54.15121690699626
-54.15121690699626
-53.17463950560769
-52.49103532463569
-52.588693064774546
-50.635538261997404
-49.17067215991455
-46.63157091630426
-44.28778515297169
-44.77607385366598
-40.86976424811169
-37.84237430380713
-38.525978484779124
-33.545433737697415
-29.9320973525597
-24.95155260547799
-20.361638818951704
-21.338216220340275
-14.404516670481422
-9.228656443121995
-10.400549324788281
-4.443427176317998
-0.04882887006942855
4.638742656595713
9.326314183260854
8.252079041733426
13.232623788815136
16.943617914091707
16.064698252841993
20.068665598535134
22.998397802700847
25.24452582589456
27.588311589227132
27.002365148393988
30.029755092698558
32.178225375753414
31.68993667505913
33.74074921797513
35.20561532005799
35.79156176089113
36.57282368200198
36.37750820172427
35.49858854047456
34.717326619363696
34.91264209964141
33.838406958113985
33.15480277714199
30.420386053253985
28.174258030060273
28.66254673075456
25.63515678644999
23.389028763256274
23.87731746395056
18.994430457007706
15.381094071869994
12.353704127565424
9.130998702983138
9.912260624093996
4.931715877012284
1.2207217517357138
2.0996414129854277
-1.8066681925688564
-4.736400396734569
-7.959105821316854
-11.08415350576028
-10.302891584649425
-13.330281528953995
-15.576409552147707
-15.088120851453422
-17.041275654230564
-18.506141756313422
-20.068665598535134
-21.63118944075685
-21.338216220340275
-25.146868085755703
-28.174258030060273
-27.49065384908827
-33.3501182574197
-37.74471656366827
-41.5533684290837
-45.45967803463798
-44.580758373388264
-47.60814831769284
-49.75661860074769
-49.26832990005341
-49.365987640192266
-49.365987640192266
-47.412832837415124
-45.85030899519341
-46.240939955748836
-42.33463035019455
-39.307240405889985
-39.99084458686198
-35.010299839780274
-31.396963454642556
-30.22507057297627
-28.564888990615703
-28.95551995117113
-28.857862211032273
-28.857862211032273
-28.857862211032273
-28.857862211032273
-28.857862211032273
-27.881284809643702
-27.100022888532845
-27.295338368810558
-25.342183566033416
-23.87731746395056
-24.17029068436713
-20.263981078812847
-17.334248874647134
-13.13496604867628
-9.326314183260854
-10.205233844510566
-4.248111696040284
0.04882887006942855
-0.8300907911802854
4.052796215762569
7.763790341039139
12.646677347981994
17.334248874647134
16.260013733119706
20.263981078812847
23.19371328297856
22.510109102006563
25.537499046311133
27.783627069504846
29.150835431448844
30.71335927367056
30.420386053253985
31.396963454642556
32.08056763561456
31.9829098954757
31.00633249408713
30.22507057297627
29.443808651865414
28.66254673075456
28.857862211032273
26.90470740825513
25.439841306172273
25.732814526588847
22.803082322423133
20.55695429922942
18.21316853589685
15.869382772564279
16.357671473258563
12.45136186770428
9.42397192339971
10.10757610437171
7.080186160067139
4.931715877012284
2.490272373540856
0.14648661020828566
0.7324330510414282
-1.2207217517357138
-2.68558785381857
-2.392614633401999
-4.345769436179141
-5.810635538261997
-7.373159380483711
-8.935683222705425
-8.642710002288853
-10.595864805065995
-12.060730907148852
-11.670099946593423
-13.720912489509422
-15.185778591592278
-16.748302433813993
-18.310826276035705
-17.920195315480278
-19.87335011825742
-21.338216220340275
-21.045242999923705
-22.998397802700847
-24.4632639047837
-26.025787747005417
-27.588311589227132
-27.295338368810558
-28.27191577019913
-28.95551995117113
-28.857862211032273
-30.71335927367056
-32.178225375753414
-33.838406958113985
-35.303273060196844
-35.010299839780274
-36.96345464255741
-38.42832074464027
-38.03768978408484
-40.08850232700084
-41.5533684290837
-43.99481193255512
-46.33859769588769
-45.75265125505455
-46.826886396581976
-47.51049057755398
-47.412832837415124
-49.26832990005341
-50.73319600213626
-51.416800183108265
-52.19806210421912
-52.002746623941405
-52.002746623941405
-52.002746623941405
-52.002746623941405
-51.90508888380255
-51.90508888380255
-50.04959182116426
-48.48706797894255
-48.78004119935912
-45.85030899519341
-43.604180971999696
-44.09246967269398
-39.20958266575113
-35.49858854047456
-30.615701533531702
-25.92813000686656
-27.002365148393988
-21.045242999923705
-16.55298695353628
-17.52956435492485
-10.693522545204852
-5.517662317845426
-0.9277485313191425
3.662165255207141
2.68558785381857
7.666132600900283
11.279468986037996
10.498207064927138
14.50217441062028
17.43190661478599
19.58037689784085
22.021820401312276
21.43587396047913
24.4632639047837
26.61173418783856
26.123445487144274
28.174258030060273
29.541466392004274
29.2484931715877
29.346150911726557
29.2484931715877
29.2484931715877
29.2484931715877
29.2484931715877
27.295338368810558
25.830472266727703
24.267948424505988
22.705424582284277
22.998397802700847
22.021820401312276
21.24055848020142
21.43587396047913
20.45929655909056
19.678034637979707
18.89677271686885
18.11551079575799
18.310826276035705
19.18974593728542
19.87335011825742
19.775692378118563
19.775692378118563
19.775692378118563
18.799114976729992
18.017853055619135
18.21316853589685
17.236591134508277
16.45532921339742
16.650644693675137
15.674067292286564
14.892805371175708
13.13496604867628
11.670099946593423
11.963073167009995
7.080186160067139
3.36919203479057
4.248111696040284
-3.466849774929427
-9.42397192339971
-14.795147631036851
-20.263981078812847
-18.994430457007706
-22.119478141451133
-24.267948424505988
-23.779659723811704
-24.853894865339132
-25.63515678644999
-23.48668650339513
-22.021820401312276
-22.412451361867703
-17.52956435492485
-13.81857022964828
-14.599832150759136
-8.74036774242771
-4.345769436179141
-3.36919203479057
-1.7090104524299992
-2.0019836728465705
-2.8809033340962844
-3.662165255207141
-3.466849774929427
-4.541084916456855
-5.224689097428855
-6.005951018539712
-6.787212939650568
-6.591897459372854
-6.6895551995117115
-6.6895551995117115
-6.6895551995117115
-5.71297779812314
-4.931715877012284
-3.1738765545128556
-1.7090104524299992
-2.0019836728465705
1.8066681925688564
4.736400396734569
4.052796215762569
9.912260624093996
14.404516670481422
19.092088197146563
23.779659723811704
22.705424582284277
29.63912413214313
34.81498435950255
33.64309147783627
39.600213626306555
43.99481193255512
48.68238345922026
53.36995498588541
52.295719844357976
58.25284199282826
62.64744029907683
61.67086289768826
66.65140764476998
70.26474402990769
74.17105363546197
78.07736324101626
77.19844357976653
80.2258335240711
82.37430380712597
81.88601510643167
83.83916990920882
85.30403601129167
85.88998245212481
86.67124437323568
86.47592889295797
85.49935149156939
84.71808957045853
84.91340505073624
83.83916990920882
83.15556572823682
80.42114900434882
78.07736324101626
78.56565194171054
75.53826199740597
73.3897917143511
73.78042267490653
69.87411306935225
66.94438086518655
62.745098039215684
58.8387884336614
59.71770809491112
53.760585946440834
49.365987640192266
50.34256504158083
44.38544289311055
39.893186846723125
36.0845349813077
32.178225375753414
33.05714503700313
27.100022888532845
22.705424582284277
23.682001983672848
18.701457236591136
14.990463111314565
11.08415350576028
7.177843900205997
7.959105821316854
3.9551384756237127
1.0254062714579995
1.7090104524299992
-1.2207217517357138
-3.36919203479057
-5.810635538261997
-8.154421301594567
-7.568474860761425
-11.47478446631571
-14.50217441062028
-13.81857022964828
-16.84596017395285
-18.994430457007706
-22.314793621728846
-25.342183566033416
-24.65857938506142
-28.66254673075456
-31.592278934920273
-30.908674753948272
-33.93606469825284
-36.0845349813077
-39.40489814602884
-42.529945830472265
-41.84634164950027
-44.77607385366598
-47.0222018768597
-46.43625543602655
-49.46364538033112
-51.61211566338598
-53.07698176546884
-54.639505607690545
-54.24887464713512
-55.22545204852369
-56.006713969634546
-55.81139848935683
-53.85824368657969
-52.39337758449683
-49.85427634088655
-47.51049057755398
-47.998779278248264
-42.13931486991684
-37.74471656366827
-38.72129396505684
-31.787594415197987
-26.61173418783856
-21.045242999923705
-15.576409552147707
-16.84596017395285
-9.81460288395514
-4.736400396734569
-5.810635538261997
0.04882887006942855
4.443427176317998
8.252079041733426
12.158388647287708
11.279468986037996
15.283436331731137
18.21316853589685
17.52956435492485
21.533531700617992
24.4632639047837
26.61173418783856
29.053177691309987
28.467231250476843
29.541466392004274
30.22507057297627
30.029755092698558
29.150835431448844
28.369573510337986
27.588311589227132
26.807049668116274
27.002365148393988
24.072632944228275
21.826504921034562
22.314793621728846
19.385061417563133
17.13893339436942
14.795147631036851
12.45136186770428
12.939650568398566
9.912260624093996
7.763790341039139
8.252079041733426
4.248111696040284
1.3183794918745708
-0.7324330510414282
-3.1738765545128556
-2.5879301136797133
-6.591897459372854
-9.521629663538567
-8.838025482566568
-11.865415426871138
-14.013885709925994
-16.357671473258563
-18.701457236591136
-18.21316853589685
-23.096055542839704
-26.807049668116274
-25.92813000686656
-31.885252155336843
-36.27985046158541
-41.943999389639124
-47.31517509727627
-46.14328221560998
-50.24490730144198
-53.07698176546884
-52.39337758449683
-54.44419012741283
-55.90905622949569
-55.51842526894026
-55.61608300907912
-55.61608300907912
-53.66292820630198
-52.19806210421912
-52.49103532463569
-50.44022278171969
-48.97535667963683
-49.26832990005341
-49.17067215991455
-49.17067215991455
-52.10040436408026
-54.24887464713512
-53.760585946440834
-55.713740749217976
-57.178606851300835
-57.86221103227283
-58.643472953383686
-58.44815747310597
-58.44815747310597
-58.44815747310597
-58.350499732967116
-57.37392233157855
-56.690318150606544
-54.932478828107115
-53.36995498588541
-53.66292820630198
-50.73319600213626
-48.48706797894255
-48.97535667963683
-44.09246967269398
-40.38147554741741
-35.4009308003357
-30.811017013809415
-31.787594415197987
-25.830472266727703
-21.43587396047913
-22.412451361867703
-15.47875181200885
-10.302891584649425
-5.71297779812314
-1.0254062714579995
-2.0996414129854277
2.783245593957427
6.494239719233997
5.615320057984283
9.619287403677424
12.549019607843137
14.795147631036851
17.13893339436942
16.650644693675137
18.60379949645228
20.068665598535134
19.775692378118563
21.728847180895706
23.19371328297856
23.87731746395056
24.65857938506142
24.4632639047837
24.4632639047837
24.4632639047837
24.4632639047837
25.439841306172273
26.123445487144274
25.92813000686656
26.025787747005417
26.025787747005417
25.049210345616846
24.267948424505988
24.4632639047837
22.510109102006563
20.947585259784848
19.385061417563133
17.82253757534142
18.21316853589685
15.185778591592278
13.037308308537423
13.525597009231708
10.498207064927138
8.349736781872283
5.908293278400855
3.5645075150682843
4.150453955901427
1.1230640115968566
-0.9277485313191425
-0.43945983062485694
-3.466849774929427
-5.615320057984283
-7.080186160067139
-8.642710002288853
-8.349736781872283
-10.302891584649425
-11.767757686732281
-11.377126726176853
-13.427939269092851
-14.892805371175708
-16.45532921339742
-18.017853055619135
-17.627222095063708
-19.58037689784085
-21.045242999923705
-20.752269779507134
-21.728847180895706
-22.510109102006563
-23.291371023117417
-24.072632944228275
-23.87731746395056
-24.853894865339132
-25.537499046311133
-25.439841306172273
-26.416418707560844
-27.100022888532845
-27.881284809643702
-28.66254673075456
-28.467231250476843
-29.443808651865414
-30.22507057297627
-30.029755092698558
-31.00633249408713
-31.68993667505913
-31.592278934920273
-31.592278934920273
-31.592278934920273
-31.592278934920273
-31.592278934920273
-31.494621194781413
-30.615701533531702
-29.834439612420844
-28.076600289921416
-26.514076447699704
-26.90470740825513
-22.998397802700847
-19.971007858396277
-20.654612039368278
-15.771725032425422
-12.060730907148852
-7.177843900205997
-2.490272373540856
-3.5645075150682843
1.416037232013428
5.0293736171511405
4.248111696040284
9.228656443121995
12.84199282825971
16.84596017395285
20.654612039368278
19.775692378118563
23.779659723811704
26.709391927977418
26.123445487144274
29.053177691309987
31.2993057145037
33.64309147783627
35.98687724116884
35.4009308003357
37.4517433432517
38.91660944533455
38.525978484779124
39.600213626306555
40.28381780727855
40.08850232700084
40.186160067139696
40.08850232700084
40.08850232700084
40.08850232700084
40.08850232700084
38.1353475242237
36.67048142214084
34.131380178530556
31.787594415197987
32.27588311589227
28.369573510337986
25.439841306172273
26.025787747005417
22.119478141451133
19.092088197146563
14.990463111314565
11.181811245899137
11.963073167009995
6.103608758678568
1.7090104524299992
2.68558785381857
-1.3183794918745708
-4.248111696040284
-8.349736781872283
-12.158388647287708
-11.377126726176853
-16.260013733119706
-19.971007858396277
-19.092088197146563
-26.90470740825513
-32.86182955672541
-37.256427862973986
-41.943999389639124
-40.86976424811169
-43.99481193255512
-46.14328221560998
-45.654993514915695
-45.75265125505455
-45.75265125505455
-42.822919050888835
-40.57679102769512
-41.065079728389414
-35.20561532005799
-30.811017013809415
-31.787594415197987
-25.830472266727703
-21.43587396047913
-19.48271915770199
-17.041275654230564
-17.627222095063708
-18.40848401617456
-19.18974593728542
-18.994430457007706
-19.971007858396277
-20.752269779507134
-21.533531700617992
-22.314793621728846
-22.119478141451133
-23.096055542839704
-23.779659723811704
-23.682001983672848
-24.65857938506142
-25.342183566033416
-25.146868085755703
-25.24452582589456
-25.146868085755703
-24.267948424505988
-23.48668650339513
-23.682001983672848
-20.752269779507134
-18.506141756313422
-14.209201190203707
-10.400549324788281
-11.279468986037996
-5.322346837567712
-0.9277485313191425
-1.9043259327077133
4.931715877012284
10.10757610437171
14.697489890897993
19.385061417563133
18.310826276035705
25.24452582589456
30.322728313115128
29.2484931715877
34.22903791866941
37.84237430380713
41.84634164950027
45.654993514915695
44.77607385366598
47.90112153810941
50.04959182116426
49.56130312046998
52.49103532463569
54.639505607690545
56.1043717097734
57.66689555199512
57.27626459143969
58.25284199282826
59.03410391393912
58.8387884336614
58.8387884336614
58.8387884336614
58.8387884336614
58.74113069352254
58.74113069352254
56.7879758907454
55.32310978866255
55.61608300907912
52.6863508049134
50.44022278171969
46.14328221560998
42.33463035019455
43.11589227130541
38.1353475242237
34.52201113908598
35.303273060196844
30.322728313115128
26.61173418783856
21.728847180895706
17.13893339436942
18.11551079575799
14.11154345006485
11.181811245899137
11.767757686732281
7.861448081177996
4.834058136873426
2.68558785381857
0.24414435034714274
0.8300907911802854
-1.1230640115968566
-2.5879301136797133
-2.197299153124285
-3.2715342946517127
-3.9551384756237127
-4.834058136873426
-5.517662317845426
-5.420004577706569
-6.39658197909514
-7.080186160067139
-6.982528419928283
-7.959105821316854
-8.642710002288853
-11.377126726176853
-13.623254749370565
-13.13496604867628
-16.064698252841993
-18.310826276035705
-17.82253757534142
-20.752269779507134
-22.998397802700847
-26.318760967421987
-29.346150911726557
-28.66254673075456
-32.6665140764477
-35.49858854047456
-34.91264209964141
-37.84237430380713
-40.08850232700084
-41.45571068894484
-43.018234531166556
-42.72526131074998
-43.70183871213855
-44.38544289311055
-44.28778515297169
-44.28778515297169
-44.28778515297169
-41.358052948805984
-39.11192492561227
-39.600213626306555
-35.69390402075227
-32.6665140764477
-33.3501182574197
-26.514076447699704
-21.338216220340275
-14.892805371175708
-8.642710002288853
-10.009918364232853
-1.1230640115968566
5.420004577706569
3.9551384756237127
12.84199282825971
19.48271915770199
24.65857938506142
30.22507057297627
28.95551995117113
34.91264209964141
39.307240405889985
38.33066300450141
42.33463035019455
45.26436255436027
46.533913176165406
48.09643701838712
47.705806057831694
50.635538261997404
52.881666285191116
52.39337758449683
53.36995498588541
54.15121690699626
54.932478828107115
55.61608300907912
55.420767528801406
55.51842526894026
55.420767528801406
55.420767528801406
53.467612726024264
52.002746623941405
50.44022278171969
48.877698939497975
49.17067215991455
45.26436255436027
42.33463035019455
42.92057679102769
38.91660944533455
35.98687724116884
31.885252155336843
27.97894254978256
28.857862211032273
23.87731746395056
20.16632333867399
21.045242999923705
17.041275654230564
14.11154345006485
10.888838025482567
7.763790341039139
8.44739452201114
2.5879301136797133
-1.7090104524299992
-0.7324330510414282
-8.642710002288853
-14.50217441062028
-19.87335011825742
-25.342183566033416
-24.17029068436713
-27.295338368810558
-29.443808651865414
-28.95551995117113
-29.9320973525597
-30.71335927367056
-29.541466392004274
-28.857862211032273
-28.95551995117113
-26.123445487144274
-23.87731746395056
-24.365606164644845
-21.338216220340275
-19.18974593728542
-19.678034637979707
-19.48271915770199
-19.58037689784085
-21.43587396047913
-22.90074006256199
-22.60776684214542
-23.58434424353399
-24.267948424505988
-26.025787747005417
-27.588311589227132
-27.1976806286717
-27.295338368810558
-27.295338368810558
-27.295338368810558
-28.174258030060273
-28.95551995117113
-29.736781872281988
-30.518043793392845
-30.322728313115128
-31.2993057145037
-31.9829098954757
-31.885252155336843
-32.86182955672541
-33.545433737697415
-33.3501182574197
-33.3501182574197
-33.3501182574197
-33.3501182574197
-33.3501182574197
-33.3501182574197
-31.396963454642556
-29.9320973525597
-27.392996108949415
-25.049210345616846
-25.537499046311133
-21.63118944075685
-18.701457236591136
-19.385061417563133
-15.381094071869994
-12.45136186770428
-10.205233844510566
-7.861448081177996
-8.349736781872283
-4.443427176317998
-1.513694972152285
-2.0996414129854277
0.8300907911802854
2.9785610742351416
5.322346837567712
7.666132600900283
7.177843900205997
10.10757610437171
12.353704127565424
11.865415426871138
13.81857022964828
15.283436331731137
15.967040512703136
16.748302433813993
16.55298695353628
16.650644693675137
16.55298695353628
16.55298695353628
15.674067292286564
14.892805371175708
12.158388647287708
9.912260624093996
10.400549324788281
6.494239719233997
3.5645075150682843
4.150453955901427
0.24414435034714274
-2.5879301136797133
-5.810635538261997
-8.935683222705425
-8.252079041733426
-11.181811245899137
-13.427939269092851
-12.939650568398566
-14.892805371175708
-16.357671473258563
-18.017853055619135
-19.48271915770199
-19.18974593728542
-20.16632333867399
-20.947585259784848
-20.752269779507134
-21.728847180895706
-22.510109102006563
-23.291371023117417
-23.974975204089418
-23.87731746395056
-24.853894865339132
-25.537499046311133
-25.342183566033416
-26.318760967421987
-27.100022888532845
-27.881284809643702
-28.66254673075456
-28.467231250476843
-31.396963454642556
-33.545433737697415
-33.05714503700313
-35.10795757991913
-36.475165941863125
-38.1353475242237
-39.600213626306555
-39.307240405889985
-41.26039520866713
-42.72526131074998
-42.33463035019455
-43.40886549172198
-44.09246967269398
-44.873731593804834
-45.654993514915695
-45.45967803463798
-45.45967803463798
-45.45967803463798
-45.45967803463798
-46.33859769588769
-47.11985961699855
-46.92454413672083
-46.92454413672083
-46.92454413672083
-46.92454413672083
-46.92454413672083
-46.92454413672083
-46.826886396581976
-46.826886396581976
-45.85030899519341
-45.16670481422141
-45.26436255436027
-42.33463035019455
-40.08850232700084
-40.57679102769512
-36.67048142214084
-33.74074921797513
-28.66254673075456
-23.974975204089418
-25.049210345616846
-18.11551079575799
-12.939650568398566
-14.11154345006485
-7.177843900205997
-2.0019836728465705
3.466849774929427
8.838025482566568
7.666132600900283
13.623254749370565
18.017853055619135
17.041275654230564
22.021820401312276
25.732814526588847
28.66254673075456
31.885252155336843
31.103990234225986
34.131380178530556
36.37750820172427
35.79156176089113
36.86579690241855
37.549401083390556
37.4517433432517
37.4517433432517
37.4517433432517
35.49858854047456
34.0337224383917
34.32669565880827
32.37354085603113
30.811017013809415
27.392996108949415
24.267948424505988
24.95155260547799
20.947585259784848
18.017853055619135
18.701457236591136
15.674067292286564
13.525597009231708
10.10757610437171
7.080186160067139
7.763790341039139
2.783245593957427
-0.7324330510414282
0.04882887006942855
-6.787212939650568
-11.963073167009995
-16.55298695353628
-21.24055848020142
-20.16632333867399
-22.314793621728846
-23.779659723811704
-23.389028763256274
-21.63118944075685
-20.068665598535134
-16.55298695353628
-13.525597009231708
-14.209201190203707
-7.373159380483711
-2.197299153124285
-3.36919203479057
2.490272373540856
6.982528419928283
8.838025482566568
11.279468986037996
10.693522545204852
9.912260624093996
9.130998702983138
9.228656443121995
7.275501640344854
5.810635538261997
5.224689097428855
4.443427176317998
4.541084916456855
2.5879301136797133
1.1230640115968566
1.513694972152285
-0.43945983062485694
-1.9043259327077133
-3.466849774929427
-5.0293736171511405
-4.638742656595713
-6.6895551995117115
-8.154421301594567
-7.763790341039139
-7.861448081177996
-7.861448081177996
-7.861448081177996
-7.861448081177996
-7.861448081177996
-4.931715877012284
-2.783245593957427
-3.2715342946517127
1.513694972152285
5.224689097428855
11.08415350576028
16.45532921339742
15.283436331731137
22.21713588158999
27.392996108949415
26.22110322728313
34.131380178530556
39.99084458686198
45.362020294499125
50.83085374227512
49.56130312046998
55.51842526894026
59.91302357518883
58.936446173800256
62.9404135194934
65.8701457236591
68.99519340810254
72.12024109254597
71.33897917143511
73.3897917143511
74.85465781643397
74.46402685587854
75.53826199740597
76.22186617837797
77.88204776073853
79.44457160296025
79.05394064240483
80.03051804379339
80.81177996490425
80.61646448462653
80.61646448462653
80.51880674448768
79.54222934309911
78.85862516212711
78.95628290226597
77.00312809948882
75.44060425726711
75.83123521782254
71.8272678721294
68.89753566796368
64.79591058213168
60.8896009765774
61.67086289768826
56.690318150606544
53.07698176546884
53.85824368657969
47.90112153810941
43.50652323186084
38.72129396505684
34.0337224383917
35.10795757991913
30.029755092698558
26.416418707560844
27.1976806286717
22.21713588158999
18.506141756313422
15.576409552147707
12.353704127565424
13.037308308537423
9.130998702983138
6.201266498817426
6.787212939650568
2.8809033340962844
-0.04882887006942855
-3.1738765545128556
-6.298924238956283
-5.615320057984283
-9.521629663538567
-12.45136186770428
-11.865415426871138
-16.748302433813993
-20.45929655909056
-23.389028763256274
-26.61173418783856
-25.830472266727703
-29.834439612420844
-32.764171816586554
-32.08056763561456
-36.0845349813077
-39.014267185473415
-41.16273746852827
-43.50652323186084
-43.018234531166556
-45.947966735332265
-48.09643701838712
-47.60814831769284
-49.658960860608836
-51.123826962691695
-51.709773403524835
-52.49103532463569
-52.295719844357976
-52.295719844357976
-52.295719844357976
-52.295719844357976
-51.31914244296941
-50.53788052185855
-47.80346379797055
-45.55733577477684
-46.04562447547112
-41.16273746852827
-37.4517433432517
-38.23300526436255
-32.37354085603113
-27.881284809643702
-22.21713588158999
-16.748302433813993
-18.017853055619135
-10.10757610437171
-4.150453955901427
-5.517662317845426
2.392614633401999
8.252079041733426
12.646677347981994
17.43190661478599
16.357671473258563
22.314793621728846
26.709391927977418
25.732814526588847
30.71335927367056
34.32669565880827
36.37750820172427
38.72129396505684
38.23300526436255
41.16273746852827
43.40886549172198
42.92057679102769
44.873731593804834
46.33859769588769
45.947966735332265
46.04562447547112
46.04562447547112
46.04562447547112
45.947966735332265
45.947966735332265
44.97138933394369
44.28778515297169
42.529945830472265
40.96742198825055
41.26039520866713
39.307240405889985
37.84237430380713
38.1353475242237
35.20561532005799
32.95948729686427
31.494621194781413
29.9320973525597
30.22507057297627
25.439841306172273
21.728847180895706
22.510109102006563
16.55298695353628
12.158388647287708
6.494239719233997
1.0254062714579995
2.2949568932631417
-1.7090104524299992
