ppg
-35.596246280613414
-32.86182955672541
-30.615701533531702
-31.103990234225986
-26.22110322728313
-22.510109102006563
-23.291371023117417
-17.43190661478599
-12.939650568398566
-7.275501640344854
-1.9043259327077133
-3.076218814373999
2.8809033340962844
7.275501640344854
6.298924238956283
12.158388647287708
16.55298695353628
19.48271915770199
22.60776684214542
21.92416266117342
24.95155260547799
27.100022888532845
26.61173418783856
28.66254673075456
30.029755092698558
30.71335927367056
31.494621194781413
31.2993057145037
31.2993057145037
31.2993057145037
31.2993057145037
29.346150911726557
27.881284809643702
25.342183566033416
22.998397802700847
23.58434424353399
19.58037689784085
16.650644693675137
17.334248874647134
13.330281528953995
10.400549324788281
7.177843900205997
4.150453955901427
4.834058136873426
1.8066681925688564
-0.34180209048599985
0.04882887006942855
-2.783245593957427
-5.0293736171511405
-6.39658197909514
-8.05676356145571
-7.666132600900283
-9.619287403677424
-11.08415350576028
-10.79118028534371
-11.767757686732281
-12.549019607843137
-14.306858930342566
-15.771725032425422
-15.47875181200885
-17.43190661478599
-18.89677271686885
-18.60379949645228
-20.55695429922942
-22.021820401312276
-24.560921644922562
-26.807049668116274
-26.318760967421987
-28.27191577019913
-29.736781872281988
-29.443808651865414
-32.37354085603113
-34.52201113908598
-35.98687724116884
-37.549401083390556
-37.15877012283513
-39.20958266575113
-40.57679102769512
-40.28381780727855
-43.21355001144427
-45.362020294499125
-46.826886396581976
-48.38941023880369
-47.998779278248264
-50.928511482413974
-53.17463950560769
-52.588693064774546
-54.639505607690545
-56.1043717097734
-57.66689555199512
-59.13176165407798
-58.8387884336614
-60.79194323643854
-62.2568093385214
-61.86617837796597
-62.9404135194934
-63.6240177004654
-62.45212481879911
-61.768520637827116
-61.86617837796597
-59.91302357518883
-58.44815747310597
-58.74113069352254
-54.83482108796826
-51.80743114366369
-46.72922865644312
-42.13931486991684
-43.11589227130541
-37.15877012283513
-32.764171816586554
-33.74074921797513
-26.807049668116274
-21.63118944075685
-17.041275654230564
-12.353704127565424
-13.427939269092851
-8.349736781872283
-4.736400396734569
-5.517662317845426
-1.513694972152285
1.3183794918745708
2.5879301136797133
4.150453955901427
3.8574807354848555
5.810635538261997
7.275501640344854
6.982528419928283
6.982528419928283
6.982528419928283
6.982528419928283
6.982528419928283
6.982528419928283
6.005951018539712
5.322346837567712
5.420004577706569
1.6113527122911422
-1.2207217517357138
-7.275501640344854
-12.646677347981994
-11.47478446631571
-18.40848401617456
-23.48668650339513
-22.412451361867703
-27.392996108949415
-31.00633249408713
-31.201647974364842
-32.08056763561456
-31.885252155336843
-31.885252155336843
-31.885252155336843
-31.885252155336843
-28.076600289921416
-25.049210345616846
-22.90074006256199
-20.45929655909056
-20.947585259784848
-20.84992751964599
-20.84992751964599
-20.84992751964599
-23.779659723811704
-25.92813000686656
-27.392996108949415
-28.95551995117113
-28.564888990615703
-30.518043793392845
-31.9829098954757
-31.68993667505913
-33.64309147783627
-35.10795757991913
-35.69390402075227
-36.57282368200198
-36.37750820172427
-37.35408560311284
-38.03768978408484
-37.84237430380713
-38.818951705195694
-39.600213626306555
-39.40489814602884
-39.40489814602884
-39.40489814602884
-40.38147554741741
-41.065079728389414
-40.86976424811169
-40.96742198825055
-40.86976424811169
-41.84634164950027
-42.529945830472265
-42.43228809033341
-42.43228809033341
-42.43228809033341
-42.43228809033341
-43.311207751583126
-44.09246967269398
-43.89715419241627
-43.89715419241627
-43.89715419241627
-42.92057679102769
-42.13931486991684
-42.33463035019455
-40.38147554741741
-38.818951705195694
-35.4009308003357
-32.27588311589227
-32.95948729686427
-28.95551995117113
-26.025787747005417
-26.709391927977418
-20.84992751964599
-16.357671473258563
-10.693522545204852
-5.224689097428855
-6.494239719233997
-0.43945983062485694
3.8574807354848555
2.8809033340962844
8.838025482566568
13.232623788815136
16.064698252841993
19.18974593728542
18.506141756313422
22.510109102006563
25.439841306172273
24.756237125200276
26.807049668116274
28.27191577019913
28.857862211032273
29.63912413214313
29.443808651865414
29.541466392004274
29.541466392004274
29.541466392004274
28.564888990615703
27.783627069504846
27.002365148393988
26.22110322728313
26.318760967421987
25.342183566033416
24.65857938506142
24.756237125200276
22.803082322423133
21.338216220340275
19.775692378118563
18.21316853589685
18.506141756313422
17.52956435492485
16.748302433813993
16.943617914091707
14.990463111314565
13.427939269092851
10.888838025482567
8.642710002288853
9.130998702983138
6.201266498817426
3.9551384756237127
4.443427176317998
1.513694972152285
-0.6347753109025711
-3.9551384756237127
-7.080186160067139
-6.39658197909514
-9.326314183260854
-11.572442206454566
-11.08415350576028
-13.13496604867628
-14.50217441062028
-15.185778591592278
-15.967040512703136
-15.771725032425422
-15.869382772564279
-15.771725032425422
-15.771725032425422
-15.771725032425422
-15.771725032425422
-14.795147631036851
-14.11154345006485
-14.209201190203707
-13.232623788815136
-12.549019607843137
-12.646677347981994
-12.646677347981994
-12.646677347981994
-13.623254749370565
-14.306858930342566
-14.209201190203707
-14.209201190203707
-14.209201190203707
-14.209201190203707
-15.088120851453422
-15.869382772564279
-16.650644693675137
-17.43190661478599
-17.236591134508277
-18.21316853589685
-18.994430457007706
-18.799114976729992
-17.82253757534142
-17.13893339436942
-16.357671473258563
-15.576409552147707
-15.674067292286564
-11.865415426871138
-8.838025482566568
-9.521629663538567
-4.638742656595713
-0.9277485313191425
3.8574807354848555
8.545052262149996
7.470817120622568
15.381094071869994
21.24055848020142
19.971007858396277
28.760204470893417
35.4009308003357
42.529945830472265
49.56130312046998
47.90112153810941
55.90905622949569
61.768520637827116
60.401312275883114
68.31158922713054
74.17105363546197
79.54222934309911
85.0110627908751
83.74151216906996
88.81971465629053
92.43305104142824
91.55413138017853
94.5815213244831
96.72999160753795
98.09719996948196
99.65972381170367
99.26909285114824
100.34332799267567
101.02693217364767
100.83161669336995
97.02296482795452
93.99557488364995
86.96421759365225
80.9094377050431
82.17898832684826
74.26871137560083
68.31158922713054
69.58113984893568
63.6240177004654
59.13176165407798
57.27626459143969
54.83482108796826
55.32310978866255
53.27229724574655
51.80743114366369
52.10040436408026
52.97932402532997
53.760585946440834
52.588693064774546
51.90508888380255
52.002746623941405
50.04959182116426
48.584725719081405
48.877698939497975
43.018234531166556
38.62363622491798
34.81498435950255
30.811017013809415
31.68993667505913
26.709391927977418
23.096055542839704
23.87731746395056
19.87335011825742
16.943617914091707
12.84199282825971
8.935683222705425
9.81460288395514
4.834058136873426
1.1230640115968566
2.0019836728465705
-1.9043259327077133
-4.834058136873426
-9.033340962844282
-12.84199282825971
-11.963073167009995
-15.967040512703136
-18.89677271686885
-18.21316853589685
-22.21713588158999
-25.146868085755703
-27.392996108949415
-29.736781872281988
-29.150835431448844
-33.05714503700313
-35.98687724116884
-35.4009308003357
-37.4517433432517
-38.818951705195694
-40.38147554741741
-41.943999389639124
-41.651026169222554
-42.62760357061112
-43.311207751583126
-43.21355001144427
-42.236972610055695
-41.45571068894484
-38.72129396505684
-36.475165941863125
-36.96345464255741
-33.05714503700313
-30.127412832837415
-30.71335927367056
-24.853894865339132
-20.361638818951704
-15.674067292286564
-10.986495765621424
-12.060730907148852
-5.127031357289998
0.04882887006942855
-1.1230640115968566
4.834058136873426
9.228656443121995
12.939650568398566
16.943617914091707
16.064698252841993
20.068665598535134
22.998397802700847
22.314793621728846
25.342183566033416
27.49065384908827
28.857862211032273
30.518043793392845
30.127412832837415
31.103990234225986
31.885252155336843
31.68993667505913
31.68993667505913
31.68993667505913
31.68993667505913
31.68993667505913
31.68993667505913
29.736781872281988
28.27191577019913
28.564888990615703
25.63515678644999
23.389028763256274
21.045242999923705
18.701457236591136
19.18974593728542
15.283436331731137
12.353704127565424
12.939650568398566
9.033340962844282
6.103608758678568
2.8809033340962844
-0.14648661020828566
0.43945983062485694
-2.490272373540856
-4.638742656595713
-4.150453955901427
-8.05676356145571
-10.986495765621424
-13.232623788815136
-15.576409552147707
-15.088120851453422
-18.017853055619135
-20.263981078812847
-19.775692378118563
-22.705424582284277
-24.95155260547799
-26.318760967421987
-27.881284809643702
-27.588311589227132
-30.518043793392845
-32.6665140764477
-32.178225375753414
-34.22903791866941
-35.596246280613414
-37.256427862973986
-38.72129396505684
-38.42832074464027
-41.358052948805984
-43.50652323186084
-43.018234531166556
-45.069047074082555
-46.43625543602655
-48.97535667963683
-51.31914244296941
-50.73319600213626
-52.78400854505226
-54.24887464713512
-53.85824368657969
-54.83482108796826
-55.61608300907912
-56.39734493018997
-57.08094911116198
-56.88563363088426
-57.86221103227283
-58.643472953383686
-58.44815747310597
-58.44815747310597
-58.44815747310597
-58.44815747310597
-58.350499732967116
-58.350499732967116
-57.37392233157855
-56.690318150606544
-56.7879758907454
-54.83482108796826
-53.36995498588541
-49.85427634088655
-46.72922865644312
-47.412832837415124
-42.529945830472265
-38.818951705195694
-39.600213626306555
-32.764171816586554
-27.588311589227132
-22.021820401312276
-16.55298695353628
-17.724879835202564
-11.767757686732281
-7.373159380483711
-8.349736781872283
-2.392614633401999
1.9043259327077133
5.71297779812314
9.619287403677424
8.74036774242771
11.865415426871138
14.013885709925994
13.525597009231708
16.45532921339742
18.701457236591136
20.068665598535134
21.728847180895706
21.338216220340275
22.314793621728846
23.096055542839704
22.90074006256199
20.068665598535134
17.82253757534142
12.549019607843137
8.05676356145571
9.033340962844282
2.0996414129854277
-2.8809033340962844
-1.8066681925688564
-6.787212939650568
-10.498207064927138
-11.572442206454566
-13.232623788815136
-12.84199282825971
-11.963073167009995
-11.181811245899137
-11.377126726176853
-8.44739452201114
-6.201266498817426
-3.8574807354848555
-1.513694972152285
-2.0019836728465705
-1.9043259327077133
-2.0019836728465705
-1.9043259327077133
-4.834058136873426
-7.080186160067139
-8.44739452201114
-10.009918364232853
-9.71694514381628
-12.646677347981994
-14.795147631036851
-14.306858930342566
-17.334248874647134
-19.48271915770199
-20.947585259784848
-22.510109102006563
-22.119478141451133
-24.17029068436713
-25.63515678644999
-25.24452582589456
-27.1976806286717
-28.66254673075456
-28.369573510337986
-28.369573510337986
-28.369573510337986
-28.369573510337986
-28.369573510337986
-28.369573510337986
-29.346150911726557
-30.029755092698558
-29.834439612420844
-29.9320973525597
-29.834439612420844
-30.811017013809415
-31.592278934920273
-31.396963454642556
-32.37354085603113
-33.05714503700313
-33.838406958113985
-34.61966887922484
-34.424353398947126
-35.4009308003357
-36.182192721446555
-35.98687724116884
-35.98687724116884
-35.98687724116884
-35.010299839780274
-34.22903791866941
-34.424353398947126
-32.471198596169984
-31.00633249408713
-31.2993057145037
-27.392996108949415
-24.4632639047837
-19.385061417563133
-14.795147631036851
-15.771725032425422
-9.81460288395514
-5.420004577706569
-6.39658197909514
0.43945983062485694
5.615320057984283
10.205233844510566
14.892805371175708
13.81857022964828
19.775692378118563
24.17029068436713
23.19371328297856
28.174258030060273
31.787594415197987
34.81498435950255
37.94003204394598
37.256427862973986
41.16273746852827
44.09246967269398
43.50652323186084
46.43625543602655
48.68238345922026
50.04959182116426
51.61211566338598
51.22148470283055
52.295719844357976
52.97932402532997
52.78400854505226
52.78400854505226
52.78400854505226
51.80743114366369
51.02616922255284
51.22148470283055
50.24490730144198
49.46364538033112
49.56130312046998
46.72922865644312
44.48310063324941
43.018234531166556
41.45571068894484
41.74868390936141
38.818951705195694
36.57282368200198
37.06111238269627
34.0337224383917
31.885252155336843
29.443808651865414
27.100022888532845
27.68596932936599
24.65857938506142
22.412451361867703
22.90074006256199
19.971007858396277
17.724879835202564
15.381094071869994
13.037308308537423
13.525597009231708
10.498207064927138
8.349736781872283
8.838025482566568
4.931715877012284
1.9043259327077133
-1.1230640115968566
-4.248111696040284
-3.5645075150682843
-7.470817120622568
-10.400549324788281
-9.81460288395514
-13.720912489509422
-16.650644693675137
-19.87335011825742
-22.998397802700847
-22.21713588158999
-26.22110322728313
-29.150835431448844
-28.467231250476843
-32.471198596169984
-35.4009308003357
-37.549401083390556
-39.893186846723125
-39.40489814602884
-41.358052948805984
-42.822919050888835
-42.529945830472265
-44.48310063324941
-45.947966735332265
-46.533913176165406
-47.31517509727627
-47.11985961699855
-46.240939955748836
-45.45967803463798
-45.654993514915695
-43.604180971999696
-42.13931486991684
-38.62363622491798
-35.596246280613414
-36.27985046158541
-29.443808651865414
-24.267948424505988
-25.342183566033416
-18.40848401617456
-13.330281528953995
-5.810635538261997
1.0254062714579995
-0.43945983062485694
6.494239719233997
11.572442206454566
10.498207064927138
17.43190661478599
22.510109102006563
26.123445487144274
30.127412832837415
29.2484931715877
33.252460517280845
36.182192721446555
35.49858854047456
39.40489814602884
42.33463035019455
43.604180971999696
45.26436255436027
44.873731593804834
45.85030899519341
46.533913176165406
46.43625543602655
43.604180971999696
41.26039520866713
36.0845349813077
31.494621194781413
32.471198596169984
25.537499046311133
20.45929655909056
21.533531700617992
17.43190661478599
14.599832150759136
12.353704127565424
9.912260624093996
10.498207064927138
10.400549324788281
10.400549324788281
10.400549324788281
12.256046387426567
13.720912489509422
15.381094071869994
16.84596017395285
16.55298695353628
15.674067292286564
14.892805371175708
15.088120851453422
12.158388647287708
9.912260624093996
7.568474860761425
5.224689097428855
5.71297779812314
3.662165255207141
2.197299153124285
2.5879301136797133
-0.24414435034714274
-2.490272373540856
-3.8574807354848555
-5.517662317845426
-5.127031357289998
-7.080186160067139
-8.545052262149996
-8.252079041733426
-9.326314183260854
-10.009918364232853
-11.767757686732281
-13.232623788815136
-12.939650568398566
-13.916227969787137
-14.697489890897993
-14.50217441062028
-15.47875181200885
-16.260013733119706
-17.041275654230564
-17.82253757534142
-17.627222095063708
-18.60379949645228
-19.287403677424276
-19.18974593728542
-20.16632333867399
-20.84992751964599
-21.63118944075685
-22.412451361867703
-22.21713588158999
-23.19371328297856
-23.974975204089418
-23.779659723811704
-23.779659723811704
-23.779659723811704
-22.803082322423133
-22.119478141451133
-22.21713588158999
-21.24055848020142
-20.45929655909056
-20.654612039368278
-17.724879835202564
-15.576409552147707
-11.279468986037996
-7.373159380483711
-8.252079041733426
-3.2715342946517127
0.24414435034714274
-0.43945983062485694
5.322346837567712
9.81460288395514
14.50217441062028
19.18974593728542
18.11551079575799
25.049210345616846
30.22507057297627
29.053177691309987
35.010299839780274
39.40489814602884
44.19012741283284
48.78004119935912
47.705806057831694
52.78400854505226
56.39734493018997
55.51842526894026
59.522392614633404
62.45212481879911
64.60059510185397
66.94438086518655
66.45609216449226
69.38582436865796
71.53429465171283
71.04600595101854
73.09681849393453
74.46402685587854
75.14763103685054
75.9288929579614
75.73357747768368
74.75700007629511
73.97573815518425
74.17105363546197
72.12024109254597
70.65537499046312
69.0928511482414
67.43266956588083
67.82330052643626
64.79591058213168
62.64744029907683
63.03807125963226
59.13176165407798
56.20202944991226
52.97932402532997
49.85427634088655
50.53788052185855
46.533913176165406
43.604180971999696
44.19012741283284
39.307240405889985
35.596246280613414
32.56885633630884
29.443808651865414
30.127412832837415
25.146868085755703
21.533531700617992
22.314793621728846
18.310826276035705
15.381094071869994
11.279468986037996
7.373159380483711
8.252079041733426
4.248111696040284
1.3183794918745708
1.9043259327077133
-1.9043259327077133
-4.834058136873426
-7.080186160067139
-9.42397192339971
-8.935683222705425
-11.865415426871138
-14.11154345006485
-13.623254749370565
-15.576409552147707
-17.041275654230564
-18.60379949645228
-20.16632333867399
-19.87335011825742
-20.84992751964599
-21.63118944075685
-21.43587396047913
-23.389028763256274
-24.853894865339132
-26.416418707560844
-27.97894254978256
-27.588311589227132
-28.66254673075456
-29.346150911726557
-29.150835431448844
-30.127412832837415
-30.908674753948272
-29.736781872281988
-29.053177691309987
-29.150835431448844
-26.318760967421987
-24.072632944228275
-24.560921644922562
-19.678034637979707
-15.967040512703136
-10.10757610437171
-4.736400396734569
-5.908293278400855
0.9277485313191425
6.103608758678568
4.931715877012284
12.84199282825971
18.701457236591136
24.072632944228275
29.541466392004274
28.369573510337986
34.32669565880827
38.72129396505684
37.74471656366827
41.74868390936141
44.67841611352712
46.826886396581976
49.26832990005341
48.68238345922026
49.75661860074769
50.44022278171969
50.24490730144198
47.412832837415124
45.16670481422141
38.03768978408484
31.9829098954757
33.252460517280845
25.342183566033416
19.48271915770199
20.752269779507134
14.697489890897993
10.302891584649425
8.44739452201114
6.005951018539712
6.591897459372854
5.420004577706569
4.736400396734569
4.931715877012284
6.787212939650568
8.252079041733426
9.81460288395514
11.377126726176853
11.08415350576028
10.205233844510566
9.42397192339971
9.619287403677424
5.71297779812314
2.783245593957427
1.513694972152285
-0.04882887006942855
0.24414435034714274
-2.5879301136797133
-4.834058136873426
-4.345769436179141
-6.39658197909514
-7.763790341039139
-9.42397192339971
-10.986495765621424
-10.595864805065995
-13.525597009231708
-15.771725032425422
-15.283436331731137
-17.236591134508277
-18.701457236591136
-20.263981078812847
-21.826504921034562
-21.533531700617992
-23.48668650339513
-24.95155260547799
-24.560921644922562
-25.63515678644999
-26.318760967421987
-28.076600289921416
-29.541466392004274
-29.2484931715877
-31.201647974364842
-32.6665140764477
-32.37354085603113
-35.303273060196844
-37.4517433432517
-39.79552910658427
-42.13931486991684
-41.651026169222554
-43.604180971999696
-45.069047074082555
-44.77607385366598
-46.72922865644312
-48.19409475852598
-47.80346379797055
-47.90112153810941
-47.80346379797055
-47.80346379797055
-47.80346379797055
-47.80346379797055
-45.85030899519341
-44.38544289311055
-40.86976424811169
-37.84237430380713
-38.525978484779124
-33.545433737697415
-29.834439612420844
-30.615701533531702
-23.779659723811704
-18.60379949645228
-14.013885709925994
-9.326314183260854
-10.400549324788281
-3.466849774929427
1.6113527122911422
0.43945983062485694
6.39658197909514
10.79118028534371
13.720912489509422
16.84596017395285
16.16235599298085
20.068665598535134
22.998397802700847
22.412451361867703
24.4632639047837
25.830472266727703
26.514076447699704
27.295338368810558
27.100022888532845
26.22110322728313
25.439841306172273
25.63515678644999
24.560921644922562
23.87731746395056
22.119478141451133
20.55695429922942
20.947585259784848
18.89677271686885
17.43190661478599
17.724879835202564
16.748302433813993
15.967040512703136
15.185778591592278
14.404516670481422
14.599832150759136
13.623254749370565
12.84199282825971
13.037308308537423
12.939650568398566
12.939650568398566
11.963073167009995
11.279468986037996
11.377126726176853
10.400549324788281
9.71694514381628
9.81460288395514
8.838025482566568
8.154421301594567
5.420004577706569
3.1738765545128556
3.662165255207141
0.6347753109025711
-1.416037232013428
-0.9277485313191425
-2.9785610742351416
-4.443427176317998
-6.982528419928283
-9.228656443121995
-8.74036774242771
-10.79118028534371
-12.256046387426567
-11.865415426871138
-13.81857022964828
-15.283436331731137
-15.967040512703136
-16.748302433813993
-16.55298695353628
-17.52956435492485
-18.310826276035705
-18.11551079575799
-18.11551079575799
-18.11551079575799
-19.092088197146563
-19.87335011825742
-19.678034637979707
-20.654612039368278
-21.338216220340275
-21.24055848020142
-22.21713588158999
-22.90074006256199
-23.682001983672848
-24.4632639047837
-24.267948424505988
-25.24452582589456
-26.025787747005417
-25.830472266727703
-27.783627069504846
-29.2484931715877
-28.857862211032273
-28.95551995117113
-28.95551995117113
-28.95551995117113
-28.95551995117113
-28.95551995117113
-27.002365148393988
-25.537499046311133
-22.998397802700847
-20.654612039368278
-21.14290074006256
-18.21316853589685
-15.967040512703136
-16.45532921339742
-13.427939269092851
-11.279468986037996
-8.838025482566568
-6.591897459372854
-7.080186160067139
-5.0293736171511405
-3.5645075150682843
-3.8574807354848555
-2.8809033340962844
-2.0996414129854277
-2.2949568932631417
-2.2949568932631417
-2.2949568932631417
-2.2949568932631417
-2.2949568932631417
-2.2949568932631417
-5.127031357289998
-7.373159380483711
-11.670099946593423
-15.47875181200885
-14.599832150759136
-18.60379949645228
-21.533531700617992
-20.84992751964599
-23.87731746395056
-26.025787747005417
-24.560921644922562
-23.974975204089418
-24.072632944228275
-23.096055542839704
-22.314793621728846
-22.510109102006563
-18.701457236591136
-15.674067292286564
-12.549019607843137
-9.42397192339971
-10.10757610437171
-9.912260624093996
-10.009918364232853
-9.912260624093996
-12.84199282825971
-15.088120851453422
-16.45532921339742
-18.017853055619135
-17.724879835202564
-18.701457236591136
-19.385061417563133
-19.287403677424276
-21.24055848020142
-22.705424582284277
-23.291371023117417
-24.072632944228275
-23.87731746395056
-24.853894865339132
-25.63515678644999
-25.439841306172273
-26.416418707560844
-27.1976806286717
-27.97894254978256
-28.66254673075456
-28.564888990615703
-29.541466392004274
-30.22507057297627
-30.029755092698558
-31.9829098954757
-33.44777599755856
-34.131380178530556
-34.91264209964141
-34.717326619363696
-36.67048142214084
-38.1353475242237
-37.74471656366827
-39.69787136644541
-41.16273746852827
-42.72526131074998
-44.28778515297169
-43.89715419241627
-46.826886396581976
-49.073014419775696
-48.584725719081405
-50.53788052185855
-52.002746623941405
-53.56527046616312
-55.127794308384836
-54.7371633478294
-55.81139848935683
-56.49500267032883
-56.29968719005112
-56.29968719005112
-56.29968719005112
-53.36995498588541
-51.123826962691695
-51.61211566338598
-46.72922865644312
-43.018234531166556
-43.79949645227741
-37.94003204394598
-33.44777599755856
-27.783627069504846
-22.314793621728846
-23.58434424353399
-16.55298695353628
-11.47478446631571
-12.549019607843137
-6.591897459372854
-2.197299153124285
1.513694972152285
5.420004577706569
4.541084916456855
8.545052262149996
11.47478446631571
10.79118028534371
13.81857022964828
16.064698252841993
17.43190661478599
18.994430457007706
18.701457236591136
19.678034637979707
20.45929655909056
20.263981078812847
19.287403677424276
18.60379949645228
17.82253757534142
17.041275654230564
17.13893339436942
15.185778591592278
13.720912489509422
14.013885709925994
11.08415350576028
8.935683222705425
6.494239719233997
4.150453955901427
4.736400396734569
1.7090104524299992
-0.34180209048599985
0.04882887006942855
-2.8809033340962844
-5.0293736171511405
-6.494239719233997
-8.05676356145571
-7.763790341039139
-10.693522545204852
-12.84199282825971
-12.353704127565424
-13.427939269092851
-14.11154345006485
-14.990463111314565
-15.674067292286564
-15.576409552147707
-16.55298695353628
-17.236591134508277
-17.041275654230564
-18.11551079575799
-18.799114976729992
-18.60379949645228
-18.701457236591136
-18.60379949645228
-19.58037689784085
-20.361638818951704
-20.16632333867399
-21.14290074006256
-21.92416266117342
-21.728847180895706
-21.728847180895706
-21.728847180895706
-22.705424582284277
-23.389028763256274
-23.19371328297856
-24.267948424505988
-24.95155260547799
-24.756237125200276
-24.756237125200276
-24.756237125200276
-25.732814526588847
-26.514076447699704
-26.318760967421987
-28.27191577019913
-29.736781872281988
-30.322728313115128
-31.103990234225986
-30.908674753948272
-31.885252155336843
-32.6665140764477
-32.471198596169984
-33.44777599755856
-34.131380178530556
-34.0337224383917
-34.0337224383917
-34.0337224383917
-32.08056763561456
-30.615701533531702
-30.908674753948272
-26.025787747005417
-22.314793621728846
-17.43190661478599
-12.84199282825971
-13.81857022964828
-5.908293278400855
-0.04882887006942855
-1.416037232013428
6.494239719233997
12.353704127565424
18.701457236591136
24.853894865339132
23.48668650339513
31.396963454642556
37.256427862973986
35.98687724116884
42.92057679102769
48.09643701838712
51.709773403524835
55.61608300907912
54.7371633478294
59.71770809491112
63.33104448004883
62.45212481879911
61.67086289768826
60.8896009765774
57.27626459143969
54.24887464713512
54.83482108796826
48.97535667963683
44.580758373388264
45.45967803463798
42.43228809033341
40.186160067139696
39.69787136644541
38.818951705195694
39.014267185473415
40.86976424811169
42.33463035019455
42.04165712977798
45.947966735332265
48.877698939497975
52.002746623941405
55.127794308384836
54.346532387273975
54.54184786755169
54.44419012741283
54.44419012741283
52.49103532463569
51.02616922255284
48.48706797894255
46.14328221560998
46.63157091630426
44.67841611352712
43.11589227130541
43.50652323186084
40.479133287556266
38.33066300450141
35.889219501029984
33.545433737697415
34.0337224383917
31.103990234225986
28.857862211032273
29.346150911726557
26.318760967421987
24.17029068436713
21.728847180895706
19.385061417563133
19.971007858396277
16.943617914091707
14.795147631036851
15.185778591592278
12.256046387426567
10.009918364232853
8.642710002288853
6.982528419928283
7.373159380483711
6.298924238956283
5.615320057984283
5.810635538261997
3.8574807354848555
2.392614633401999
2.68558785381857
2.5879301136797133
2.5879301136797133
1.6113527122911422
0.9277485313191425
1.1230640115968566
0.04882887006942855
-0.537117570763714
-0.34180209048599985
-0.43945983062485694
-0.43945983062485694
0.43945983062485694
1.2207217517357138
1.0254062714579995
2.0019836728465705
2.783245593957427
3.5645075150682843
4.345769436179141
4.150453955901427
7.080186160067139
9.228656443121995
8.74036774242771
11.767757686732281
13.916227969787137
18.21316853589685
22.021820401312276
21.14290074006256
26.123445487144274
29.834439612420844
28.95551995117113
34.91264209964141
39.307240405889985
43.018234531166556
46.92454413672083
46.04562447547112
50.04959182116426
52.97932402532997
52.295719844357976
55.32310978866255
57.471580071717405
58.936446173800256
60.49897001602197
60.108339055466544
59.22941939421683
58.44815747310597
58.54581521324483
56.59266041046769
55.127794308384836
52.588693064774546
50.24490730144198
50.73319600213626
46.826886396581976
43.79949645227741
44.48310063324941
39.5025558861677
35.889219501029984
32.86182955672541
29.63912413214313
30.322728313115128
25.439841306172273
21.728847180895706
22.510109102006563
17.627222095063708
13.916227969787137
10.888838025482567
7.763790341039139
8.44739452201114
4.443427176317998
1.513694972152285
2.197299153124285
-1.7090104524299992
-4.638742656595713
-6.787212939650568
-9.228656443121995
-8.642710002288853
-11.670099946593423
-13.81857022964828
-13.330281528953995
-16.357671473258563
-18.506141756313422
-19.971007858396277
-21.533531700617992
-21.14290074006256
-24.072632944228275
-26.318760967421987
-25.830472266727703
-28.760204470893417
-31.00633249408713
-33.3501182574197
-35.69390402075227
-35.10795757991913
-38.1353475242237
-40.28381780727855
-39.79552910658427
-42.72526131074998
-44.97138933394369
-46.33859769588769
-47.90112153810941
-47.51049057755398
-49.56130312046998
-50.928511482413974
-50.635538261997404
-52.588693064774546
-54.053559166857404
-54.639505607690545
-55.420767528801406
-55.22545204852369
-56.20202944991226
-56.983291371023114
-56.7879758907454
-57.764553292133975
-58.44815747310597
-59.22941939421683
-60.01068131532769
-59.815365835049974
-58.8387884336614
-58.057526512550545
-58.25284199282826
-57.27626459143969
-56.49500267032883
-53.760585946440834
-51.51445792324712
-52.002746623941405
-47.998779278248264
-45.069047074082555
-45.654993514915695
-38.818951705195694
-33.64309147783627
-27.1976806286717
-20.947585259784848
-22.314793621728846
-14.404516670481422
-8.545052262149996
-9.81460288395514
-2.8809033340962844
2.197299153124285
5.810635538261997
9.81460288395514
8.935683222705425
10.986495765621424
12.45136186770428
12.158388647287708
11.279468986037996
10.498207064927138
5.908293278400855
2.0996414129854277
2.9785610742351416
-2.8809033340962844
-7.275501640344854
-6.298924238956283
-9.42397192339971
-11.572442206454566
-12.939650568398566
-14.599832150759136
-14.209201190203707
-13.330281528953995
-12.549019607843137
-12.74433508812085
-10.79118028534371
-9.326314183260854
-7.763790341039139
-6.201266498817426
-6.494239719233997
-7.373159380483711
-8.154421301594567
-7.959105821316854
-9.912260624093996
-11.377126726176853
-12.939650568398566
-14.50217441062028
-14.11154345006485
-15.185778591592278
-15.869382772564279
-15.771725032425422
-15.771725032425422
-15.771725032425422
-16.748302433813993
-17.43190661478599
-17.236591134508277
-17.334248874647134
-17.334248874647134
-17.334248874647134
-17.334248874647134
-17.236591134508277
-18.21316853589685
-18.994430457007706
-18.799114976729992
-19.775692378118563
-20.55695429922942
-20.361638818951704
-21.338216220340275
-22.021820401312276
-21.92416266117342
-21.92416266117342
-21.92416266117342
-22.803082322423133
-23.58434424353399
-23.389028763256274
-23.389028763256274
-23.389028763256274
-22.510109102006563
-21.728847180895706
-21.826504921034562
-21.826504921034562
-21.826504921034562
-21.826504921034562
-20.84992751964599
-20.068665598535134
-20.263981078812847
-20.263981078812847
-20.263981078812847
-20.263981078812847
-20.16632333867399
-20.16632333867399
-20.16632333867399
-20.16632333867399
-21.14290074006256
-21.92416266117342
-21.728847180895706
-22.705424582284277
-23.389028763256274
-23.291371023117417
-25.146868085755703
-26.61173418783856
-27.295338368810558
-28.076600289921416
-27.881284809643702
-28.857862211032273
-29.63912413214313
-29.443808651865414
-30.420386053253985
-31.103990234225986
-31.885252155336843
-32.6665140764477
-32.471198596169984
-33.44777599755856
-34.22903791866941
-34.0337224383917
-34.0337224383917
-34.0337224383917
-34.0337224383917
-34.0337224383917
-34.0337224383917
-34.91264209964141
-35.69390402075227
-35.49858854047456
-35.49858854047456
-35.49858854047456
-36.475165941863125
-37.15877012283513
-37.06111238269627
-38.03768978408484
-38.72129396505684
-38.525978484779124
-39.5025558861677
-40.28381780727855
-41.065079728389414
-41.74868390936141
-41.5533684290837
-42.62760357061112
-43.311207751583126
-43.11589227130541
-43.11589227130541
-43.11589227130541
-42.13931486991684
-41.358052948805984
-41.5533684290837
-39.600213626306555
-38.1353475242237
-38.42832074464027
-36.475165941863125
-34.91264209964141
-33.3501182574197
-31.787594415197987
-32.08056763561456
-30.127412832837415
-28.66254673075456
-28.95551995117113
-27.002365148393988
-25.537499046311133
-24.853894865339132
-24.072632944228275
-24.17029068436713
-24.17029068436713
-24.17029068436713
-24.17029068436713
-23.19371328297856
-22.412451361867703
-21.63118944075685
-20.84992751964599
-21.045242999923705
-20.068665598535134
-19.287403677424276
-19.48271915770199
-18.40848401617456
-17.724879835202564
-14.990463111314565
-12.74433508812085
-13.232623788815136
-10.205233844510566
-8.05676356145571
-8.545052262149996
-5.517662317845426
-3.36919203479057
-0.04882887006942855
2.9785610742351416
2.2949568932631417
7.177843900205997
10.888838025482567
10.10757610437171
14.013885709925994
16.943617914091707
21.14290074006256
24.95155260547799
24.072632944228275
29.053177691309987
32.6665140764477
31.885252155336843
35.889219501029984
38.818951705195694
41.943999389639124
45.069047074082555
44.38544289311055
46.33859769588769
47.80346379797055
47.51049057755398
49.46364538033112
50.928511482413974
51.51445792324712
52.295719844357976
52.10040436408026
53.07698176546884
53.85824368657969
53.66292820630198
53.66292820630198
53.66292820630198
52.6863508049134
51.90508888380255
52.002746623941405
51.02616922255284
50.24490730144198
50.44022278171969
46.533913176165406
43.604180971999696
37.549401083390556
32.178225375753414
33.3501182574197
26.416418707560844
21.24055848020142
22.412451361867703
18.310826276035705
15.381094071869994
15.088120851453422
14.209201190203707
14.404516670481422
16.260013733119706
17.724879835202564
17.43190661478599
22.21713588158999
25.92813000686656
28.95551995117113
32.08056763561456
31.396963454642556
33.44777599755856
34.81498435950255
34.52201113908598
32.6665140764477
31.201647974364842
30.518043793392845
29.736781872281988
29.834439612420844
27.881284809643702
26.416418707560844
26.709391927977418
24.756237125200276
23.291371023117417
22.60776684214542
21.826504921034562
22.021820401312276
20.068665598535134
18.60379949645228
18.89677271686885
16.943617914091707
15.381094071869994
13.81857022964828
12.256046387426567
12.646677347981994
11.572442206454566
10.888838025482567
10.986495765621424
10.009918364232853
9.228656443121995
9.42397192339971
9.42397192339971
9.42397192339971
8.44739452201114
7.666132600900283
7.861448081177996
6.884870679789426
6.103608758678568
5.322346837567712
4.541084916456855
4.736400396734569
4.638742656595713
4.736400396734569
4.736400396734569
6.591897459372854
8.05676356145571
9.619287403677424
11.181811245899137
10.888838025482567
15.674067292286564
19.385061417563133
18.60379949645228
24.4632639047837
28.857862211032273
35.49858854047456
41.651026169222554
40.28381780727855
48.19409475852598
54.053559166857404
52.78400854505226
59.71770809491112
64.79591058213168
68.4092469672694
72.41321431296254
71.53429465171283
74.5616845960174
76.71015487907225
76.22186617837797
76.22186617837797
76.22186617837797
75.2452887769894
74.46402685587854
74.65934233615626
71.72961013199054
69.48348210879682
69.87411306935225
66.94438086518655
64.69825284199283
62.35446707866026
59.91302357518883
60.49897001602197
57.471580071717405
55.22545204852369
55.713740749217976
52.6863508049134
50.53788052185855
48.09643701838712
45.75265125505455
46.240939955748836
43.311207751583126
41.065079728389414
41.5533684290837
39.5025558861677
38.03768978408484
36.37750820172427
34.81498435950255
35.20561532005799
32.27588311589227
30.029755092698558
30.518043793392845
28.467231250476843
27.002365148393988
26.318760967421987
25.537499046311133
25.732814526588847
23.779659723811704
22.314793621728846
22.60776684214542
21.533531700617992
20.84992751964599
19.092088197146563
17.52956435492485
17.920195315480278
16.84596017395285
16.064698252841993
16.260013733119706
13.330281528953995
11.181811245899137
9.71694514381628
8.154421301594567
8.44739452201114
5.517662317845426
3.2715342946517127
3.7598229953459983
0.8300907911802854
-1.3183794918745708
-3.662165255207141
-6.005951018539712
-5.420004577706569
-7.470817120622568
-8.935683222705425
-8.642710002288853
-10.595864805065995
-12.060730907148852
-13.623254749370565
-15.185778591592278
-14.892805371175708
-16.84596017395285
-18.310826276035705
-17.920195315480278
-18.017853055619135
-18.017853055619135
-18.994430457007706
-19.678034637979707
-19.48271915770199
-18.60379949645228
-17.82253757534142
-18.017853055619135
-16.064698252841993
-14.599832150759136
-11.08415350576028
-8.05676356145571
-8.74036774242771
-4.736400396734569
-1.8066681925688564
-2.392614633401999
2.392614633401999
6.103608758678568
9.033340962844282
12.256046387426567
11.47478446631571
15.47875181200885
18.40848401617456
17.724879835202564
20.752269779507134
22.90074006256199
23.389028763256274
24.267948424505988
24.072632944228275
25.049210345616846
25.732814526588847
25.63515678644999
26.61173418783856
27.295338368810558
26.22110322728313
25.439841306172273
25.63515678644999
23.682001983672848
22.21713588158999
22.510109102006563
17.627222095063708
13.916227969787137
8.05676356145571
2.68558785381857
3.8574807354848555
-3.9551384756237127
-9.81460288395514
-8.44739452201114
-14.50217441062028
-18.89677271686885
-20.752269779507134
-23.19371328297856
-22.705424582284277
-23.779659723811704
-24.4632639047837
-24.267948424505988
-22.412451361867703
-20.84992751964599
-20.263981078812847
-19.48271915770199
-19.58037689784085
-20.55695429922942
-21.24055848020142
-21.14290074006256
-23.974975204089418
-26.22110322728313
-27.588311589227132
-29.150835431448844
-28.857862211032273
-30.811017013809415
-32.27588311589227
-31.9829098954757
-31.9829098954757
-31.9829098954757
-32.95948729686427
-33.64309147783627
-33.44777599755856
-33.545433737697415
-33.44777599755856
-33.44777599755856
-33.44777599755856
-33.44777599755856
-33.44777599755856
-33.44777599755856
-33.44777599755856
-34.32669565880827
-35.10795757991913
-34.91264209964141
-35.889219501029984
-36.67048142214084
-36.475165941863125
-36.475165941863125
-36.475165941863125
-37.35408560311284
-38.1353475242237
-37.94003204394598
-37.06111238269627
-36.27985046158541
-36.37750820172427
-36.37750820172427
-36.37750820172427
-34.424353398947126
-32.95948729686427
-33.252460517280845
-31.2993057145037
-29.834439612420844
-27.295338368810558
-24.95155260547799
-25.439841306172273
-21.533531700617992
-18.506141756313422
-19.18974593728542
-14.306858930342566
-10.595864805065995
-5.71297779812314
-1.0254062714579995
-2.0996414129854277
2.8809033340962844
6.494239719233997
5.71297779812314
10.595864805065995
14.306858930342566
16.357671473258563
18.799114976729992
18.21316853589685
21.14290074006256
23.389028763256274
22.90074006256199
23.974975204089418
24.65857938506142
24.4632639047837
24.560921644922562
24.4632639047837
23.58434424353399
22.803082322423133
22.90074006256199
20.947585259784848
19.48271915770199
17.920195315480278
16.357671473258563
16.748302433813993
13.720912489509422
11.572442206454566
12.060730907148852
9.033340962844282
6.884870679789426
4.443427176317998
2.0996414129854277
2.68558785381857
0.6347753109025711
-0.7324330510414282
-0.43945983062485694
-2.392614633401999
-3.8574807354848555
-4.443427176317998
-5.322346837567712
-5.127031357289998
-7.080186160067139
-8.545052262149996
-8.252079041733426
-9.228656443121995
-10.009918364232853
-10.79118028534371
-11.572442206454566
-11.377126726176853
-13.330281528953995
-14.795147631036851
-14.404516670481422
-15.47875181200885
-16.16235599298085
-16.943617914091707
-17.724879835202564
-17.52956435492485
-18.506141756313422
-19.287403677424276
-19.092088197146563
-20.068665598535134
-20.84992751964599
-21.63118944075685
-22.412451361867703
-22.21713588158999
-22.21713588158999
-22.21713588158999
-22.21713588158999
-22.21713588158999
-22.21713588158999
-22.21713588158999
-22.21713588158999
-22.21713588158999
-22.119478141451133
-22.119478141451133
-22.119478141451133
-22.119478141451133
-22.119478141451133
-21.14290074006256
-20.45929655909056
-20.55695429922942
-20.55695429922942
-20.55695429922942
-20.55695429922942
-20.55695429922942
-20.55695429922942
-20.55695429922942
-20.55695429922942
-20.45929655909056
-19.58037689784085
-18.799114976729992
-18.994430457007706
-17.920195315480278
-17.236591134508277
-15.47875181200885
-13.916227969787137
-14.306858930342566
-10.400549324788281
-7.373159380483711
-8.05676356145571
-3.1738765545128556
0.43945983062485694
4.345769436179141
8.252079041733426
7.373159380483711
12.353704127565424
16.064698252841993
15.185778591592278
20.16632333867399
23.87731746395056
26.807049668116274
29.9320973525597
29.2484931715877
31.2993057145037
32.764171816586554
32.471198596169984
34.424353398947126
35.889219501029984
35.49858854047456
35.596246280613414
35.596246280613414
35.596246280613414
35.49858854047456
35.49858854047456
30.71335927367056
27.002365148393988
21.14290074006256
15.771725032425422
16.943617914091707
10.009918364232853
4.834058136873426
6.005951018539712
1.9043259327077133
-0.9277485313191425
-1.2207217517357138
-2.0996414129854277
-1.9043259327077133
-0.04882887006942855
1.416037232013428
1.0254062714579995
4.931715877012284
7.861448081177996
11.08415350576028
14.209201190203707
13.427939269092851
14.599832150759136
15.283436331731137
15.088120851453422
13.232623788815136
11.767757686732281
10.10757610437171
8.545052262149996
8.935683222705425
6.982528419928283
5.517662317845426
5.810635538261997
3.8574807354848555
2.392614633401999
1.7090104524299992
0.9277485313191425
1.1230640115968566
0.04882887006942855
-0.537117570763714
-0.34180209048599985
-0.43945983062485694
-0.43945983062485694
0.43945983062485694
1.2207217517357138
1.0254062714579995
1.0254062714579995
1.0254062714579995
1.0254062714579995
1.0254062714579995
1.0254062714579995
1.0254062714579995
1.0254062714579995
1.0254062714579995
1.0254062714579995
1.0254062714579995
1.0254062714579995
0.04882887006942855
-0.537117570763714
-1.3183794918745708
-2.0996414129854277
-1.9043259327077133
-2.9785610742351416
-3.662165255207141
-3.466849774929427
-2.5879301136797133
-1.8066681925688564
0.7324330510414282
3.076218814373999
2.490272373540856
5.517662317845426
7.666132600900283
7.177843900205997
12.060730907148852
15.771725032425422
19.678034637979707
23.58434424353399
22.705424582284277
27.68596932936599
31.396963454642556
30.518043793392845
34.52201113908598
37.4517433432517
39.600213626306555
42.04165712977798
41.45571068894484
42.529945830472265
43.21355001144427
43.018234531166556
42.13931486991684
41.358052948805984
40.57679102769512
39.79552910658427
39.893186846723125
38.91660944533455
38.1353475242237
38.33066300450141
36.37750820172427
34.91264209964141
32.37354085603113
30.029755092698558
30.518043793392845
28.467231250476843
27.002365148393988
27.295338368810558
25.342183566033416
23.87731746395056
22.314793621728846
20.752269779507134
21.045242999923705
19.092088197146563
17.627222095063708
17.920195315480278
15.967040512703136
14.404516670481422
12.84199282825971
11.279468986037996
11.670099946593423
8.74036774242771
6.494239719233997
6.982528419928283
4.931715877012284
3.466849774929427
1.9043259327077133
0.34180209048599985
0.7324330510414282
-1.2207217517357138
-2.68558785381857
-2.2949568932631417
-4.345769436179141
-5.810635538261997
-6.39658197909514
-7.275501640344854
-7.080186160067139
-8.05676356145571
-8.74036774242771
-8.642710002288853
-10.595864805065995
-12.060730907148852
-13.623254749370565
-15.185778591592278
-14.795147631036851
-16.748302433813993
-18.21316853589685
-17.920195315480278
-18.89677271686885
-19.678034637979707
-20.45929655909056
-21.24055848020142
-21.045242999923705
-22.021820401312276
-22.705424582284277
-22.60776684214542
-22.60776684214542
-22.60776684214542
-21.63118944075685
-20.84992751964599
-21.045242999923705
-20.068665598535134
-19.287403677424276
-19.48271915770199
-19.385061417563133
-19.385061417563133
-17.52956435492485
-15.967040512703136
-16.357671473258563
-14.306858930342566
-12.84199282825971
-13.232623788815136
-9.326314183260854
-6.298924238956283
-2.197299153124285
1.513694972152285
0.6347753109025711
5.615320057984283
9.326314183260854
8.44739452201114
14.404516670481422
18.799114976729992
22.60776684214542
26.514076447699704
25.63515678644999
30.615701533531702
34.22903791866941
33.44777599755856
37.4517433432517
40.38147554741741
42.529945830472265
44.873731593804834
44.38544289311055
46.33859769588769
47.80346379797055
47.51049057755398
48.48706797894255
49.17067215991455
49.951934081025406
50.73319600213626
50.53788052185855
50.53788052185855
50.53788052185855
50.53788052185855
47.60814831769284
45.45967803463798
41.16273746852827
37.256427862973986
38.1353475242237
32.178225375753414
27.783627069504846
28.760204470893417
25.63515678644999
23.48668650339513
22.998397802700847
22.119478141451133
22.314793621728846
23.19371328297856
23.974975204089418
23.779659723811704
26.709391927977418
28.857862211032273
29.346150911726557
30.22507057297627
30.029755092698558
29.053177691309987
28.27191577019913
28.467231250476843
24.560921644922562
21.63118944075685
19.385061417563133
17.041275654230564
17.52956435492485
13.623254749370565
10.693522545204852
11.279468986037996
8.349736781872283
6.103608758678568
3.7598229953459983
1.416037232013428
1.9043259327077133
-0.9277485313191425
-3.1738765545128556
-2.68558785381857
-5.615320057984283
-7.861448081177996
-10.205233844510566
-12.549019607843137
-12.060730907148852
-14.013885709925994
-15.47875181200885
-15.185778591592278
-17.13893339436942
-18.60379949645228
-20.16632333867399
-21.728847180895706
-21.43587396047913
-23.389028763256274
-24.853894865339132
-24.4632639047837
-26.514076447699704
-27.97894254978256
-28.564888990615703
-29.346150911726557
-29.150835431448844
-30.127412832837415
-30.908674753948272
-30.71335927367056
-30.71335927367056
-30.71335927367056
-29.736781872281988
-29.053177691309987
-29.150835431448844
-27.1976806286717
-25.732814526588847
-26.025787747005417
-23.096055542839704
-20.84992751964599
-16.55298695353628
-12.74433508812085
-13.623254749370565
-8.642710002288853
-4.931715877012284
-5.810635538261997
-0.8300907911802854
2.783245593957427
6.6895551995117115
10.595864805065995
9.71694514381628
13.720912489509422
16.650644693675137
15.967040512703136
18.994430457007706
21.24055848020142
22.60776684214542
24.17029068436713
23.87731746395056
24.853894865339132
25.537499046311133
25.439841306172273
26.416418707560844
27.100022888532845
26.90470740825513
27.002365148393988
27.002365148393988
26.90470740825513
26.90470740825513
26.90470740825513
25.92813000686656
25.24452582589456
25.342183566033416
25.342183566033416
25.342183566033416
23.389028763256274
21.92416266117342
22.21713588158999
20.263981078812847
18.799114976729992
17.236591134508277
15.674067292286564
15.967040512703136
13.037308308537423
10.79118028534371
11.279468986037996
9.228656443121995
7.763790341039139
6.201266498817426
4.638742656595713
5.0293736171511405
3.9551384756237127
3.2715342946517127
2.490272373540856
1.7090104524299992
1.8066681925688564
-0.04882887006942855
-1.513694972152285
-1.1230640115968566
-3.1738765545128556
-4.638742656595713
-4.248111696040284
-6.298924238956283
-7.763790341039139
-10.302891584649425
-12.549019607843137
-12.060730907148852
-14.990463111314565
-17.236591134508277
-20.55695429922942
-23.58434424353399
-22.90074006256199
-25.92813000686656
-28.076600289921416
-27.588311589227132
-30.615701533531702
-32.764171816586554
-32.27588311589227
-35.20561532005799
-37.4517433432517
-39.79552910658427
-42.13931486991684
-41.5533684290837
-43.604180971999696
-45.069047074082555
-44.67841611352712
-46.63157091630426
-48.09643701838712
-48.78004119935912
-49.56130312046998
-49.365987640192266
-50.34256504158083
-51.02616922255284
-50.83085374227512
-49.951934081025406
-49.17067215991455
-47.412832837415124
-45.85030899519341
-46.14328221560998
-43.21355001144427
-40.96742198825055
-36.67048142214084
-32.86182955672541
-33.74074921797513
-28.760204470893417
-25.049210345616846
-25.830472266727703
-20.947585259784848
-17.236591134508277
-14.209201190203707
-11.08415350576028
-11.767757686732281
-8.74036774242771
-6.494239719233997
-6.982528419928283
-4.052796215762569
-1.8066681925688564
-1.416037232013428
-0.537117570763714
-0.7324330510414282
0.14648661020828566
0.9277485313191425
0.7324330510414282
0.8300907911802854
0.7324330510414282
-2.9785610742351416
-5.908293278400855
-5.224689097428855
-11.08415350576028
-15.576409552147707
-14.599832150759136
-21.43587396047913
-26.61173418783856
-29.2484931715877
-32.471198596169984
-31.787594415197987
-32.86182955672541
-33.545433737697415
-33.3501182574197
-32.471198596169984
-31.68993667505913
-28.076600289921416
-25.049210345616846
-25.63515678644999
-20.752269779507134
-17.041275654230564
-17.82253757534142
-16.748302433813993
-16.064698252841993
-17.13893339436942
-17.82253757534142
-17.627222095063708
-18.60379949645228
-19.385061417563133
-19.18974593728542
-20.16632333867399
-20.947585259784848
-20.752269779507134
-20.752269779507134
-20.752269779507134
-21.728847180895706
-22.412451361867703
-22.314793621728846
-22.314793621728846
-22.314793621728846
-22.314793621728846
-22.314793621728846
-22.314793621728846
-22.314793621728846
-22.21713588158999
-22.21713588158999
-23.19371328297856
-23.974975204089418
-24.756237125200276
-25.537499046311133
-25.342183566033416
-26.318760967421987
-27.002365148393988
-26.807049668116274
-26.90470740825513
-26.90470740825513
-27.783627069504846
-28.564888990615703
-28.369573510337986
-27.392996108949415
-26.709391927977418
-26.807049668116274
-26.807049668116274
-26.807049668116274
-24.853894865339132
-23.389028763256274
-23.682001983672848
-19.775692378118563
-16.84596017395285
-17.52956435492485
-12.549019607843137
-8.838025482566568
-3.9551384756237127
0.537117570763714
-0.34180209048599985
5.517662317845426
9.912260624093996
8.935683222705425
14.892805371175708
19.287403677424276
23.096055542839704
27.002365148393988
26.123445487144274
31.00633249408713
34.717326619363696
33.838406958113985
37.84237430380713
40.772106507972836
43.018234531166556
45.362020294499125
44.77607385366598
47.80346379797055
49.951934081025406
49.46364538033112
50.53788052185855
51.22148470283055
52.97932402532997
54.44419012741283
54.053559166857404
54.15121690699626
54.15121690699626
54.15121690699626
54.053559166857404
54.053559166857404
53.07698176546884
52.295719844357976
52.49103532463569
50.53788052185855
49.073014419775696
49.365987640192266
47.31517509727627
45.85030899519341
43.311207751583126
40.96742198825055
41.45571068894484
38.525978484779124
36.27985046158541
36.768139162279695
33.74074921797513
31.592278934920273
29.150835431448844
26.807049668116274
27.392996108949415
24.365606164644845
22.119478141451133
22.60776684214542
18.701457236591136
15.771725032425422
14.50217441062028
12.84199282825971
13.232623788815136
10.302891584649425
8.05676356145571
8.545052262149996
6.494239719233997
5.0293736171511405
4.443427176317998
3.5645075150682843
3.7598229953459983
1.8066681925688564
0.34180209048599985
0.7324330510414282
-1.2207217517357138
-2.68558785381857
-4.248111696040284
-5.810635538261997
-5.420004577706569
-7.470817120622568
-8.935683222705425
-8.545052262149996
-9.619287403677424
-10.302891584649425
-11.08415350576028
-11.865415426871138
-11.670099946593423
-12.74433508812085
-13.427939269092851
-13.232623788815136
-13.330281528953995
-13.330281528953995
-14.209201190203707
-14.990463111314565
-14.795147631036851
-13.916227969787137
-13.13496604867628
-13.330281528953995
-11.377126726176853
-9.81460288395514
-6.39658197909514
-3.36919203479057
-3.9551384756237127
-0.04882887006942855
2.783245593957427
2.197299153124285
7.080186160067139
10.79118028534371
15.674067292286564
20.263981078812847
19.287403677424276
24.267948424505988
27.881284809643702
27.100022888532845
31.103990234225986
34.0337224383917
37.15877012283513
40.28381780727855
39.600213626306555
42.529945830472265
44.77607385366598
44.19012741283284
46.240939955748836
47.705806057831694
49.26832990005341
50.83085374227512
50.44022278171969
52.39337758449683
53.85824368657969
53.467612726024264
53.56527046616312
53.56527046616312
50.635538261997404
48.38941023880369
48.877698939497975
43.018234531166556
38.62363622491798
39.600213626306555
32.6665140764477
27.49065384908827
23.87731746395056
19.87335011825742
20.752269779507134
16.748302433813993
13.81857022964828
14.404516670481422
11.47478446631571
9.228656443121995
9.71694514381628
9.619287403677424
9.619287403677424
9.619287403677424
9.619287403677424
9.619287403677424
8.642710002288853
7.959105821316854
4.248111696040284
1.2207217517357138
1.9043259327077133
-1.0254062714579995
-3.1738765545128556
-2.68558785381857
-4.736400396734569
-6.201266498817426
-7.763790341039139
-9.326314183260854
-8.935683222705425
-10.986495765621424
-12.45136186770428
-12.060730907148852
-14.990463111314565
-17.236591134508277
-18.60379949645228
-20.263981078812847
-19.87335011825742
-20.84992751964599
-21.63118944075685
-21.43587396047913
-23.389028763256274
-24.853894865339132
-25.439841306172273
-26.318760967421987
-26.123445487144274
-26.123445487144274
-26.123445487144274
-26.123445487144274
-27.002365148393988
-27.783627069504846
-28.564888990615703
-29.346150911726557
-29.150835431448844
-29.150835431448844
-29.150835431448844
-29.150835431448844
-30.127412832837415
-30.811017013809415
-29.736781872281988
-28.95551995117113
-29.150835431448844
-27.1976806286717
-25.732814526588847
-26.025787747005417
-22.119478141451133
-19.18974593728542
-14.990463111314565
-11.181811245899137
-12.060730907148852
-7.080186160067139
-3.36919203479057
-4.150453955901427
1.6113527122911422
6.005951018539712
9.81460288395514
13.720912489509422
12.84199282825971
16.84596017395285
19.775692378118563
19.18974593728542
22.119478141451133
24.365606164644845
26.709391927977418
29.053177691309987
28.467231250476843
30.518043793392845
31.9829098954757
31.68993667505913
33.64309147783627
35.10795757991913
35.69390402075227
36.475165941863125
36.27985046158541
36.37750820172427
36.27985046158541
36.27985046158541
35.303273060196844
34.61966887922484
32.86182955672541
31.2993057145037
31.592278934920273
29.63912413214313
28.174258030060273
28.467231250476843
25.537499046311133
23.291371023117417
21.92416266117342
20.263981078812847
20.654612039368278
18.60379949645228
17.13893339436942
17.43190661478599
15.47875181200885
14.013885709925994
13.427939269092851
12.549019607843137
12.74433508812085
11.767757686732281
10.986495765621424
11.181811245899137
9.228656443121995
7.763790341039139
7.080186160067139
6.298924238956283
6.494239719233997
4.541084916456855
3.076218814373999
3.36919203479057
1.416037232013428
0.04882887006942855
-2.490272373540856
-4.834058136873426
-4.345769436179141
-6.298924238956283
-7.763790341039139
-7.470817120622568
-10.400549324788281
-12.646677347981994
-14.990463111314565
-17.334248874647134
-16.748302433813993
-19.775692378118563
-21.92416266117342
-21.43587396047913
-24.4632639047837
-26.61173418783856
-28.076600289921416
-29.63912413214313
-29.2484931715877
-31.201647974364842
-32.6665140764477
-32.37354085603113
-34.32669565880827
-35.79156176089113
-37.35408560311284
-38.91660944533455
-38.525978484779124
-40.479133287556266
-41.943999389639124
-41.651026169222554
-42.62760357061112
-43.40886549172198
-42.236972610055695
-41.5533684290837
-41.651026169222554
-40.67444876783398
-39.893186846723125
-40.08850232700084
-36.182192721446555
-33.252460517280845
-30.029755092698558
-26.90470740825513
-27.588311589227132
-23.58434424353399
-20.654612039368278
-21.338216220340275
-17.334248874647134
-14.404516670481422
-12.158388647287708
-9.81460288395514
-10.302891584649425
-7.373159380483711
-5.127031357289998
-5.615320057984283
-2.68558785381857
-0.43945983062485694
0.04882887006942855
0.7324330510414282
0.537117570763714
1.6113527122911422
2.2949568932631417
2.0996414129854277
2.197299153124285
2.197299153124285
-0.6347753109025711
-2.783245593957427
-2.2949568932631417
-8.154421301594567
-12.646677347981994
-11.572442206454566
-17.52956435492485
-21.92416266117342
-24.756237125200276
-27.97894254978256
-27.295338368810558
-27.392996108949415
-27.392996108949415
-27.392996108949415
-25.439841306172273
-23.974975204089418
-20.45929655909056
-17.43190661478599
-18.11551079575799
-13.13496604867628
-9.42397192339971
-10.302891584649425
-9.130998702983138
-8.44739452201114
-10.498207064927138
-11.963073167009995
-11.572442206454566
-12.646677347981994
-13.330281528953995
-13.232623788815136
-16.064698252841993
-18.310826276035705
-19.678034637979707
-21.338216220340275
-20.947585259784848
-22.90074006256199
-24.365606164644845
-24.072632944228275
-26.025787747005417
-27.49065384908827
-28.076600289921416
-28.857862211032273
-28.760204470893417
-30.615701533531702
-32.08056763561456
-31.787594415197987
-32.764171816586554
-33.545433737697415
-35.303273060196844
-36.768139162279695
-36.37750820172427
-38.42832074464027
-39.893186846723125
-39.5025558861677
-40.479133287556266
-41.26039520866713
-43.018234531166556
-44.48310063324941
-44.09246967269398
-44.19012741283284
-44.19012741283284
-44.19012741283284
-44.09246967269398
-44.09246967269398
-43.11589227130541
-42.43228809033341
-42.529945830472265
-41.5533684290837
-40.772106507972836
-40.96742198825055
-38.03768978408484
-35.79156176089113
-34.32669565880827
-32.764171816586554
-33.15480277714199
-30.127412832837415
-27.97894254978256
-28.369573510337986
-25.439841306172273
-23.19371328297856
-21.826504921034562
-20.16632333867399
-20.55695429922942
-17.627222095063708
-15.381094071869994
-15.869382772564279
-13.81857022964828
-12.353704127565424
-9.81460288395514
-7.568474860761425
-8.05676356145571
-6.005951018539712
-4.541084916456855
-4.834058136873426
-2.8809033340962844
-1.416037232013428
0.04882887006942855
1.6113527122911422
1.3183794918745708
3.2715342946517127
4.736400396734569
4.443427176317998
6.39658197909514
7.861448081177996
7.470817120622568
7.568474860761425
7.568474860761425
7.568474860761425
7.568474860761425
7.568474860761425
7.568474860761425
7.568474860761425
5.615320057984283
4.150453955901427
4.443427176317998
2.490272373540856
1.0254062714579995
1.3183794918745708
-0.537117570763714
-2.0019836728465705
-3.5645075150682843
-5.127031357289998
-4.736400396734569
-5.810635538261997
-6.494239719233997
-6.39658197909514
-7.373159380483711
-8.05676356145571
-7.959105821316854
-7.959105821316854
-7.959105821316854
-7.959105821316854
-7.959105821316854
-7.959105821316854
-7.959105821316854
-7.959105821316854
-7.959105821316854
-7.959105821316854
-7.959105821316854
-8.838025482566568
-9.619287403677424
-9.42397192339971
-10.400549324788281
-11.181811245899137
-12.939650568398566
-14.404516670481422
-14.11154345006485
-16.064698252841993
-17.52956435492485
-17.236591134508277
-21.045242999923705
-24.072632944228275
-27.1976806286717
-30.322728313115128
-29.63912413214313
-33.545433737697415
-36.475165941863125
-35.79156176089113
-38.818951705195694
-40.96742198825055
-43.40886549172198
-45.654993514915695
-45.16670481422141
-46.240939955748836
-46.92454413672083
-46.72922865644312
-45.85030899519341
-45.069047074082555
-43.311207751583126
-41.74868390936141
-42.04165712977798
-38.1353475242237
-35.20561532005799
-35.889219501029984
-30.908674753948272
-27.1976806286717
-23.291371023117417
-19.385061417563133
-20.263981078812847
-13.330281528953995
-8.154421301594567
-9.326314183260854
-2.392614633401999
2.68558785381857
7.275501640344854
11.963073167009995
10.888838025482567
17.82253757534142
22.998397802700847
21.826504921034562
26.807049668116274
30.518043793392845
34.424353398947126
38.33066300450141
37.4517433432517
40.479133287556266
42.62760357061112
42.13931486991684
44.19012741283284
45.55733577477684
44.28778515297169
43.604180971999696
43.79949645227741
39.893186846723125
36.96345464255741
37.549401083390556
32.6665140764477
28.95551995117113
27.881284809643702
26.123445487144274
26.514076447699704
25.439841306172273
24.756237125200276
24.95155260547799
26.807049668116274
28.27191577019913
30.811017013809415
33.05714503700313
32.56885633630884
35.49858854047456
37.74471656366827
37.256427862973986
37.35408560311284
37.256427862973986
36.27985046158541
35.596246280613414
35.69390402075227
33.74074921797513
32.27588311589227
32.56885633630884
30.615701533531702
29.150835431448844
28.467231250476843
27.68596932936599
27.783627069504846
25.830472266727703
24.365606164644845
24.65857938506142
22.705424582284277
21.24055848020142
18.701457236591136
16.357671473258563
16.84596017395285
14.892805371175708
13.427939269092851
13.720912489509422
11.767757686732281
10.302891584649425
7.763790341039139
5.420004577706569
5.908293278400855
2.9785610742351416
0.7324330510414282
1.2207217517357138
-1.6113527122911422
-3.8574807354848555
-5.224689097428855
-6.884870679789426
-6.494239719233997
-8.44739452201114
-9.912260624093996
-9.619287403677424
-11.572442206454566
-13.037308308537423
-12.74433508812085
-12.84199282825971
-12.74433508812085
-11.865415426871138
-11.08415350576028
-11.279468986037996
-7.373159380483711
-4.443427176317998
-1.2207217517357138
1.7090104524299992
1.0254062714579995
6.982528419928283
11.377126726176853
10.400549324788281
16.357671473258563
20.752269779507134
25.439841306172273
30.127412832837415
29.053177691309987
34.0337224383917
37.74471656366827
36.86579690241855
40.86976424811169
43.79949645227741
46.04562447547112
48.38941023880369
47.80346379797055
49.85427634088655
51.31914244296941
50.928511482413974
51.90508888380255
52.6863508049134
51.51445792324712
50.83085374227512
50.928511482413974
49.951934081025406
49.17067215991455
49.365987640192266
48.291752498664835
47.60814831769284
46.72922865644312
45.947966735332265
46.14328221560998
44.19012741283284
42.72526131074998
43.018234531166556
40.96742198825055
39.5025558861677
36.96345464255741
34.61966887922484
35.20561532005799
32.178225375753414
29.9320973525597
30.420386053253985
27.49065384908827
25.24452582589456
21.92416266117342
18.799114976729992
19.48271915770199
15.47875181200885
12.549019607843137
13.232623788815136
9.228656443121995
6.298924238956283
3.1738765545128556
0.04882887006942855
0.7324330510414282
-3.1738765545128556
-6.103608758678568
-5.420004577706569
-8.44739452201114
-10.595864805065995
-12.060730907148852
-13.623254749370565
-13.232623788815136
-15.283436331731137
-16.748302433813993
-16.357671473258563
-17.43190661478599
-18.11551079575799
-18.89677271686885
-19.678034637979707
-19.48271915770199
-20.45929655909056
-21.24055848020142
-21.045242999923705
-22.021820401312276
-22.803082322423133
-23.58434424353399
-24.365606164644845
-24.17029068436713
-24.17029068436713
-24.17029068436713
-24.17029068436713
-25.146868085755703
-25.830472266727703
-25.63515678644999
-25.732814526588847
-25.63515678644999
-25.63515678644999
-25.63515678644999
-25.63515678644999
-24.65857938506142
-23.974975204089418
-22.21713588158999
-20.654612039368278
-20.947585259784848
-18.017853055619135
-15.869382772564279
-16.357671473258563
-11.47478446631571
-7.763790341039139
-3.7598229953459983
0.04882887006942855
-0.7324330510414282
4.150453955901427
7.763790341039139
6.982528419928283
11.963073167009995
15.576409552147707
19.58037689784085
23.389028763256274
22.60776684214542
25.63515678644999
27.783627069504846
27.295338368810558
29.346150911726557
30.71335927367056
31.396963454642556
32.178225375753414
31.9829098954757
32.95948729686427
33.74074921797513
33.545433737697415
33.545433737697415
33.545433737697415
30.615701533531702
28.467231250476843
28.857862211032273
23.096055542839704
18.60379949645228
19.58037689784085
12.646677347981994
7.568474860761425
4.834058136873426
1.6113527122911422
2.392614633401999
1.2207217517357138
0.537117570763714
0.7324330510414282
1.6113527122911422
2.392614633401999
6.005951018539712
9.033340962844282
8.349736781872283
11.377126726176853
13.525597009231708
13.037308308537423
14.11154345006485
14.795147631036851
11.767757686732281
9.619287403677424
10.10757610437171
7.080186160067139
4.931715877012284
5.420004577706569
2.392614633401999
0.24414435034714274
-2.0996414129854277
-4.443427176317998
-3.8574807354848555
-5.908293278400855
-7.373159380483711
-7.080186160067139
-9.033340962844282
-10.498207064927138
-11.08415350576028
-11.963073167009995
-11.767757686732281
-12.74433508812085
-13.427939269092851
-13.330281528953995
-14.306858930342566
-14.990463111314565
-15.771725032425422
-16.55298695353628
-16.357671473258563
-18.310826276035705
-19.775692378118563
-19.48271915770199
-21.43587396047913
-22.90074006256199
-24.4632639047837
-26.025787747005417
-25.63515678644999
-27.68596932936599
-29.150835431448844
-28.760204470893417
-31.68993667505913
-33.93606469825284
-35.303273060196844
-36.86579690241855
-36.57282368200198
-37.549401083390556
-38.23300526436255
-38.1353475242237
-37.15877012283513
-36.37750820172427
-34.61966887922484
-33.15480277714199
-33.44777599755856
-30.518043793392845
-28.27191577019913
-28.760204470893417
-23.87731746395056
-20.16632333867399
-15.283436331731137
-10.595864805065995
-11.670099946593423
-6.591897459372854
-2.9785610742351416
-3.7598229953459983
1.1230640115968566
4.736400396734569
6.787212939650568
9.228656443121995
8.642710002288853
11.670099946593423
13.81857022964828
13.330281528953995
15.381094071869994
16.84596017395285
17.43190661478599
18.21316853589685
18.11551079575799
18.11551079575799
18.11551079575799
18.11551079575799
18.11551079575799
18.11551079575799
17.13893339436942
16.357671473258563
16.55298695353628
15.576409552147707
14.795147631036851
14.990463111314565
13.037308308537423
11.47478446631571
10.888838025482567
10.10757610437171
10.205233844510566
8.252079041733426
6.787212939650568
7.177843900205997
6.103608758678568
5.420004577706569
3.662165255207141
2.0996414129854277
2.490272373540856
1.416037232013428
0.7324330510414282
0.8300907911802854
-0.04882887006942855
-0.7324330510414282
-0.6347753109025711
-0.6347753109025711
-0.6347753109025711
-1.6113527122911422
-2.2949568932631417
-2.197299153124285
-3.1738765545128556
-3.8574807354848555
-4.638742656595713
-5.420004577706569
-5.322346837567712
-6.298924238956283
-6.982528419928283
-6.884870679789426
-7.861448081177996
-8.545052262149996
-9.326314183260854
-10.10757610437171
-9.912260624093996
-10.986495765621424
-11.670099946593423
-11.47478446631571
-12.45136186770428
-13.232623788815136
-14.013885709925994
-14.795147631036851
-14.599832150759136
-14.599832150759136
-14.599832150759136
-14.599832150759136
-15.576409552147707
-16.357671473258563
-16.16235599298085
-16.16235599298085
-16.16235599298085
-15.185778591592278
-14.50217441062028
-14.599832150759136
-13.623254749370565
-12.84199282825971
-11.181811245899137
-9.619287403677424
-9.912260624093996
-7.959105821316854
-6.494239719233997
-6.787212939650568
-2.8809033340962844
0.04882887006942855
3.076218814373999
6.201266498817426
5.517662317845426
9.521629663538567
12.45136186770428
11.767757686732281
15.771725032425422
18.701457236591136
20.84992751964599
23.19371328297856
22.705424582284277
24.756237125200276
26.22110322728313
25.830472266727703
27.783627069504846
29.2484931715877
29.9320973525597
30.71335927367056
30.518043793392845
30.518043793392845
30.518043793392845
30.518043793392845
30.518043793392845
30.518043793392845
27.588311589227132
25.342183566033416
25.830472266727703
20.068665598535134
15.576409552147707
16.55298695353628
11.572442206454566
7.861448081177996
5.810635538261997
3.466849774929427
3.9551384756237127
2.8809033340962844
2.197299153124285
2.2949568932631417
4.248111696040284
5.71297779812314
9.228656443121995
12.256046387426567
11.572442206454566
15.47875181200885
18.40848401617456
17.82253757534142
18.89677271686885
19.58037689784085
18.506141756313422
17.724879835202564
17.920195315480278
17.82253757534142
17.82253757534142
17.82253757534142
15.967040512703136
14.50217441062028
13.81857022964828
13.037308308537423
13.232623788815136
11.279468986037996
9.71694514381628
10.10757610437171
7.177843900205997
4.931715877012284
3.466849774929427
1.9043259327077133
2.2949568932631417
0.24414435034714274
-1.1230640115968566
-0.7324330510414282
-3.662165255207141
-5.908293278400855
-7.373159380483711
-8.935683222705425
-8.545052262149996
-10.595864805065995
-12.060730907148852
-11.670099946593423
-14.599832150759136
-16.84596017395285
-18.21316853589685
-19.87335011825742
-19.48271915770199
-20.45929655909056
-21.24055848020142
-21.045242999923705
-22.021820401312276
-22.803082322423133
-22.60776684214542
-22.60776684214542
-22.60776684214542
-22.60776684214542
-22.60776684214542
-22.60776684214542
-20.654612039368278
-19.18974593728542
-16.650644693675137
-14.306858930342566
-14.795147631036851
-10.888838025482567
-7.959105821316854
-8.642710002288853
-2.68558785381857
1.6113527122911422
5.420004577706569
9.326314183260854
8.44739452201114
14.404516670481422
18.799114976729992
17.82253757534142
23.682001983672848
28.076600289921416
31.885252155336843
35.79156176089113
34.91264209964141
38.03768978408484
40.186160067139696
39.69787136644541
41.651026169222554
43.11589227130541
42.822919050888835
42.822919050888835
42.822919050888835
41.84634164950027
41.065079728389414
41.26039520866713
39.307240405889985
37.84237430380713
35.20561532005799
32.95948729686427
33.44777599755856
30.420386053253985
28.27191577019913
28.760204470893417
26.709391927977418
25.24452582589456
22.705424582284277
20.361638818951704
20.84992751964599
18.799114976729992
17.334248874647134
17.724879835202564
15.674067292286564
14.209201190203707
12.646677347981994
11.08415350576028
11.47478446631571
10.400549324788281
9.619287403677424
9.81460288395514
7.861448081177996
6.39658197909514
5.810635538261997
4.931715877012284
5.127031357289998
4.150453955901427
3.36919203479057
3.5645075150682843
2.5879301136797133
1.8066681925688564
1.0254062714579995
0.24414435034714274
0.43945983062485694
-0.43945983062485694
-1.2207217517357138
-1.0254062714579995
-2.0019836728465705
-2.783245593957427
-3.5645075150682843
-4.345769436179141
-4.150453955901427
-5.127031357289998
-5.908293278400855
-5.71297779812314
-7.666132600900283
-9.130998702983138
-9.71694514381628
-10.595864805065995
-10.400549324788281
-12.353704127565424
-13.81857022964828
-13.427939269092851
-14.50217441062028
-15.185778591592278
-16.943617914091707
-18.506141756313422
-18.11551079575799
-19.18974593728542
-19.87335011825742
-19.678034637979707
-20.654612039368278
-21.43587396047913
-21.24055848020142
-21.24055848020142
-21.24055848020142
-20.263981078812847
-19.58037689784085
-19.678034637979707
-17.724879835202564
-16.260013733119706
-12.74433508812085
-9.71694514381628
-10.400549324788281
-6.39658197909514
-3.466849774929427
-4.150453955901427
0.6347753109025711
4.345769436179141
8.349736781872283
12.158388647287708
11.377126726176853
16.260013733119706
19.971007858396277
19.092088197146563
24.072632944228275
27.783627069504846
29.834439612420844
32.178225375753414
31.68993667505913
33.64309147783627
35.10795757991913
34.81498435950255
34.81498435950255
34.81498435950255
31.00633249408713
27.97894254978256
28.66254673075456
20.84992751964599
14.990463111314565
16.260013733119706
9.228656443121995
4.150453955901427
2.392614633401999
0.04882887006942855
0.43945983062485694
-0.537117570763714
-1.2207217517357138
-1.0254062714579995
0.7324330510414282
2.197299153124285
6.6895551995117115
10.400549324788281
9.619287403677424
14.599832150759136
18.21316853589685
17.43190661478599
19.48271915770199
20.947585259784848
18.701457236591136
17.236591134508277
17.52956435492485
16.55298695353628
15.771725032425422
15.967040512703136
14.013885709925994
12.549019607843137
10.986495765621424
9.42397192339971
9.71694514381628
7.763790341039139
6.298924238956283
6.591897459372854
3.662165255207141
1.416037232013428
-0.8300907911802854
-3.1738765545128556
-2.68558785381857
-5.615320057984283
-7.861448081177996
-7.373159380483711
-10.302891584649425
-12.45136186770428
-14.892805371175708
-17.236591134508277
-16.650644693675137
-18.701457236591136
-20.16632333867399
-19.775692378118563
-22.705424582284277
-24.95155260547799
-26.318760967421987
-27.97894254978256
-27.588311589227132
-29.541466392004274
-31.00633249408713
-30.71335927367056
-32.6665140764477
-34.131380178530556
-34.717326619363696
-35.49858854047456
-35.303273060196844
-36.37750820172427
-37.06111238269627
-36.86579690241855
-36.86579690241855
-36.86579690241855
-35.889219501029984
-35.20561532005799
-35.303273060196844
-33.3501182574197
-31.885252155336843
-32.178225375753414
-29.2484931715877
-27.002365148393988
-23.682001983672848
-20.55695429922942
-21.24055848020142
-17.334248874647134
-14.404516670481422
-14.990463111314565
-11.963073167009995
-9.81460288395514
-7.373159380483711
-5.127031357289998
-5.615320057984283
-3.5645075150682843
-2.0996414129854277
-2.392614633401999
-1.416037232013428
-0.6347753109025711
-0.8300907911802854
-0.8300907911802854
-0.8300907911802854
-1.8066681925688564
-2.490272373540856
-2.2949568932631417
-4.248111696040284
-5.71297779812314
-7.373159380483711
-8.935683222705425
-8.545052262149996
-11.47478446631571
-13.720912489509422
-13.232623788815136
-16.16235599298085
-18.40848401617456
-20.752269779507134
-23.096055542839704
-22.510109102006563
-24.560921644922562
-26.025787747005417
-25.63515678644999
-27.68596932936599
-29.150835431448844
-30.71335927367056
-32.27588311589227
-31.885252155336843
-33.838406958113985
-35.303273060196844
-35.010299839780274
-35.98687724116884
-36.67048142214084
-37.4517433432517
-38.23300526436255
-38.03768978408484
-38.1353475242237
-38.03768978408484
-38.03768978408484
-39.014267185473415
-39.69787136644541
-39.600213626306555
-39.600213626306555
-39.600213626306555
-39.5025558861677
-39.5025558861677
-39.5025558861677
-39.5025558861677
-39.5025558861677
-38.525978484779124
-37.74471656366827
-37.94003204394598
-37.84237430380713
-37.84237430380713
-37.84237430380713
-37.84237430380713
-37.84237430380713
-37.84237430380713
-37.84237430380713
-37.84237430380713
-37.74471656366827
-37.74471656366827
-37.74471656366827
-38.72129396505684
-39.40489814602884
-39.307240405889985
-39.307240405889985
-39.307240405889985
-39.20958266575113
-39.20958266575113
-39.20958266575113
-39.20958266575113
-39.20958266575113
-38.23300526436255
-37.4517433432517
-37.64705882352941
-35.69390402075227
-34.22903791866941
-34.52201113908598
-31.592278934920273
-29.346150911726557
-25.049210345616846
-21.24055848020142
-22.021820401312276
-17.13893339436942
-13.427939269092851
-14.209201190203707
-9.228656443121995
-5.615320057984283
-1.6113527122911422
2.197299153124285
1.3183794918745708
6.298924238956283
9.912260624093996
9.130998702983138
13.13496604867628
16.064698252841993
18.21316853589685
20.654612039368278
20.068665598535134
22.119478141451133
23.58434424353399
23.19371328297856
25.146868085755703
26.61173418783856
23.48668650339513
21.338216220340275
21.728847180895706
16.84596017395285
13.13496604867628
14.013885709925994
8.05676356145571
3.662165255207141
1.8066681925688564
-0.537117570763714
-0.04882887006942855
-2.0996414129854277
-3.466849774929427
-3.1738765545128556
-3.2715342946517127
-3.2715342946517127
-1.3183794918745708
0.04882887006942855
-0.14648661020828566
1.7090104524299992
3.1738765545128556
2.8809033340962844
2.8809033340962844
2.8809033340962844
1.9043259327077133
1.2207217517357138
1.416037232013428
0.34180209048599985
-0.24414435034714274
-0.04882887006942855
-0.14648661020828566
-0.14648661020828566
-0.14648661020828566
-0.14648661020828566
-0.14648661020828566
-0.14648661020828566
-0.14648661020828566
-0.14648661020828566
-0.14648661020828566
-0.14648661020828566
-0.14648661020828566
-0.14648661020828566
-0.14648661020828566
-0.14648661020828566
-0.14648661020828566
-0.14648661020828566
-0.14648661020828566
-0.14648661020828566
-0.14648661020828566
-0.14648661020828566
-0.14648661020828566
0.7324330510414282
1.513694972152285
1.3183794918745708
1.3183794918745708
1.3183794918745708
1.3183794918745708
1.3183794918745708
1.3183794918745708
1.3183794918745708
1.3183794918745708
1.3183794918745708
0.34180209048599985
-0.24414435034714274
-0.04882887006942855
-0.14648661020828566
-0.14648661020828566
0.7324330510414282
1.513694972152285
1.3183794918745708
2.2949568932631417
3.076218814373999
5.71297779812314
7.959105821316854
7.470817120622568
10.498207064927138
12.646677347981994
12.158388647287708
16.064698252841993
18.994430457007706
21.24055848020142
23.58434424353399
23.096055542839704
27.002365148393988
29.9320973525597
29.2484931715877
31.2993057145037
32.764171816586554
34.32669565880827
35.889219501029984
35.49858854047456
36.57282368200198
37.256427862973986
37.06111238269627
38.03768978408484
38.818951705195694
38.62363622491798
38.62363622491798
38.62363622491798
37.64705882352941
36.86579690241855
37.06111238269627
36.0845349813077
35.303273060196844
33.545433737697415
31.9829098954757
32.37354085603113
29.346150911726557
27.1976806286717
27.68596932936599
24.65857938506142
22.412451361867703
20.068665598535134
17.724879835202564
18.21316853589685
16.260013733119706
14.795147631036851
15.088120851453422
13.13496604867628
11.572442206454566
9.033340962844282
6.787212939650568
7.275501640344854
5.224689097428855
3.7598229953459983
4.150453955901427
2.0996414129854277
0.6347753109025711
0.04882887006942855
-0.7324330510414282
-0.537117570763714
-2.490272373540856
-3.9551384756237127
-3.5645075150682843
-4.638742656595713
-5.322346837567712
-5.224689097428855
-5.224689097428855
-5.224689097428855
-6.201266498817426
-6.884870679789426
-6.787212939650568
-6.787212939650568
-6.787212939650568
-6.787212939650568
-6.787212939650568
-6.787212939650568
-5.810635538261997
-5.0293736171511405
-5.224689097428855
-5.224689097428855
-5.224689097428855
-4.248111696040284
-3.466849774929427
-3.662165255207141
-3.5645075150682843
-3.662165255207141
-3.662165255207141
-3.662165255207141
-3.662165255207141
-3.662165255207141
-3.5645075150682843
-3.5645075150682843
-5.517662317845426
-6.982528419928283
-6.6895551995117115
-7.666132600900283
-8.44739452201114
-10.205233844510566
-11.670099946593423
-11.377126726176853
-12.353704127565424
-13.13496604867628
-12.939650568398566
-12.939650568398566
-12.939650568398566
-10.986495765621424
-9.521629663538567
-9.912260624093996
-6.884870679789426
-4.736400396734569
-5.224689097428855
-2.197299153124285
-0.04882887006942855
3.1738765545128556
6.298924238956283
5.615320057984283
9.521629663538567
12.45136186770428
11.865415426871138
14.892805371175708
17.041275654230564
19.385061417563133
21.728847180895706
21.24055848020142
24.17029068436713
26.416418707560844
25.92813000686656
26.90470740825513
27.68596932936599
26.514076447699704
25.830472266727703
25.92813000686656
22.119478141451133
19.092088197146563
19.775692378118563
14.892805371175708
11.181811245899137
9.130998702983138
6.6895551995117115
7.275501640344854
7.080186160067139
7.177843900205997
7.177843900205997
9.033340962844282
10.498207064927138
14.013885709925994
17.041275654230564
16.357671473258563
19.385061417563133
21.533531700617992
21.045242999923705
21.14290074006256
21.14290074006256
19.18974593728542
17.724879835202564
18.017853055619135
16.064698252841993
14.599832150759136
14.892805371175708
12.939650568398566
11.47478446631571
9.912260624093996
8.349736781872283
8.642710002288853
7.666132600900283
6.884870679789426
7.080186160067139
6.103608758678568
5.322346837567712
3.5645075150682843
2.0996414129854277
2.392614633401999
1.3183794918745708
0.6347753109025711
0.8300907911802854
-1.0254062714579995
-2.490272373540856
-4.150453955901427
-5.615320057984283
-5.322346837567712
-7.275501640344854
-8.74036774242771
-8.44739452201114
-11.377126726176853
-13.623254749370565
-14.990463111314565
-16.55298695353628
-16.260013733119706
-19.18974593728542
-21.338216220340275
-20.84992751964599
-22.90074006256199
-24.365606164644845
-25.92813000686656
-27.49065384908827
-27.100022888532845
-29.053177691309987
-30.518043793392845
-30.22507057297627
-30.22507057297627
-30.22507057297627
-29.2484931715877
-28.564888990615703
-28.66254673075456
-26.709391927977418
-25.24452582589456
-25.537499046311133
-20.752269779507134
-17.041275654230564
-13.037308308537423
-9.130998702983138
-10.009918364232853
-4.052796215762569
0.24414435034714274
-0.6347753109025711
5.224689097428855
9.619287403677424
14.306858930342566
18.994430457007706
18.017853055619135
22.021820401312276
24.95155260547799
24.267948424505988
27.295338368810558
29.443808651865414
30.908674753948272
32.471198596169984
32.08056763561456
33.15480277714199
33.838406958113985
33.64309147783627
33.64309147783627
33.64309147783627
31.787594415197987
30.22507057297627
30.615701533531702
29.541466392004274
28.760204470893417
28.95551995117113
27.002365148393988
25.537499046311133
23.87731746395056
22.314793621728846
22.705424582284277
20.654612039368278
19.18974593728542
19.58037689784085
17.52956435492485
16.064698252841993
15.47875181200885
14.599832150759136
14.795147631036851
11.865415426871138
9.71694514381628
10.205233844510566
8.154421301594567
6.6895551995117115
5.127031357289998
3.5645075150682843
3.8574807354848555
2.8809033340962844
2.0996414129854277
2.2949568932631417
1.3183794918745708
0.537117570763714
-0.14648661020828566
-0.9277485313191425
-0.7324330510414282
-0.8300907911802854
-0.7324330510414282
-0.7324330510414282
-1.7090104524299992
-2.490272373540856
-3.2715342946517127
-4.052796215762569
-3.8574807354848555
-3.8574807354848555
-3.8574807354848555
-3.8574807354848555
-5.810635538261997
-7.275501640344854
-7.861448081177996
-8.74036774242771
-8.545052262149996
-9.521629663538567
-10.302891584649425
-10.10757610437171
-11.08415350576028
-11.767757686732281
-12.646677347981994
-13.330281528953995
-13.232623788815136
-13.232623788815136
-13.232623788815136
-13.232623788815136
-14.209201190203707
-14.892805371175708
-14.697489890897993
-14.795147631036851
-14.795147631036851
-14.795147631036851
-14.795147631036851
-14.697489890897993
-14.697489890897993
-14.697489890897993
-12.84199282825971
-11.377126726176853
-11.670099946593423
-8.74036774242771
-6.494239719233997
-6.982528419928283
-4.052796215762569
-1.8066681925688564
2.392614633401999
6.201266498817426
5.322346837567712
9.326314183260854
12.256046387426567
11.670099946593423
14.599832150759136
16.84596017395285
19.18974593728542
21.533531700617992
20.947585259784848
22.021820401312276
22.803082322423133
22.60776684214542
23.58434424353399
24.267948424505988
21.24055848020142
19.092088197146563
19.58037689784085
13.720912489509422
9.326314183260854
10.302891584649425
5.224689097428855
1.6113527122911422
-1.3183794918745708
-4.443427176317998
-3.7598229953459983
-3.9551384756237127
-3.8574807354848555
-3.8574807354848555
-2.8809033340962844
-2.197299153124285
0.43945983062485694
2.68558785381857
2.197299153124285
4.248111696040284
5.615320057984283
5.322346837567712
5.420004577706569
5.420004577706569
2.490272373540856
0.34180209048599985
0.8300907911802854
-2.0996414129854277
-4.248111696040284
-3.7598229953459983
-6.787212939650568
-8.935683222705425
-10.400549324788281
-11.963073167009995
-11.572442206454566
-12.646677347981994
-13.330281528953995
-13.232623788815136
-14.209201190203707
-14.892805371175708
-15.674067292286564
-16.45532921339742
-16.260013733119706
-16.357671473258563
-16.357671473258563
-16.357671473258563
-17.236591134508277
-18.017853055619135
-17.82253757534142
-17.82253757534142
-17.82253757534142
-18.799114976729992
-19.58037689784085
-19.385061417563133
-19.385061417563133
-19.385061417563133
-20.361638818951704
-21.045242999923705
-20.84992751964599
-21.92416266117342
-22.60776684214542
-22.412451361867703
-24.365606164644845
-25.830472266727703
-26.514076447699704
-27.295338368810558
-27.100022888532845
-29.053177691309987
-30.518043793392845
-30.127412832837415
-30.22507057297627
-30.22507057297627
-30.22507057297627
-30.22507057297627
-30.127412832837415
-29.2484931715877
-28.467231250476843
-28.564888990615703
-25.732814526588847
-23.48668650339513
-21.045242999923705
-18.701457236591136
-19.287403677424276
-14.404516670481422
-10.693522545204852
-11.47478446631571
-6.494239719233997
-2.8809033340962844
0.04882887006942855
3.1738765545128556
2.490272373540856
6.494239719233997
9.42397192339971
8.74036774242771
12.74433508812085
15.674067292286564
16.943617914091707
18.506141756313422
18.11551079575799
20.16632333867399
21.63118944075685
21.24055848020142
23.291371023117417
24.65857938506142
24.365606164644845
24.4632639047837
24.365606164644845
25.342183566033416
26.123445487144274
25.92813000686656
24.95155260547799
24.267948424505988
23.48668650339513
22.60776684214542
22.803082322423133
20.84992751964599
19.385061417563133
19.678034637979707
17.724879835202564
16.260013733119706
14.697489890897993
13.13496604867628
13.427939269092851
11.47478446631571
10.009918364232853
10.302891584649425
8.349736781872283
6.884870679789426
5.224689097428855
3.662165255207141
4.052796215762569
2.9785610742351416
2.2949568932631417
2.392614633401999
1.416037232013428
0.7324330510414282
0.04882887006942855
-0.7324330510414282
-0.537117570763714
-0.6347753109025711
-0.6347753109025711
-0.6347753109025711
0.24414435034714274
1.0254062714579995
0.8300907911802854
0.8300907911802854
0.8300907911802854
0.8300907911802854
0.8300907911802854
0.8300907911802854
0.8300907911802854
0.8300907911802854
-0.04882887006942855
-0.7324330510414282
-0.6347753109025711
-0.6347753109025711
-0.6347753109025711
-0.6347753109025711
-1.6113527122911422
-2.2949568932631417
-2.0996414129854277
-2.197299153124285
-2.197299153124285
-3.1738765545128556
-3.8574807354848555
-3.662165255207141
-4.736400396734569
-5.420004577706569
-5.224689097428855
-5.322346837567712
-5.322346837567712
-4.345769436179141
-3.5645075150682843
-3.7598229953459983
-2.783245593957427
-2.0019836728465705
-0.24414435034714274
1.1230640115968566
0.8300907911802854
3.7598229953459983
5.908293278400855
5.420004577706569
9.42397192339971
12.353704127565424
15.47875181200885
18.60379949645228
17.920195315480278
21.826504921034562
24.756237125200276
24.17029068436713
27.100022888532845
29.346150911726557
31.68993667505913
34.0337224383917
33.44777599755856
35.49858854047456
36.96345464255741
36.57282368200198
37.64705882352941
38.33066300450141
37.256427862973986
36.475165941863125
36.67048142214084
32.764171816586554
29.834439612420844
30.420386053253985
25.537499046311133
21.826504921034562
19.775692378118563
17.334248874647134
17.920195315480278
17.82253757534142
17.82253757534142
17.82253757534142
19.678034637979707
21.14290074006256
23.682001983672848
26.025787747005417
25.439841306172273
27.49065384908827
28.95551995117113
28.564888990615703
27.68596932936599
26.90470740825513
24.267948424505988
21.92416266117342
22.510109102006563
19.48271915770199
17.236591134508277
17.724879835202564
15.771725032425422
14.306858930342566
11.767757686732281
9.42397192339971
9.912260624093996
6.982528419928283
4.736400396734569
5.224689097428855
3.1738765545128556
1.7090104524299992
-0.7324330510414282
-2.9785610742351416
-2.490272373540856
-4.541084916456855
-6.005951018539712
-5.615320057984283
-7.568474860761425
-9.033340962844282
-9.71694514381628
-10.498207064927138
-10.302891584649425
-12.256046387426567
-13.720912489509422
-13.427939269092851
-13.525597009231708
-13.427939269092851
-14.404516670481422
-15.185778591592278
-14.990463111314565
-14.990463111314565
-14.990463111314565
-14.990463111314565
-14.013885709925994
-13.330281528953995
-13.427939269092851
-13.427939269092851
-13.427939269092851
-12.45136186770428
-11.670099946593423
-11.865415426871138
-10.888838025482567
-10.10757610437171
-8.349736781872283
-6.884870679789426
-7.177843900205997
-5.224689097428855
-3.7598229953459983
-4.052796215762569
-1.1230640115968566
1.0254062714579995
3.36919203479057
5.71297779812314
5.127031357289998
10.009918364232853
13.720912489509422
12.939650568398566
17.82253757534142
21.533531700617992
26.416418707560844
31.103990234225986
30.029755092698558
35.98687724116884
40.38147554741741
39.40489814602884
44.38544289311055
47.998779278248264
51.02616922255284
54.15121690699626
53.36995498588541
55.420767528801406
56.88563363088426
56.59266041046769
56.59266041046769
56.59266041046769
55.61608300907912
54.83482108796826
55.03013656824598
52.97932402532997
51.51445792324712
51.80743114366369
49.85427634088655
48.38941023880369
45.85030899519341
43.50652323186084
43.99481193255512
40.96742198825055
38.818951705195694
39.307240405889985
37.256427862973986
35.79156176089113
32.27588311589227
29.2484931715877
29.834439612420844
26.807049668116274
24.65857938506142
25.146868085755703
21.14290074006256
18.21316853589685
15.088120851453422
11.963073167009995
12.646677347981994
8.642710002288853
5.71297779812314
6.39658197909514
3.36919203479057
1.1230640115968566
-2.0996414129854277
-5.127031357289998
-4.443427176317998
-7.470817120622568
-9.71694514381628
-9.228656443121995
-11.181811245899137
-12.646677347981994
-15.185778591592278
-17.52956435492485
-16.943617914091707
-18.994430457007706
-20.45929655909056
-20.068665598535134
-22.119478141451133
-23.58434424353399
-24.17029068436713
-24.95155260547799
-24.756237125200276
-26.709391927977418
-28.174258030060273
-27.881284809643702
-28.857862211032273
-29.63912413214313
-29.443808651865414
-29.443808651865414
-29.443808651865414
-30.420386053253985
-31.103990234225986
-30.908674753948272
-31.00633249408713
-30.908674753948272
-32.86182955672541
-34.32669565880827
-33.93606469825284
-35.010299839780274
-35.69390402075227
-35.49858854047456
-35.596246280613414
-35.596246280613414
-35.49858854047456
-35.49858854047456
-35.49858854047456
-34.52201113908598
-33.838406958113985
-33.93606469825284
-31.00633249408713
-28.857862211032273
-27.392996108949415
-25.830472266727703
-26.123445487144274
-22.21713588158999
-19.287403677424276
-19.87335011825742
-15.967040512703136
-13.037308308537423
-9.81460288395514
-6.6895551995117115
-7.373159380483711
-4.345769436179141
-2.197299153124285
-2.68558785381857
0.24414435034714274
2.392614633401999
1.9043259327077133
2.0019836728465705
2.0019836728465705
-0.7324330510414282
-2.9785610742351416
-2.490272373540856
-5.420004577706569
-7.666132600900283
-8.154421301594567
-8.935683222705425
-8.74036774242771
-8.838025482566568
-8.838025482566568
-8.838025482566568
-6.884870679789426
-5.420004577706569
-2.8809033340962844
-0.537117570763714
-1.1230640115968566
1.8066681925688564
3.9551384756237127
3.466849774929427
4.541084916456855
5.322346837567712
3.1738765545128556
1.8066681925688564
2.0996414129854277
1.0254062714579995
0.34180209048599985
0.537117570763714
-1.3183794918745708
-2.8809033340962844
-3.466849774929427
-4.248111696040284
-4.052796215762569
-5.127031357289998
-5.810635538261997
-5.615320057984283
-6.591897459372854
-7.373159380483711
-8.154421301594567
-8.935683222705425
-8.74036774242771
-9.71694514381628
-10.498207064927138
-10.302891584649425
-11.279468986037996
-12.060730907148852
-13.81857022964828
-15.283436331731137
-14.990463111314565
-15.967040512703136
-16.650644693675137
-16.55298695353628
-17.52956435492485
-18.21316853589685
-18.994430457007706
-19.775692378118563
-19.58037689784085
-19.678034637979707
-19.678034637979707
-19.678034637979707
-20.55695429922942
-21.338216220340275
-22.119478141451133
-22.90074006256199
-22.705424582284277
-24.65857938506142
-26.123445487144274
-25.732814526588847
-26.807049668116274
-27.49065384908827
-28.27191577019913
-29.053177691309987
-28.857862211032273
-28.95551995117113
-28.857862211032273
-28.857862211032273
-28.857862211032273
-28.857862211032273
-27.881284809643702
-27.1976806286717
-27.295338368810558
-24.365606164644845
-22.21713588158999
-22.705424582284277
-19.678034637979707
-17.43190661478599
-13.13496604867628
-9.326314183260854
-10.205233844510566
-6.201266498817426
-3.2715342946517127
-3.8574807354848555
-0.9277485313191425
1.2207217517357138
4.541084916456855
7.568474860761425
6.884870679789426
9.912260624093996
12.158388647287708
11.670099946593423
13.623254749370565
15.088120851453422
16.650644693675137
18.21316853589685
17.920195315480278
18.89677271686885
19.678034637979707
19.48271915770199
20.45929655909056
21.14290074006256
21.045242999923705
21.045242999923705
21.045242999923705
21.045242999923705
21.045242999923705
21.045242999923705
20.068665598535134
19.287403677424276
17.52956435492485
16.064698252841993
16.357671473258563
15.283436331731137
14.599832150759136
14.697489890897993
12.74433508812085
11.279468986037996
9.71694514381628
8.154421301594567
8.545052262149996
6.494239719233997
5.0293736171511405
5.420004577706569
3.36919203479057
1.9043259327077133
-0.537117570763714
-2.783245593957427
-2.2949568932631417
-4.345769436179141
-5.810635538261997
-5.420004577706569
-8.349736781872283
-10.595864805065995
-12.060730907148852
-13.623254749370565
-13.232623788815136
-15.283436331731137
-16.748302433813993
-16.357671473258563
-18.310826276035705
-19.775692378118563
-20.45929655909056
-21.24055848020142
-21.045242999923705
-22.021820401312276
-22.803082322423133
-22.60776684214542
-23.58434424353399
-24.267948424505988
-25.049210345616846
-25.830472266727703
-25.63515678644999
-25.732814526588847
-25.732814526588847
-25.732814526588847
-26.61173418783856
-27.392996108949415
-27.1976806286717
-27.1976806286717
-27.1976806286717
-27.1976806286717
-27.1976806286717
-27.1976806286717
-26.22110322728313
-25.439841306172273
-23.682001983672848
-22.21713588158999
-22.510109102006563
-19.58037689784085
-17.334248874647134
-17.82253757534142
-12.939650568398566
-9.228656443121995
-4.345769436179141
0.14648661020828566
-0.7324330510414282
5.127031357289998
9.521629663538567
8.545052262149996
13.525597009231708
17.236591134508277
21.14290074006256
25.049210345616846
24.17029068436713
28.174258030060273
31.103990234225986
30.420386053253985
34.32669565880827
37.256427862973986
36.67048142214084
36.768139162279695
36.768139162279695
33.838406958113985
31.592278934920273
32.08056763561456
28.174258030060273
25.24452582589456
24.95155260547799
23.974975204089418
24.17029068436713
25.146868085755703
25.830472266727703
25.63515678644999
27.588311589227132
29.053177691309987
32.56885633630884
35.596246280613414
34.91264209964141
37.94003204394598
40.08850232700084
39.600213626306555
39.69787136644541
39.600213626306555
36.768139162279695
34.52201113908598
35.010299839780274
31.103990234225986
28.174258030060273
28.760204470893417
25.732814526588847
23.58434424353399
21.14290074006256
18.799114976729992
19.287403677424276
16.357671473258563
14.11154345006485
14.599832150759136
12.646677347981994
11.181811245899137
9.521629663538567
7.959105821316854
8.349736781872283
6.298924238956283
4.834058136873426
5.224689097428855
3.1738765545128556
1.7090104524299992
1.1230640115968566
0.34180209048599985
0.43945983062485694
-1.416037232013428
-2.8809033340962844
-2.490272373540856
-4.541084916456855
-6.005951018539712
-6.591897459372854
-7.373159380483711
-7.177843900205997
-9.130998702983138
-10.595864805065995
-10.302891584649425
-11.377126726176853
-12.060730907148852
-12.84199282825971
-13.623254749370565
-13.427939269092851
-14.404516670481422
-15.185778591592278
-14.990463111314565
-14.990463111314565
-14.990463111314565
-15.967040512703136
-16.748302433813993
-16.55298695353628
-15.576409552147707
-14.892805371175708
-14.990463111314565
-13.037308308537423
-11.572442206454566
-9.033340962844282
-6.787212939650568
-7.275501640344854
-4.248111696040284
-2.0996414129854277
-2.5879301136797133
1.3183794918745708
4.248111696040284
7.373159380483711
10.498207064927138
9.81460288395514
13.81857022964828
16.748302433813993
16.064698252841993
19.092088197146563
21.24055848020142
22.705424582284277
24.267948424505988
23.87731746395056
25.830472266727703
27.295338368810558
27.002365148393988
28.95551995117113
30.420386053253985
31.00633249408713
31.885252155336843
31.68993667505913
31.68993667505913
31.68993667505913
31.68993667505913
31.68993667505913
31.592278934920273
29.736781872281988
28.174258030060273
28.564888990615703
26.514076447699704
25.049210345616846
25.439841306172273
23.389028763256274
21.92416266117342
20.361638818951704
18.799114976729992
19.092088197146563
16.16235599298085
13.916227969787137
14.404516670481422
11.47478446631571
9.228656443121995
6.884870679789426
4.541084916456855
5.0293736171511405
3.076218814373999
1.6113527122911422
1.9043259327077133
0.04882887006942855
-1.416037232013428
-3.076218814373999
-4.638742656595713
-4.248111696040284
-7.177843900205997
-9.42397192339971
-8.935683222705425
-10.888838025482567
-12.353704127565424
-13.916227969787137
-15.47875181200885
-15.185778591592278
-17.13893339436942
-18.60379949645228
-18.310826276035705
-20.263981078812847
-21.728847180895706
-22.314793621728846
-23.096055542839704
-22.998397802700847
-23.974975204089418
-24.65857938506142
-24.4632639047837
-25.439841306172273
-26.22110322728313
-27.002365148393988
-27.783627069504846
-27.588311589227132
-29.541466392004274
-31.00633249408713
-30.615701533531702
-31.68993667505913
-32.37354085603113
-34.131380178530556
-35.596246280613414
-35.303273060196844
-36.27985046158541
-37.06111238269627
-36.86579690241855
-37.84237430380713
-38.525978484779124
-39.307240405889985
-40.08850232700084
-39.893186846723125
-39.014267185473415
-38.23300526436255
-38.33066300450141
-36.37750820172427
-34.91264209964141
-32.37354085603113
-30.029755092698558
-30.518043793392845
-25.63515678644999
-21.92416266117342
-22.803082322423133
-17.82253757534142
-14.11154345006485
-10.205233844510566
-6.298924238956283
-7.177843900205997
-3.1738765545128556
-0.24414435034714274
-0.8300907911802854
2.9785610742351416
5.908293278400855
6.201266498817426
7.177843900205997
6.982528419928283
5.0293736171511405
3.5645075150682843
3.8574807354848555
2.8809033340962844
2.0996414129854277
3.2715342946517127
3.9551384756237127
3.7598229953459983
6.6895551995117115
8.935683222705425
8.44739452201114
11.377126726176853
13.623254749370565
18.799114976729992
23.389028763256274
22.412451361867703
25.439841306172273
27.588311589227132
27.100022888532845
28.174258030060273
28.857862211032273
26.807049668116274
25.342183566033416
25.63515678644999
22.705424582284277
20.45929655909056
20.947585259784848
18.994430457007706
17.52956435492485
14.990463111314565
12.646677347981994
13.13496604867628
11.08415350576028
9.619287403677424
10.009918364232853
7.080186160067139
4.834058136873426
3.36919203479057
1.8066681925688564
2.197299153124285
0.14648661020828566
-1.2207217517357138
-0.8300907911802854
-2.8809033340962844
-4.345769436179141
-6.884870679789426
-9.130998702983138
-8.642710002288853
-10.693522545204852
-12.060730907148852
-11.767757686732281
-14.697489890897993
-16.943617914091707
-18.310826276035705
-19.87335011825742
-19.58037689784085
-22.510109102006563
-24.65857938506142
-24.17029068436713
-27.1976806286717
-29.346150911726557
-31.68993667505913
-34.0337224383917
-33.545433737697415
-36.475165941863125
-38.72129396505684
-38.1353475242237
-40.186160067139696
-41.651026169222554
-42.236972610055695
-43.018234531166556
-42.822919050888835
-43.79949645227741
-44.580758373388264
-44.38544289311055
-44.38544289311055
-44.38544289311055
-43.40886549172198
-42.62760357061112
-42.822919050888835
-39.893186846723125
-37.64705882352941
-38.1353475242237
-33.252460517280845
-29.541466392004274
-23.682001983672848
-18.310826276035705
-19.48271915770199
-12.549019607843137
-7.373159380483711
-8.545052262149996
-1.6113527122911422
3.466849774929427
8.05676356145571
12.74433508812085
11.670099946593423
16.748302433813993
20.361638818951704
19.58037689784085
23.48668650339513
26.416418707560844
28.66254673075456
31.00633249408713
30.518043793392845
32.471198596169984
33.93606469825284
33.64309147783627
34.61966887922484
35.4009308003357
36.182192721446555
36.86579690241855
36.67048142214084
35.79156176089113
35.010299839780274
35.20561532005799
34.131380178530556
33.44777599755856
32.6665140764477
31.885252155336843
31.9829098954757
30.029755092698558
28.564888990615703
28.857862211032273
26.90470740825513
25.439841306172273
22.90074006256199
20.55695429922942
21.045242999923705
18.11551079575799
15.869382772564279
16.357671473258563
13.330281528953995
11.181811245899137
8.838025482566568
6.494239719233997
6.982528419928283
3.9551384756237127
1.8066681925688564
2.2949568932631417
-1.513694972152285
-4.541084916456855
-6.6895551995117115
-9.033340962844282
-8.545052262149996
-10.595864805065995
-12.060730907148852
-11.670099946593423
-13.720912489509422
-15.185778591592278
-16.748302433813993
-18.310826276035705
-17.920195315480278
-18.994430457007706
-19.678034637979707
-19.48271915770199
-20.45929655909056
-21.24055848020142
-22.021820401312276
-22.803082322423133
-22.60776684214542
-23.58434424353399
-24.267948424505988
-24.17029068436713
-25.146868085755703
-25.830472266727703
-27.588311589227132
-29.053177691309987
-28.760204470893417
-29.736781872281988
-30.518043793392845
-30.322728313115128
-31.2993057145037
-31.9829098954757
-30.908674753948272
-30.127412832837415
-30.322728313115128
-29.346150911726557
-28.564888990615703
-28.760204470893417
-24.853894865339132
-21.92416266117342
-18.701457236591136
-15.576409552147707
-16.260013733119706
-10.400549324788281
-6.005951018539712
-6.982528419928283
-2.0019836728465705
1.6113527122911422
6.494239719233997
11.181811245899137
10.10757610437171
15.088120851453422
18.799114976729992
17.920195315480278
21.92416266117342
24.853894865339132
25.146868085755703
26.025787747005417
25.830472266727703
23.974975204089418
22.412451361867703
22.803082322423133
18.89677271686885
15.967040512703136
15.576409552147707
14.697489890897993
14.892805371175708
15.869382772564279
16.55298695353628
16.357671473258563
18.310826276035705
19.775692378118563
23.291371023117417
26.318760967421987
25.63515678644999
28.66254673075456
30.811017013809415
30.322728313115128
31.396963454642556
32.08056763561456
29.053177691309987
26.90470740825513
27.392996108949415
25.342183566033416
23.87731746395056
24.17029068436713
21.24055848020142
18.994430457007706
17.627222095063708
15.967040512703136
16.357671473258563
13.427939269092851
11.181811245899137
11.670099946593423
8.642710002288853
6.494239719233997
4.052796215762569
1.8066681925688564
2.2949568932631417
-0.6347753109025711
-2.783245593957427
-2.2949568932631417
-4.345769436179141
-5.810635538261997
-7.373159380483711
-8.935683222705425
-8.545052262149996
-10.595864805065995
-12.060730907148852
-11.670099946593423
-11.767757686732281
-11.767757686732281
-12.74433508812085
-13.427939269092851
-13.232623788815136
-12.353704127565424
-11.572442206454566
-11.767757686732281
-11.670099946593423
-11.767757686732281
-10.79118028534371
-10.009918364232853
-10.205233844510566
-9.228656443121995
-8.44739452201114
-8.642710002288853
-8.545052262149996
-8.545052262149996
-8.545052262149996
-8.545052262149996
-8.545052262149996
-8.545052262149996
-8.545052262149996
-8.545052262149996
-8.545052262149996
-8.545052262149996
-6.591897459372854
-5.127031357289998
-5.517662317845426
-2.490272373540856
-0.34180209048599985
-0.8300907911802854
2.9785610742351416
6.005951018539712
10.986495765621424
15.674067292286564
14.599832150759136
21.533531700617992
26.61173418783856
25.537499046311133
32.471198596169984
37.549401083390556
43.11589227130541
48.48706797894255
47.31517509727627
53.27229724574655
57.66689555199512
56.690318150606544
61.67086289768826
65.28419928282597
67.33501182574197
69.67879758907453
69.19050888838025
71.1436636911574
72.60852979324025
72.21789883268482
73.19447623407339
73.97573815518425
73.78042267490653
73.78042267490653
73.78042267490653
73.68276493476768
73.68276493476768
73.68276493476768
72.70618753337911
71.92492561226825
69.19050888838025
66.94438086518655
67.43266956588083
64.40527962157626
62.15915159838254
62.64744029907683
58.74113069352254
55.713740749217976
52.588693064774546
49.46364538033112
50.14724956130312
46.14328221560998
43.21355001144427
43.79949645227741
39.79552910658427
36.86579690241855
33.74074921797513
30.615701533531702
31.2993057145037
27.295338368810558
24.365606164644845
24.95155260547799
21.045242999923705
18.017853055619135
14.892805371175708
11.767757686732281
12.45136186770428
8.44739452201114
5.517662317845426
6.201266498817426
2.197299153124285
-0.6347753109025711
-2.783245593957427
-5.224689097428855
-4.638742656595713
-7.666132600900283
-9.81460288395514
-9.326314183260854
-13.232623788815136
-16.260013733119706
-17.43190661478599
-19.092088197146563
-18.701457236591136
-21.63118944075685
-23.87731746395056
-23.389028763256274
-25.342183566033416
-26.807049668116274
-29.346150911726557
-31.68993667505913
-31.103990234225986
-33.15480277714199
-34.61966887922484
-34.22903791866941
-36.27985046158541
-37.64705882352941
-37.35408560311284
-37.4517433432517
-37.35408560311284
-37.35408560311284
-37.35408560311284
-37.35408560311284
-35.4009308003357
-33.93606469825284
-31.396963454642556
-29.053177691309987
-29.541466392004274
-25.63515678644999
-22.705424582284277
-23.291371023117417
-18.40848401617456
-14.697489890897993
-11.767757686732281
-8.545052262149996
-9.228656443121995
-5.322346837567712
-2.392614633401999
-2.9785610742351416
0.8300907911802854
3.7598229953459983
4.150453955901427
5.0293736171511405
4.834058136873426
2.0019836728465705
-0.14648661020828566
0.24414435034714274
-1.7090104524299992
-3.1738765545128556
-3.7598229953459983
-4.638742656595713
-4.443427176317998
-3.466849774929427
-2.783245593957427
-2.8809033340962844
-0.04882887006942855
2.0996414129854277
6.39658197909514
10.205233844510566
9.326314183260854
12.45136186770428
14.599832150759136
14.11154345006485
14.209201190203707
14.209201190203707
11.279468986037996
9.130998702983138
9.619287403677424
5.615320057984283
2.68558785381857
3.36919203479057
-0.537117570763714
-3.466849774929427
-5.615320057984283
-8.05676356145571
-7.470817120622568
-11.47478446631571
-14.404516670481422
-13.720912489509422
-16.748302433813993
-18.89677271686885
-21.24055848020142
-23.58434424353399
-23.096055542839704
-25.146868085755703
-26.514076447699704
-26.22110322728313
-28.174258030060273
-29.63912413214313
-31.201647974364842
-32.764171816586554
-32.471198596169984
-34.424353398947126
-35.889219501029984
-35.49858854047456
-36.57282368200198
-37.256427862973986
-39.014267185473415
-40.479133287556266
-40.186160067139696
-42.13931486991684
-43.604180971999696
-43.21355001144427
-45.16670481422141
-46.63157091630426
-47.31517509727627
-48.09643701838712
-47.90112153810941
-49.85427634088655
-51.22148470283055
-50.928511482413974
-51.90508888380255
-52.6863508049134
-53.467612726024264
-54.15121690699626
-53.95590142671855
-54.932478828107115
-55.713740749217976
-55.51842526894026
-55.51842526894026
-55.51842526894026
-56.39734493018997
-57.178606851300835
-56.983291371023114
-56.006713969634546
-55.32310978866255
-55.420767528801406
-53.467612726024264
-52.002746623941405
-48.48706797894255
-45.362020294499125
-46.04562447547112
-41.16273746852827
-37.4517433432517
-38.23300526436255
-32.27588311589227
-27.881284809643702
-25.049210345616846
-21.826504921034562
-22.510109102006563
-18.60379949645228
-15.674067292286564
-16.260013733119706
-14.209201190203707
-12.74433508812085
-11.181811245899137
-9.619287403677424
-9.912260624093996
-8.935683222705425
-8.154421301594567
-8.349736781872283
-7.373159380483711
-6.591897459372854
-8.642710002288853
-10.10757610437171
-9.81460288395514
-10.79118028534371
-11.572442206454566
-11.377126726176853
-13.330281528953995
-14.795147631036851
-15.381094071869994
-16.260013733119706
-16.064698252841993
-17.041275654230564
-17.724879835202564
-17.627222095063708
-17.627222095063708
-17.627222095063708
-16.650644693675137
-15.869382772564279
-16.064698252841993
-15.088120851453422
-14.306858930342566
-14.50217441062028
-14.404516670481422
-14.404516670481422
-14.404516670481422
-14.404516670481422
-14.404516670481422
-14.404516670481422
-14.404516670481422
-14.404516670481422
-14.404516670481422
-14.404516670481422
-14.404516670481422
-14.404516670481422
-14.404516670481422
-15.381094071869994
-16.064698252841993
-15.967040512703136
-15.967040512703136
-15.967040512703136
-15.967040512703136
-15.967040512703136
-15.967040512703136
-16.84596017395285
-17.627222095063708
-17.43190661478599
-17.43190661478599
-17.43190661478599
-17.43190661478599
-17.43190661478599
-17.43190661478599
-17.43190661478599
-17.43190661478599
-17.43190661478599
-18.40848401617456
-19.092088197146563
-18.89677271686885
-18.994430457007706
-18.994430457007706
-19.87335011825742
-20.654612039368278
-20.45929655909056
-20.45929655909056
-20.45929655909056
-20.45929655909056
-20.45929655909056
-20.45929655909056
-19.48271915770199
-18.799114976729992
-18.89677271686885
-17.920195315480278
-17.13893339436942
-13.525597009231708
-10.498207064927138
-11.181811245899137
-7.177843900205997
-4.248111696040284
-4.931715877012284
0.04882887006942855
3.5645075150682843
8.545052262149996
13.13496604867628
12.060730907148852
18.017853055619135
22.412451361867703
21.43587396047913
26.416418707560844
30.127412832837415
31.201647974364842
32.86182955672541
32.471198596169984
30.615701533531702
29.150835431448844
29.443808651865414
27.49065384908827
25.92813000686656
27.1976806286717
27.881284809643702
27.783627069504846
29.63912413214313
31.103990234225986
30.811017013809415
35.69390402075227
39.307240405889985
44.19012741283284
48.877698939497975
47.80346379797055
51.80743114366369
54.7371633478294
54.053559166857404
55.127794308384836
55.81139848935683
53.760585946440834
52.295719844357976
52.588693064774546
50.635538261997404
49.17067215991455
49.46364538033112
47.412832837415124
45.947966735332265
44.38544289311055
42.822919050888835
43.11589227130541
41.16273746852827
39.600213626306555
39.99084458686198
37.94003204394598
36.475165941863125
34.91264209964141
33.3501182574197
33.64309147783627
31.68993667505913
30.127412832837415
30.518043793392845
28.467231250476843
27.002365148393988
24.4632639047837
22.119478141451133
22.705424582284277
18.701457236591136
15.771725032425422
16.45532921339742
13.427939269092851
11.181811245899137
7.861448081177996
4.834058136873426
5.517662317845426
2.490272373540856
0.24414435034714274
0.7324330510414282
-3.076218814373999
-6.005951018539712
-9.228656443121995
-12.256046387426567
-11.572442206454566
-14.599832150759136
-16.84596017395285
-16.357671473258563
-19.287403677424276
-21.43587396047913
-22.90074006256199
-24.4632639047837
-24.072632944228275
-26.123445487144274
-27.588311589227132
-27.1976806286717
-27.295338368810558
-27.295338368810558
-26.318760967421987
-25.537499046311133
-25.732814526588847
-23.779659723811704
-22.21713588158999
-22.60776684214542
-17.724879835202564
-14.013885709925994
-10.10757610437171
-6.201266498817426
-7.080186160067139
-1.1230640115968566
3.1738765545128556
2.197299153124285
8.154421301594567
12.549019607843137
17.334248874647134
22.021820401312276
20.947585259784848
25.92813000686656
29.541466392004274
28.760204470893417
33.74074921797513
37.35408560311284
39.40489814602884
41.84634164950027
41.26039520866713
43.311207751583126
44.67841611352712
44.38544289311055
45.362020294499125
46.14328221560998
45.947966735332265
45.947966735332265
45.947966735332265
44.97138933394369
44.19012741283284
44.38544289311055
43.311207751583126
42.62760357061112
41.74868390936141
40.96742198825055
41.16273746852827
40.186160067139696
39.40489814602884
39.600213626306555
36.67048142214084
34.424353398947126
32.95948729686427
31.396963454642556
31.68993667505913
28.760204470893417
26.514076447699704
27.002365148393988
25.049210345616846
23.58434424353399
21.045242999923705
18.701457236591136
19.18974593728542
17.13893339436942
15.674067292286564
16.064698252841993
14.013885709925994
12.549019607843137
10.986495765621424
9.42397192339971
9.71694514381628
8.74036774242771
7.959105821316854
8.154421301594567
7.177843900205997
6.39658197909514
4.638742656595713
3.1738765545128556
3.466849774929427
1.513694972152285
0.04882887006942855
0.34180209048599985
-2.490272373540856
-4.736400396734569
-7.080186160067139
-9.42397192339971
-8.838025482566568
-11.865415426871138
-14.013885709925994
-13.525597009231708
-15.576409552147707
-17.041275654230564
-18.60379949645228
-20.16632333867399
-19.775692378118563
-21.826504921034562
-23.291371023117417
-22.90074006256199
-23.974975204089418
-24.65857938506142
-23.48668650339513
-22.803082322423133
-22.998397802700847
-21.92416266117342
-21.24055848020142
-21.338216220340275
-19.385061417563133
-17.920195315480278
-14.404516670481422
-11.377126726176853
-12.060730907148852
-8.05676356145571
-5.127031357289998
-5.810635538261997
0.04882887006942855
4.345769436179141
9.130998702983138
13.81857022964828
12.74433508812085
20.654612039368278
26.514076447699704
25.146868085755703
32.178225375753414
37.256427862973986
39.99084458686198
43.11589227130541
42.43228809033341
43.50652323186084
44.19012741283284
44.09246967269398
44.09246967269398
44.09246967269398
43.99481193255512
43.99481193255512
43.99481193255512
44.97138933394369
45.654993514915695
45.45967803463798
48.38941023880369
50.635538261997404
52.97932402532997
55.22545204852369
54.7371633478294
57.66689555199512
59.91302357518883
59.32707713435569
58.54581521324483
57.764553292133975
55.03013656824598
52.6863508049134
53.17463950560769
50.24490730144198
47.998779278248264
48.48706797894255
44.580758373388264
41.5533684290837
38.42832074464027
35.303273060196844
35.98687724116884
31.00633249408713
27.295338368810558
28.174258030060273
23.19371328297856
19.48271915770199
15.47875181200885
11.670099946593423
12.45136186770428
7.470817120622568
3.8574807354848555
4.638742656595713
-0.24414435034714274
-3.8574807354848555
-6.884870679789426
-10.009918364232853
-9.326314183260854
-12.353704127565424
-14.50217441062028
-14.013885709925994
-16.064698252841993
-17.52956435492485
-19.092088197146563
-20.654612039368278
-20.263981078812847
-22.21713588158999
-23.682001983672848
-23.389028763256274
-24.365606164644845
-25.146868085755703
-25.92813000686656
-26.709391927977418
-26.514076447699704
-28.467231250476843
-29.9320973525597
-29.541466392004274
-30.615701533531702
-31.2993057145037
-33.05714503700313
-34.52201113908598
-34.22903791866941
-35.20561532005799
-35.98687724116884
-35.79156176089113
-36.768139162279695
-37.4517433432517
-37.256427862973986
-37.35408560311284
-37.256427862973986
-37.256427862973986
-37.256427862973986
-37.256427862973986
-35.303273060196844
-33.838406958113985
-31.2993057145037
-28.95551995117113
-29.541466392004274
-25.537499046311133
-22.60776684214542
-23.291371023117417
-18.310826276035705
-14.599832150759136
-10.693522545204852
-6.787212939650568
-7.666132600900283
-3.662165255207141
-0.7324330510414282
-1.3183794918745708
2.490272373540856
5.420004577706569
6.6895551995117115
8.349736781872283
7.959105821316854
10.009918364232853
11.377126726176853
11.08415350576028
12.158388647287708
12.84199282825971
12.646677347981994
12.74433508812085
12.74433508812085
12.646677347981994
12.646677347981994
12.646677347981994
11.767757686732281
10.986495765621424
9.228656443121995
7.666132600900283
8.05676356145571
6.982528419928283
6.298924238956283
6.39658197909514
4.541084916456855
2.9785610742351416
1.416037232013428
-0.04882887006942855
0.24414435034714274
-1.7090104524299992
-3.1738765545128556
-2.783245593957427
-4.834058136873426
-6.298924238956283
-7.861448081177996
-9.42397192339971
-9.033340962844282
-10.986495765621424
-12.45136186770428
-12.158388647287708
-13.13496604867628
-13.916227969787137
-14.697489890897993
-15.47875181200885
-15.283436331731137
-16.260013733119706
-17.041275654230564
-16.84596017395285
-16.84596017395285
-16.84596017395285
-17.82253757534142
-18.506141756313422
-18.40848401617456
-19.385061417563133
-20.068665598535134
-19.87335011825742
-20.947585259784848
-21.63118944075685
-23.389028763256274
-24.853894865339132
-24.560921644922562
-26.514076447699704
-27.97894254978256
-27.68596932936599
-29.63912413214313
-31.103990234225986
-32.6665140764477
-34.22903791866941
-33.838406958113985
-35.79156176089113
-37.256427862973986
-36.96345464255741
-38.91660944533455
-40.38147554741741
-40.96742198825055
-41.74868390936141
-41.5533684290837
-42.529945830472265
-43.311207751583126
-43.11589227130541
-43.11589227130541
-43.11589227130541
-43.11589227130541
-43.11589227130541
-43.11589227130541
-42.13931486991684
-41.358052948805984
-41.45571068894484
-39.5025558861677
-38.03768978408484
-35.49858854047456
-33.15480277714199
-33.64309147783627
-28.760204470893417
-25.049210345616846
-25.92813000686656
-19.971007858396277
-15.576409552147707
-12.74433508812085
-9.521629663538567
-10.205233844510566
-8.154421301594567
-6.6895551995117115
-7.080186160067139
-6.005951018539712
-5.322346837567712
-3.5645075150682843
-2.0019836728465705
-2.2949568932631417
0.537117570763714
2.68558785381857
2.197299153124285
7.080186160067139
10.79118028534371
14.697489890897993
18.60379949645228
17.724879835202564
21.728847180895706
24.65857938506142
24.072632944228275
24.17029068436713
24.17029068436713
21.24055848020142
18.994430457007706
19.48271915770199
16.55298695353628
14.306858930342566
14.795147631036851
10.888838025482567
7.959105821316854
6.6895551995117115
5.0293736171511405
5.420004577706569
2.490272373540856
0.24414435034714274
0.7324330510414282
-1.2207217517357138
-2.68558785381857
-3.2715342946517127
-4.052796215762569
-3.9551384756237127
-5.908293278400855
-7.373159380483711
-6.982528419928283
-8.935683222705425
-10.498207064927138
-11.08415350576028
-11.865415426871138
-11.670099946593423
-13.623254749370565
-15.088120851453422
-14.795147631036851
-15.771725032425422
-16.55298695353628
-17.334248874647134
-18.11551079575799
-17.920195315480278
-18.89677271686885
-19.58037689784085
-19.48271915770199
-19.48271915770199
-19.48271915770199
-20.45929655909056
-21.14290074006256
-20.947585259784848
-21.045242999923705
-21.045242999923705
-21.045242999923705
-21.92416266117342
-22.705424582284277
-22.510109102006563
-22.510109102006563
-22.510109102006563
-22.510109102006563
-22.510109102006563
-22.510109102006563
-22.510109102006563
-22.510109102006563
-21.533531700617992
-20.752269779507134
-20.947585259784848
-19.971007858396277
-19.18974593728542
-19.385061417563133
-17.43190661478599
-15.967040512703136
-14.306858930342566
-12.74433508812085
-13.13496604867628
-8.252079041733426
-4.541084916456855
-5.420004577706569
-0.43945983062485694
3.1738765545128556
9.033340962844282
14.404516670481422
13.232623788815136
19.18974593728542
23.58434424353399
22.60776684214542
28.564888990615703
32.95948729686427
35.79156176089113
38.91660944533455
38.23300526436255
42.13931486991684
45.069047074082555
44.38544289311055
45.55733577477684
46.240939955748836
47.0222018768597
47.80346379797055
47.60814831769284
47.60814831769284
47.60814831769284
47.51049057755398
46.63157091630426
45.85030899519341
45.069047074082555
44.19012741283284
44.38544289311055
43.40886549172198
42.62760357061112
42.822919050888835
40.86976424811169
39.307240405889985
37.74471656366827
36.182192721446555
36.475165941863125
33.545433737697415
31.2993057145037
31.787594415197987
28.857862211032273
26.61173418783856
23.291371023117417
20.16632333867399
20.84992751964599
17.82253757534142
15.674067292286564
16.16235599298085
13.13496604867628
10.986495765621424
9.521629663538567
7.959105821316854
8.252079041733426
6.298924238956283
4.834058136873426
5.127031357289998
3.1738765545128556
1.7090104524299992
0.14648661020828566
-1.3183794918745708
-1.0254062714579995
-2.0019836728465705
-2.783245593957427
-2.5879301136797133
-3.5645075150682843
-4.345769436179141
-6.103608758678568
-7.568474860761425
-7.275501640344854
-9.228656443121995
-10.693522545204852
-10.400549324788281
-12.353704127565424
-13.81857022964828
-16.357671473258563
-18.60379949645228
-18.11551079575799
-21.045242999923705
-23.291371023117417
-22.803082322423133
-24.756237125200276
-26.22110322728313
-27.783627069504846
-29.346150911726557
-29.053177691309987
-31.00633249408713
-32.471198596169984
