ppg
-7.080186160067139
-9.033340962844282
-10.498207064927138
-12.060730907148852
-13.623254749370565
-13.330281528953995
-14.306858930342566
-15.088120851453422
-14.892805371175708
-16.84596017395285
-18.310826276035705
-17.920195315480278
-18.017853055619135
-18.017853055619135
-18.017853055619135
-18.017853055619135
-18.017853055619135
-15.088120851453422
-12.84199282825971
-9.521629663538567
-6.494239719233997
-7.177843900205997
-2.197299153124285
1.3183794918745708
0.537117570763714
5.517662317845426
9.130998702983138
13.13496604867628
17.041275654230564
16.16235599298085
21.14290074006256
24.756237125200276
23.974975204089418
27.881284809643702
30.811017013809415
34.0337224383917
37.15877012283513
36.37750820172427
39.40489814602884
41.5533684290837
41.065079728389414
43.11589227130541
44.580758373388264
45.16670481422141
45.947966735332265
45.75265125505455
46.72922865644312
47.51049057755398
47.31517509727627
46.33859769588769
45.55733577477684
44.77607385366598
43.99481193255512
44.19012741283284
42.236972610055695
40.67444876783398
41.065079728389414
38.03768978408484
35.889219501029984
33.44777599755856
31.103990234225986
31.592278934920273
26.709391927977418
22.998397802700847
23.87731746395056
19.87335011825742
16.943617914091707
13.720912489509422
10.595864805065995
11.279468986037996
7.275501640344854
4.345769436179141
5.0293736171511405
1.0254062714579995
-1.8066681925688564
-4.931715877012284
-8.05676356145571
-7.373159380483711
-10.400549324788281
-12.549019607843137
-12.060730907148852
-15.088120851453422
-17.236591134508277
-19.58037689784085
-21.92416266117342
-21.43587396047913
-24.365606164644845
-26.61173418783856
-26.123445487144274
-28.076600289921416
-29.541466392004274
-31.103990234225986
-32.6665140764477
-32.27588311589227
-33.3501182574197
-34.0337224383917
-33.838406958113985
-34.81498435950255
-35.596246280613414
-37.35408560311284
-38.818951705195694
-38.42832074464027
-39.5025558861677
-40.186160067139696
-39.99084458686198
-40.96742198825055
-41.74868390936141
-41.5533684290837
-41.5533684290837
-41.5533684290837
-41.5533684290837
-41.5533684290837
-41.5533684290837
-39.600213626306555
-38.1353475242237
-35.596246280613414
-33.252460517280845
-33.74074921797513
-28.857862211032273
-25.146868085755703
-25.92813000686656
-20.068665598535134
-15.576409552147707
-10.888838025482567
-6.201266498817426
-7.177843900205997
-1.2207217517357138
3.076218814373999
2.0996414129854277
7.959105821316854
12.45136186770428
15.283436331731137
18.40848401617456
17.724879835202564
18.799114976729992
19.48271915770199
19.385061417563133
17.52956435492485
15.967040512703136
12.45136186770428
9.42397192339971
10.10757610437171
9.033340962844282
8.252079041733426
8.44739452201114
9.326314183260854
10.10757610437171
12.84199282825971
15.088120851453422
14.599832150759136
18.506141756313422
21.43587396047913
20.752269779507134
24.756237125200276
27.68596932936599
26.025787747005417
25.439841306172273
25.537499046311133
21.728847180895706
18.701457236591136
19.385061417563133
15.381094071869994
12.45136186770428
9.326314183260854
6.201266498817426
6.884870679789426
2.8809033340962844
0.04882887006942855
0.6347753109025711
-2.2949568932631417
-4.541084916456855
-6.884870679789426
-9.228656443121995
-8.642710002288853
-10.693522545204852
-12.158388647287708
-11.865415426871138
-13.81857022964828
-15.283436331731137
-17.82253757534142
-20.068665598535134
-19.58037689784085
-21.63118944075685
-23.096055542839704
-22.705424582284277
-23.779659723811704
-24.4632639047837
-26.22110322728313
-27.68596932936599
-27.392996108949415
-28.369573510337986
-29.150835431448844
-28.95551995117113
-29.9320973525597
-30.615701533531702
-31.396963454642556
-32.178225375753414
-31.9829098954757
-33.93606469825284
-35.4009308003357
-35.10795757991913
-36.0845349813077
-36.768139162279695
-38.525978484779124
-40.08850232700084
-39.69787136644541
-40.67444876783398
-41.45571068894484
-41.26039520866713
-41.26039520866713
-41.26039520866713
-41.26039520866713
-41.26039520866713
-41.26039520866713
-39.307240405889985
-37.84237430380713
-38.1353475242237
-34.22903791866941
-31.201647974364842
-28.076600289921416
-24.95155260547799
-25.63515678644999
-20.654612039368278
-17.041275654230564
-17.82253757534142
-11.865415426871138
-7.470817120622568
-4.638742656595713
-1.416037232013428
-2.197299153124285
1.7090104524299992
4.638742656595713
3.9551384756237127
6.005951018539712
7.470817120622568
9.033340962844282
10.595864805065995
10.302891584649425
11.279468986037996
12.060730907148852
11.865415426871138
12.84199282825971
13.623254749370565
13.427939269092851
13.427939269092851
13.427939269092851
12.45136186770428
11.767757686732281
11.865415426871138
10.888838025482567
10.205233844510566
8.44739452201114
6.884870679789426
7.177843900205997
5.224689097428855
3.7598229953459983
4.052796215762569
2.0996414129854277
0.6347753109025711
0.04882887006942855
-0.7324330510414282
-0.537117570763714
-1.513694972152285
-2.2949568932631417
-2.0996414129854277
-3.076218814373999
-3.8574807354848555
-4.638742656595713
-5.420004577706569
-5.224689097428855
-6.201266498817426
-6.884870679789426
-6.787212939650568
-7.763790341039139
-8.44739452201114
-9.228656443121995
-10.009918364232853
-9.912260624093996
-11.865415426871138
-13.330281528953995
-12.939650568398566
-14.892805371175708
-16.357671473258563
-18.017853055619135
-19.48271915770199
-19.18974593728542
-22.119478141451133
-24.365606164644845
-23.779659723811704
-24.853894865339132
-25.537499046311133
-27.295338368810558
-28.857862211032273
-28.467231250476843
-29.541466392004274
-30.22507057297627
-30.029755092698558
-31.9829098954757
-33.44777599755856
-34.0337224383917
-34.91264209964141
-34.717326619363696
-35.69390402075227
-36.37750820172427
-36.182192721446555
-37.15877012283513
-37.94003204394598
-37.74471656366827
-37.74471656366827
-37.74471656366827
-35.79156176089113
-34.32669565880827
-34.61966887922484
-32.6665140764477
-31.201647974364842
-27.68596932936599
-24.65857938506142
-25.342183566033416
-19.385061417563133
-14.990463111314565
-15.967040512703136
-10.986495765621424
-7.275501640344854
-2.392614633401999
2.197299153124285
1.1230640115968566
5.127031357289998
8.05676356145571
7.470817120622568
11.377126726176853
14.306858930342566
16.55298695353628
18.89677271686885
18.40848401617456
17.52956435492485
16.748302433813993
16.943617914091707
14.013885709925994
11.767757686732281
8.44739452201114
5.420004577706569
6.103608758678568
3.9551384756237127
2.5879301136797133
2.8809033340962844
1.8066681925688564
1.1230640115968566
3.1738765545128556
4.638742656595713
4.345769436179141
7.275501640344854
9.42397192339971
8.935683222705425
11.963073167009995
14.11154345006485
12.646677347981994
12.060730907148852
12.158388647287708
9.326314183260854
7.080186160067139
7.568474860761425
4.541084916456855
2.392614633401999
0.04882887006942855
-2.197299153124285
-1.7090104524299992
-4.736400396734569
-6.884870679789426
-6.39658197909514
-8.44739452201114
-9.912260624093996
-10.498207064927138
-11.279468986037996
-11.181811245899137
-13.037308308537423
-14.599832150759136
-14.209201190203707
-15.283436331731137
-15.967040512703136
-16.748302433813993
-17.52956435492485
-17.334248874647134
-17.43190661478599
-17.334248874647134
-17.334248874647134
-18.310826276035705
-19.092088197146563
-19.87335011825742
-20.654612039368278
-20.45929655909056
-20.45929655909056
-20.45929655909056
-20.45929655909056
-20.45929655909056
-20.45929655909056
-20.45929655909056
-20.45929655909056
-20.45929655909056
-20.361638818951704
-20.361638818951704
-20.361638818951704
-19.385061417563133
-18.701457236591136
-17.920195315480278
-17.13893339436942
-17.236591134508277
-15.283436331731137
-13.81857022964828
-14.11154345006485
-12.158388647287708
-10.693522545204852
-7.177843900205997
-4.150453955901427
-4.834058136873426
0.04882887006942855
3.662165255207141
2.8809033340962844
7.763790341039139
11.47478446631571
15.47875181200885
19.287403677424276
18.40848401617456
22.412451361867703
25.342183566033416
24.756237125200276
28.66254673075456
31.592278934920273
33.838406958113985
36.182192721446555
35.596246280613414
37.64705882352941
39.11192492561227
38.72129396505684
41.651026169222554
43.89715419241627
44.28778515297169
45.16670481422141
44.97138933394369
45.947966735332265
46.63157091630426
46.533913176165406
47.51049057755398
48.19409475852598
47.0222018768597
46.33859769588769
46.43625543602655
45.45967803463798
44.67841611352712
44.873731593804834
42.92057679102769
41.45571068894484
38.818951705195694
36.57282368200198
37.06111238269627
34.0337224383917
31.885252155336843
32.37354085603113
30.322728313115128
28.857862211032273
26.318760967421987
23.974975204089418
24.4632639047837
22.412451361867703
20.947585259784848
21.338216220340275
19.287403677424276
17.82253757534142
16.260013733119706
14.697489890897993
14.990463111314565
12.060730907148852
9.912260624093996
10.400549324788281
8.349736781872283
6.884870679789426
5.322346837567712
3.7598229953459983
4.052796215762569
2.0996414129854277
0.6347753109025711
0.9277485313191425
-0.9277485313191425
-2.392614633401999
-3.9551384756237127
-5.517662317845426
-5.224689097428855
-6.201266498817426
-6.982528419928283
-6.787212939650568
-8.74036774242771
-10.205233844510566
-10.79118028534371
-11.670099946593423
-11.47478446631571
-13.427939269092851
-14.892805371175708
-14.50217441062028
-15.576409552147707
-16.260013733119706
-16.16235599298085
-16.16235599298085
-16.16235599298085
-16.16235599298085
-16.16235599298085
-16.16235599298085
-14.209201190203707
-12.74433508812085
-10.205233844510566
-7.861448081177996
-8.349736781872283
-4.443427176317998
-1.513694972152285
-2.197299153124285
2.68558785381857
6.298924238956283
11.279468986037996
15.869382772564279
14.795147631036851
19.87335011825742
23.48668650339513
22.705424582284277
27.588311589227132
31.2993057145037
33.3501182574197
35.69390402075227
35.20561532005799
38.1353475242237
40.38147554741741
39.79552910658427
40.86976424811169
41.5533684290837
42.33463035019455
43.11589227130541
42.92057679102769
40.08850232700084
37.84237430380713
38.33066300450141
32.471198596169984
28.076600289921416
23.291371023117417
18.60379949645228
19.678034637979707
15.576409552147707
12.646677347981994
13.330281528953995
12.256046387426567
11.47478446631571
12.646677347981994
13.330281528953995
13.13496604867628
16.064698252841993
18.310826276035705
17.724879835202564
21.728847180895706
24.65857938506142
23.974975204089418
24.072632944228275
24.072632944228275
23.096055542839704
22.314793621728846
22.510109102006563
21.533531700617992
20.752269779507134
19.971007858396277
19.18974593728542
19.385061417563133
18.40848401617456
17.627222095063708
17.82253757534142
16.748302433813993
16.064698252841993
14.306858930342566
12.74433508812085
13.13496604867628
10.10757610437171
7.959105821316854
8.44739452201114
5.420004577706569
3.2715342946517127
0.8300907911802854
-1.3183794918745708
-0.8300907911802854
-2.8809033340962844
-4.345769436179141
-3.9551384756237127
-6.005951018539712
-7.470817120622568
-9.033340962844282
-10.595864805065995
-10.205233844510566
-12.256046387426567
-13.720912489509422
-13.330281528953995
-14.404516670481422
-15.088120851453422
-16.84596017395285
-18.310826276035705
-18.017853055619135
-18.994430457007706
-19.775692378118563
-19.58037689784085
-19.58037689784085
-19.58037689784085
-18.60379949645228
-17.920195315480278
-18.017853055619135
-15.185778591592278
-12.939650568398566
-13.427939269092851
-10.400549324788281
-8.252079041733426
-4.931715877012284
-1.8066681925688564
-2.490272373540856
0.43945983062485694
2.5879301136797133
2.0996414129854277
5.127031357289998
7.275501640344854
9.71694514381628
11.963073167009995
11.47478446631571
13.525597009231708
14.990463111314565
14.599832150759136
15.674067292286564
16.357671473258563
16.16235599298085
16.260013733119706
16.260013733119706
16.260013733119706
16.260013733119706
16.16235599298085
16.16235599298085
16.16235599298085
14.306858930342566
12.84199282825971
13.13496604867628
12.060730907148852
11.377126726176853
11.47478446631571
9.521629663538567
8.05676356145571
6.494239719233997
4.931715877012284
5.322346837567712
2.392614633401999
0.14648661020828566
0.6347753109025711
-1.3183794918745708
-2.783245593957427
-4.345769436179141
-5.908293278400855
-5.517662317845426
-7.568474860761425
-9.033340962844282
-8.642710002288853
-10.693522545204852
-12.158388647287708
-12.74433508812085
-13.525597009231708
-13.330281528953995
-14.404516670481422
-15.088120851453422
-14.892805371175708
-15.869382772564279
-16.650644693675137
-18.40848401617456
-19.87335011825742
-19.58037689784085
-20.55695429922942
-21.24055848020142
-21.14290074006256
-22.119478141451133
-22.803082322423133
-24.560921644922562
-26.123445487144274
-25.732814526588847
-26.807049668116274
-27.49065384908827
-27.295338368810558
-29.2484931715877
-30.71335927367056
-31.2993057145037
-32.178225375753414
-31.9829098954757
-32.95948729686427
-33.64309147783627
-33.44777599755856
-34.424353398947126
-35.20561532005799
-35.98687724116884
-36.768139162279695
-36.57282368200198
-36.57282368200198
-36.57282368200198
-36.57282368200198
-36.57282368200198
-36.475165941863125
-35.596246280613414
-34.81498435950255
-34.91264209964141
-32.95948729686427
-31.494621194781413
-31.787594415197987
-28.857862211032273
-26.61173418783856
-24.267948424505988
-21.92416266117342
-22.412451361867703
-19.48271915770199
-17.236591134508277
-17.724879835202564
-14.795147631036851
-12.549019607843137
-10.205233844510566
-7.861448081177996
-8.349736781872283
-5.322346837567712
-3.1738765545128556
-3.662165255207141
-2.5879301136797133
-1.9043259327077133
-1.0254062714579995
-0.24414435034714274
-0.43945983062485694
-0.43945983062485694
-0.43945983062485694
-0.43945983062485694
-1.416037232013428
-2.0996414129854277
-2.0019836728465705
-2.0019836728465705
-2.0019836728465705
-5.810635538261997
-8.74036774242771
-8.154421301594567
-14.013885709925994
-18.40848401617456
-23.19371328297856
-27.783627069504846
-26.807049668116274
-30.811017013809415
-33.74074921797513
-33.05714503700313
-34.131380178530556
-34.81498435950255
-33.74074921797513
-32.95948729686427
-33.15480277714199
-30.22507057297627
-27.97894254978256
-28.467231250476843
-24.560921644922562
-21.63118944075685
-21.338216220340275
-20.361638818951704
-20.55695429922942
-20.55695429922942
-20.55695429922942
-20.55695429922942
-21.533531700617992
-22.21713588158999
-22.021820401312276
-22.119478141451133
-22.021820401312276
-21.14290074006256
-20.361638818951704
-20.55695429922942
-21.43587396047913
-22.21713588158999
-22.021820401312276
-22.021820401312276
-22.021820401312276
-22.021820401312276
-22.021820401312276
-22.021820401312276
-22.90074006256199
-23.682001983672848
-24.4632639047837
-25.24452582589456
-25.049210345616846
-25.049210345616846
-25.049210345616846
-25.049210345616846
-25.049210345616846
-25.049210345616846
-25.049210345616846
-25.049210345616846
-25.049210345616846
-24.072632944228275
-23.291371023117417
-23.48668650339513
-21.533531700617992
-20.068665598535134
-17.52956435492485
-15.185778591592278
-15.674067292286564
-11.767757686732281
-8.838025482566568
-9.42397192339971
-5.517662317845426
-2.5879301136797133
1.513694972152285
5.322346837567712
4.443427176317998
10.400549324788281
14.795147631036851
13.81857022964828
17.82253757534142
20.752269779507134
23.974975204089418
27.002365148393988
26.318760967421987
29.346150911726557
31.494621194781413
31.00633249408713
32.08056763561456
32.764171816586554
33.545433737697415
34.32669565880827
34.131380178530556
34.22903791866941
34.131380178530556
34.131380178530556
33.252460517280845
32.471198596169984
31.68993667505913
30.908674753948272
31.00633249408713
29.053177691309987
27.588311589227132
27.881284809643702
25.92813000686656
24.4632639047837
21.92416266117342
19.58037689784085
20.068665598535134
17.13893339436942
14.892805371175708
15.381094071869994
12.353704127565424
10.205233844510566
7.861448081177996
5.517662317845426
6.005951018539712
4.931715877012284
4.248111696040284
4.345769436179141
3.36919203479057
2.5879301136797133
1.8066681925688564
1.0254062714579995
1.2207217517357138
1.2207217517357138
1.2207217517357138
1.2207217517357138
1.2207217517357138
1.2207217517357138
0.24414435034714274
-0.43945983062485694
-0.24414435034714274
-1.2207217517357138
-2.0019836728465705
-1.8066681925688564
-2.783245593957427
-3.5645075150682843
-4.345769436179141
-5.127031357289998
-4.931715877012284
-5.908293278400855
-6.591897459372854
-6.494239719233997
-8.44739452201114
-9.912260624093996
-10.498207064927138
-11.279468986037996
-11.181811245899137
-13.037308308537423
-14.599832150759136
-14.209201190203707
-15.283436331731137
-15.967040512703136
-16.748302433813993
-17.52956435492485
-17.334248874647134
-18.310826276035705
-19.092088197146563
-18.89677271686885
-18.017853055619135
-17.236591134508277
-16.45532921339742
-15.674067292286564
-15.771725032425422
-13.81857022964828
-12.353704127565424
-12.74433508812085
-9.71694514381628
-7.568474860761425
-4.248111696040284
-1.1230640115968566
-1.8066681925688564
2.0996414129854277
5.0293736171511405
4.345769436179141
9.228656443121995
12.939650568398566
15.967040512703136
19.092088197146563
18.40848401617456
21.338216220340275
23.58434424353399
23.096055542839704
26.025787747005417
28.27191577019913
29.63912413214313
31.201647974364842
30.908674753948272
32.86182955672541
34.32669565880827
33.93606469825284
35.010299839780274
35.69390402075227
35.49858854047456
35.596246280613414
35.49858854047456
35.49858854047456
35.49858854047456
35.49858854047456
33.545433737697415
32.08056763561456
31.494621194781413
30.615701533531702
30.811017013809415
25.92813000686656
22.21713588158999
23.096055542839704
16.16235599298085
11.08415350576028
5.517662317845426
0.04882887006942855
1.2207217517357138
-2.68558785381857
-5.615320057984283
-5.0293736171511405
-6.103608758678568
-6.787212939650568
-5.71297779812314
-4.931715877012284
-5.127031357289998
-0.34180209048599985
3.2715342946517127
2.490272373540856
6.494239719233997
9.42397192339971
9.71694514381628
10.595864805065995
10.400549324788281
9.42397192339971
8.74036774242771
8.838025482566568
7.861448081177996
7.177843900205997
6.298924238956283
5.517662317845426
5.71297779812314
4.736400396734569
4.052796215762569
4.150453955901427
3.1738765545128556
2.392614633401999
1.6113527122911422
0.8300907911802854
1.0254062714579995
0.04882887006942855
-0.6347753109025711
-0.43945983062485694
-1.416037232013428
-2.197299153124285
-2.9785610742351416
-3.7598229953459983
-3.5645075150682843
-3.5645075150682843
-3.5645075150682843
-3.5645075150682843
-4.541084916456855
-5.224689097428855
-4.150453955901427
-3.466849774929427
-3.5645075150682843
-1.6113527122911422
-0.14648661020828566
-0.537117570763714
1.416037232013428
2.8809033340962844
6.298924238956283
9.42397192339971
8.74036774242771
11.670099946593423
13.916227969787137
13.427939269092851
16.357671473258563
18.60379949645228
20.947585259784848
23.291371023117417
22.803082322423133
24.756237125200276
26.22110322728313
25.92813000686656
27.881284809643702
29.346150911726557
29.9320973525597
30.71335927367056
30.518043793392845
31.592278934920273
32.27588311589227
32.08056763561456
33.05714503700313
33.838406958113985
33.64309147783627
33.64309147783627
33.64309147783627
32.6665140764477
31.885252155336843
32.08056763561456
31.103990234225986
30.322728313115128
29.541466392004274
28.760204470893417
28.857862211032273
26.90470740825513
25.439841306172273
25.732814526588847
23.779659723811704
22.314793621728846
19.775692378118563
17.43190661478599
17.920195315480278
15.967040512703136
14.50217441062028
14.795147631036851
11.865415426871138
9.619287403677424
8.252079041733426
6.591897459372854
6.982528419928283
5.908293278400855
5.224689097428855
5.322346837567712
3.466849774929427
1.9043259327077133
2.2949568932631417
2.197299153124285
2.197299153124285
1.2207217517357138
0.537117570763714
0.6347753109025711
0.6347753109025711
0.6347753109025711
0.6347753109025711
0.6347753109025711
0.6347753109025711
-0.24414435034714274
-0.9277485313191425
-0.8300907911802854
-0.8300907911802854
-0.8300907911802854
-0.8300907911802854
-0.8300907911802854
-0.8300907911802854
-0.8300907911802854
-0.8300907911802854
-0.8300907911802854
-0.8300907911802854
-0.8300907911802854
-0.8300907911802854
-0.8300907911802854
-0.8300907911802854
0.04882887006942855
0.8300907911802854
0.6347753109025711
1.6113527122911422
2.392614633401999
3.1738765545128556
3.9551384756237127
3.7598229953459983
5.71297779812314
7.177843900205997
6.787212939650568
8.838025482566568
10.302891584649425
12.84199282825971
15.088120851453422
14.599832150759136
16.650644693675137
18.017853055619135
17.724879835202564
19.678034637979707
21.14290074006256
22.705424582284277
24.267948424505988
23.974975204089418
25.92813000686656
27.392996108949415
27.100022888532845
28.076600289921416
28.760204470893417
29.541466392004274
30.322728313115128
30.127412832837415
30.22507057297627
30.127412832837415
30.127412832837415
31.103990234225986
31.885252155336843
31.68993667505913
31.68993667505913
31.68993667505913
30.71335927367056
29.9320973525597
30.127412832837415
29.150835431448844
28.369573510337986
26.61173418783856
25.049210345616846
25.439841306172273
22.510109102006563
20.263981078812847
20.752269779507134
17.724879835202564
15.576409552147707
12.256046387426567
9.130998702983138
9.81460288395514
4.834058136873426
1.2207217517357138
2.0019836728465705
-5.71297779812314
-11.572442206454566
-16.943617914091707
-22.412451361867703
-21.24055848020142
-25.342183566033416
-28.174258030060273
-27.588311589227132
-29.63912413214313
-31.00633249408713
-30.71335927367056
-30.811017013809415
-30.71335927367056
-27.881284809643702
-25.63515678644999
-26.123445487144274
-24.072632944228275
-22.60776684214542
-22.998397802700847
-22.90074006256199
-22.90074006256199
-26.709391927977418
-29.63912413214313
-28.95551995117113
-31.9829098954757
-34.131380178530556
-36.57282368200198
-38.818951705195694
-38.33066300450141
-41.26039520866713
-43.50652323186084
-43.018234531166556
-45.947966735332265
-48.09643701838712
-48.584725719081405
-49.46364538033112
-49.17067215991455
-51.123826962691695
-52.588693064774546
-52.295719844357976
-52.295719844357976
-52.295719844357976
-53.27229724574655
-53.95590142671855
-53.760585946440834
-53.760585946440834
-53.760585946440834
-53.760585946440834
-52.78400854505226
-52.002746623941405
-51.22148470283055
-50.44022278171969
-50.53788052185855
-47.705806057831694
-45.45967803463798
-45.947966735332265
-42.92057679102769
-40.67444876783398
-37.35408560311284
-34.22903791866941
-34.91264209964141
-30.908674753948272
-27.97894254978256
-28.66254673075456
-24.65857938506142
-21.728847180895706
-19.48271915770199
-17.13893339436942
-17.627222095063708
-14.697489890897993
-12.45136186770428
-12.939650568398566
-10.888838025482567
-9.42397192339971
-7.861448081177996
-6.298924238956283
-6.6895551995117115
-5.615320057984283
-4.931715877012284
-5.0293736171511405
-5.0293736171511405
-5.0293736171511405
-6.005951018539712
-6.6895551995117115
-6.591897459372854
-7.568474860761425
-8.252079041733426
-8.154421301594567
-10.009918364232853
-11.572442206454566
-13.13496604867628
-14.697489890897993
-14.306858930342566
-16.260013733119706
-17.724879835202564
-17.43190661478599
-18.40848401617456
-19.18974593728542
-20.947585259784848
-22.412451361867703
-22.119478141451133
-24.072632944228275
-25.537499046311133
-25.146868085755703
-26.22110322728313
-26.90470740825513
-27.68596932936599
-28.467231250476843
-28.27191577019913
-29.2484931715877
-30.029755092698558
-29.834439612420844
-30.811017013809415
-31.494621194781413
-32.27588311589227
-33.05714503700313
-32.86182955672541
-33.838406958113985
-34.61966887922484
-34.424353398947126
-35.4009308003357
-36.0845349813077
-35.98687724116884
-35.98687724116884
-35.98687724116884
-36.86579690241855
-37.64705882352941
-37.4517433432517
-38.42832074464027
-39.20958266575113
-39.014267185473415
-39.014267185473415
-39.014267185473415
-39.014267185473415
-39.014267185473415
-38.91660944533455
-38.91660944533455
-38.91660944533455
-38.91660944533455
-38.91660944533455
-38.91660944533455
-36.96345464255741
-35.49858854047456
-35.79156176089113
-32.86182955672541
-30.615701533531702
-27.295338368810558
-24.17029068436713
-24.853894865339132
-20.84992751964599
-17.920195315480278
-18.60379949645228
-13.720912489509422
-10.009918364232853
-6.005951018539712
-2.0996414129854277
-2.9785610742351416
1.9043259327077133
5.517662317845426
4.736400396734569
8.74036774242771
11.670099946593423
13.81857022964828
16.260013733119706
15.674067292286564
17.724879835202564
19.18974593728542
18.799114976729992
20.84992751964599
22.314793621728846
22.90074006256199
23.682001983672848
23.48668650339513
23.58434424353399
23.48668650339513
23.48668650339513
23.48668650339513
23.48668650339513
22.510109102006563
21.826504921034562
21.92416266117342
20.947585259784848
20.263981078812847
20.361638818951704
18.40848401617456
16.943617914091707
15.381094071869994
13.81857022964828
14.11154345006485
12.158388647287708
10.693522545204852
10.986495765621424
9.033340962844282
7.568474860761425
5.908293278400855
4.345769436179141
4.736400396734569
-0.04882887006942855
-3.7598229953459983
-2.8809033340962844
-8.838025482566568
-13.232623788815136
-17.041275654230564
-20.947585259784848
-20.068665598535134
-23.096055542839704
-25.24452582589456
-24.756237125200276
-24.853894865339132
-24.853894865339132
-22.021820401312276
-19.775692378118563
-20.263981078812847
-16.260013733119706
-13.330281528953995
-14.013885709925994
-10.009918364232853
-7.080186160067139
-5.810635538261997
-4.248111696040284
-4.541084916456855
-6.39658197909514
-7.861448081177996
-7.568474860761425
-9.521629663538567
-10.986495765621424
-11.670099946593423
-12.45136186770428
-12.256046387426567
-13.232623788815136
-14.013885709925994
-13.81857022964828
-12.84199282825971
-12.158388647287708
-12.256046387426567
-12.256046387426567
-12.256046387426567
-10.302891584649425
-8.838025482566568
-9.130998702983138
-6.201266498817426
-4.052796215762569
-1.6113527122911422
0.6347753109025711
0.04882887006942855
4.931715877012284
8.642710002288853
7.861448081177996
12.74433508812085
16.45532921339742
20.361638818951704
24.267948424505988
23.389028763256274
28.369573510337986
31.9829098954757
31.201647974364842
36.182192721446555
39.79552910658427
41.84634164950027
44.28778515297169
43.70183871213855
47.60814831769284
50.53788052185855
49.85427634088655
51.90508888380255
53.36995498588541
54.932478828107115
56.49500267032883
56.1043717097734
57.08094911116198
57.86221103227283
57.66689555199512
57.66689555199512
57.66689555199512
57.56923781185626
57.56923781185626
57.56923781185626
56.59266041046769
55.81139848935683
56.006713969634546
53.07698176546884
50.83085374227512
49.365987640192266
47.80346379797055
48.09643701838712
45.16670481422141
42.92057679102769
43.40886549172198
40.479133287556266
38.23300526436255
36.768139162279695
35.20561532005799
35.49858854047456
33.545433737697415
32.08056763561456
32.37354085603113
30.420386053253985
28.857862211032273
28.27191577019913
27.392996108949415
27.588311589227132
25.63515678644999
24.17029068436713
24.4632639047837
21.533531700617992
19.287403677424276
17.920195315480278
16.260013733119706
16.650644693675137
13.720912489509422
11.47478446631571
11.963073167009995
9.033340962844282
6.787212939650568
4.443427176317998
2.0996414129854277
2.5879301136797133
-0.24414435034714274
-2.490272373540856
-2.0019836728465705
-4.931715877012284
-7.177843900205997
-8.545052262149996
-10.205233844510566
-9.81460288395514
-11.767757686732281
-13.232623788815136
-12.939650568398566
-14.892805371175708
-16.357671473258563
-17.920195315480278
-19.48271915770199
-19.18974593728542
-19.18974593728542
-19.18974593728542
-19.18974593728542
-19.18974593728542
-19.18974593728542
-18.21316853589685
-17.52956435492485
-17.627222095063708
-14.697489890897993
-12.549019607843137
-13.037308308537423
-10.009918364232853
-7.861448081177996
-4.443427176317998
-1.416037232013428
-2.0996414129854277
2.783245593957427
6.39658197909514
5.615320057984283
10.595864805065995
14.209201190203707
19.092088197146563
23.779659723811704
22.705424582284277
26.807049668116274
29.63912413214313
29.053177691309987
32.95948729686427
35.889219501029984
38.1353475242237
40.479133287556266
39.893186846723125
41.943999389639124
43.40886549172198
43.018234531166556
44.09246967269398
44.77607385366598
43.604180971999696
42.92057679102769
43.018234531166556
42.04165712977798
41.26039520866713
41.45571068894484
39.5025558861677
38.03768978408484
36.37750820172427
34.81498435950255
35.20561532005799
32.27588311589227
30.029755092698558
30.518043793392845
28.467231250476843
27.002365148393988
24.4632639047837
22.119478141451133
22.60776684214542
20.654612039368278
19.18974593728542
19.48271915770199
17.43190661478599
15.967040512703136
14.404516670481422
12.84199282825971
13.232623788815136
10.205233844510566
8.05676356145571
8.545052262149996
3.662165255207141
0.04882887006942855
-2.9785610742351416
-6.103608758678568
-5.420004577706569
-7.470817120622568
-8.935683222705425
-8.545052262149996
-8.642710002288853
-8.642710002288853
-5.810635538261997
-3.5645075150682843
-4.052796215762569
-0.14648661020828566
2.783245593957427
2.0996414129854277
6.005951018539712
8.935683222705425
8.349736781872283
8.44739452201114
8.44739452201114
7.470817120622568
6.6895551995117115
6.884870679789426
4.931715877012284
3.466849774929427
2.8809033340962844
2.0019836728465705
2.197299153124285
0.24414435034714274
-1.1230640115968566
-0.8300907911802854
-1.8066681925688564
-2.5879301136797133
-3.36919203479057
-4.150453955901427
-3.9551384756237127
-3.9551384756237127
-3.9551384756237127
-3.9551384756237127
-3.9551384756237127
-3.9551384756237127
-2.9785610742351416
-2.2949568932631417
-2.392614633401999
0.34180209048599985
2.5879301136797133
2.0996414129854277
4.150453955901427
5.615320057984283
8.154421301594567
10.400549324788281
9.912260624093996
12.84199282825971
15.088120851453422
14.599832150759136
16.55298695353628
18.017853055619135
19.58037689784085
21.14290074006256
20.84992751964599
21.826504921034562
22.60776684214542
22.412451361867703
22.412451361867703
22.412451361867703
22.412451361867703
22.412451361867703
22.412451361867703
21.43587396047913
20.654612039368278
20.84992751964599
18.89677271686885
17.43190661478599
15.771725032425422
14.209201190203707
14.599832150759136
12.646677347981994
11.181811245899137
11.47478446631571
9.521629663538567
7.959105821316854
7.373159380483711
6.591897459372854
6.6895551995117115
4.736400396734569
3.2715342946517127
3.662165255207141
1.6113527122911422
0.14648661020828566
-0.34180209048599985
-1.1230640115968566
-1.0254062714579995
-2.0019836728465705
-2.68558785381857
-2.5879301136797133
-4.541084916456855
-6.005951018539712
-5.615320057984283
-5.71297779812314
-5.71297779812314
-6.6895551995117115
-7.373159380483711
-7.177843900205997
-7.275501640344854
-7.275501640344854
-7.275501640344854
-7.275501640344854
-7.275501640344854
-8.154421301594567
-8.935683222705425
-8.74036774242771
-10.693522545204852
-12.158388647287708
-12.84199282825971
-13.623254749370565
-13.427939269092851
-15.381094071869994
-16.84596017395285
-16.55298695353628
-18.506141756313422
-19.971007858396277
-20.55695429922942
-21.338216220340275
-21.24055848020142
-22.21713588158999
-22.90074006256199
-22.705424582284277
-23.682001983672848
-24.4632639047837
-24.267948424505988
-24.267948424505988
-24.267948424505988
-23.291371023117417
-22.60776684214542
-22.705424582284277
-21.728847180895706
-21.045242999923705
-19.287403677424276
-17.724879835202564
-18.017853055619135
-14.11154345006485
-11.181811245899137
-11.865415426871138
-7.861448081177996
-4.931715877012284
-1.8066681925688564
1.2207217517357138
0.537117570763714
5.517662317845426
9.130998702983138
8.349736781872283
11.377126726176853
13.525597009231708
14.990463111314565
16.55298695353628
16.16235599298085
18.21316853589685
19.678034637979707
19.287403677424276
20.361638818951704
21.045242999923705
20.84992751964599
20.947585259784848
20.947585259784848
20.947585259784848
20.947585259784848
20.84992751964599
19.971007858396277
19.18974593728542
18.40848401617456
17.627222095063708
17.724879835202564
16.748302433813993
16.064698252841993
16.16235599298085
14.209201190203707
12.74433508812085
11.181811245899137
9.619287403677424
9.912260624093996
7.959105821316854
6.494239719233997
6.787212939650568
5.810635538261997
5.0293736171511405
4.248111696040284
3.466849774929427
3.662165255207141
2.68558785381857
1.9043259327077133
2.0996414129854277
2.0996414129854277
2.0996414129854277
2.0996414129854277
2.0996414129854277
2.0996414129854277
-0.7324330510414282
-2.9785610742351416
-2.392614633401999
-7.275501640344854
-10.986495765621424
-14.990463111314565
-18.89677271686885
-18.017853055619135
-20.068665598535134
-21.533531700617992
-21.14290074006256
-21.24055848020142
-21.24055848020142
-19.287403677424276
-17.82253757534142
-18.11551079575799
-13.330281528953995
-9.619287403677424
-10.400549324788281
-5.420004577706569
-1.8066681925688564
-1.6113527122911422
-0.7324330510414282
-0.9277485313191425
-1.8066681925688564
-2.5879301136797133
-2.392614633401999
-3.36919203479057
-4.150453955901427
-5.908293278400855
-7.373159380483711
-7.080186160067139
-9.033340962844282
-10.498207064927138
-10.205233844510566
-11.181811245899137
-11.963073167009995
-10.79118028534371
-10.10757610437171
-10.205233844510566
-9.228656443121995
-8.545052262149996
-8.642710002288853
-5.810635538261997
-3.5645075150682843
-1.2207217517357138
1.0254062714579995
0.537117570763714
4.443427176317998
7.373159380483711
6.787212939650568
9.81460288395514
11.963073167009995
14.306858930342566
16.650644693675137
16.16235599298085
19.092088197146563
21.338216220340275
20.84992751964599
22.803082322423133
24.267948424505988
25.830472266727703
27.392996108949415
27.002365148393988
28.076600289921416
28.760204470893417
28.66254673075456
29.63912413214313
30.322728313115128
30.127412832837415
30.22507057297627
30.127412832837415
30.127412832837415
30.127412832837415
30.127412832837415
29.150835431448844
28.467231250476843
27.588311589227132
26.807049668116274
27.002365148393988
25.049210345616846
23.58434424353399
23.87731746395056
21.92416266117342
20.45929655909056
17.82253757534142
15.576409552147707
16.064698252841993
14.013885709925994
12.549019607843137
12.939650568398566
10.888838025482567
9.42397192339971
7.861448081177996
6.298924238956283
6.591897459372854
5.615320057984283
4.834058136873426
5.0293736171511405
3.076218814373999
1.6113527122911422
1.0254062714579995
0.14648661020828566
0.34180209048599985
-0.537117570763714
-1.3183794918745708
-1.1230640115968566
-2.0996414129854277
-2.8809033340962844
-3.662165255207141
-4.443427176317998
-4.248111696040284
-5.224689097428855
-6.005951018539712
-5.810635538261997
-6.787212939650568
-7.470817120622568
-7.373159380483711
-7.373159380483711
-7.373159380483711
-8.349736781872283
-9.033340962844282
-8.935683222705425
-8.935683222705425
-8.935683222705425
-8.935683222705425
-8.935683222705425
-8.935683222705425
-8.935683222705425
-8.935683222705425
-8.935683222705425
-8.935683222705425
-8.935683222705425
-8.935683222705425
-8.935683222705425
-8.935683222705425
-7.959105821316854
-7.177843900205997
-7.373159380483711
-5.420004577706569
-3.9551384756237127
-0.43945983062485694
2.490272373540856
1.8066681925688564
5.810635538261997
8.74036774242771
8.05676356145571
13.037308308537423
16.650644693675137
21.533531700617992
26.22110322728313
25.146868085755703
31.103990234225986
35.49858854047456
34.52201113908598
40.479133287556266
44.873731593804834
47.705806057831694
50.83085374227512
50.14724956130312
53.17463950560769
55.32310978866255
54.83482108796826
55.81139848935683
56.59266041046769
56.39734493018997
56.39734493018997
56.39734493018997
54.44419012741283
52.97932402532997
53.27229724574655
49.365987640192266
46.33859769588769
44.19012741283284
41.74868390936141
42.236972610055695
38.33066300450141
35.4009308003357
35.98687724116884
32.95948729686427
30.811017013809415
28.369573510337986
26.025787747005417
26.61173418783856
23.58434424353399
21.338216220340275
21.826504921034562
18.89677271686885
16.650644693675137
15.283436331731137
13.623254749370565
14.013885709925994
11.08415350576028
8.838025482566568
9.326314183260854
6.298924238956283
4.150453955901427
1.8066681925688564
-0.43945983062485694
0.04882887006942855
-5.810635538261997
-10.205233844510566
-9.228656443121995
-17.13893339436942
-22.998397802700847
-28.369573510337986
-33.838406958113985
-32.56885633630884
-36.67048142214084
-39.600213626306555
-38.91660944533455
-39.99084458686198
-40.67444876783398
-39.600213626306555
-38.818951705195694
-39.014267185473415
-35.10795757991913
-32.178225375753414
-32.764171816586554
-29.834439612420844
-27.588311589227132
-28.076600289921416
-27.97894254978256
-27.97894254978256
-29.834439612420844
-31.2993057145037
-31.00633249408713
-31.9829098954757
-32.764171816586554
-34.424353398947126
-35.98687724116884
-35.596246280613414
-35.69390402075227
-35.69390402075227
-35.69390402075227
-34.717326619363696
-33.93606469825284
-31.201647974364842
-28.95551995117113
-29.443808651865414
-25.537499046311133
-22.510109102006563
-23.19371328297856
-18.310826276035705
-14.599832150759136
-10.595864805065995
-6.6895551995117115
-7.568474860761425
-3.5645075150682843
-0.6347753109025711
-1.3183794918745708
2.5879301136797133
5.517662317845426
6.787212939650568
8.349736781872283
8.05676356145571
9.033340962844282
9.81460288395514
9.619287403677424
8.74036774242771
7.959105821316854
7.177843900205997
6.39658197909514
6.494239719233997
4.541084916456855
3.076218814373999
3.466849774929427
1.416037232013428
0.04882887006942855
-0.537117570763714
-1.3183794918745708
-1.2207217517357138
-3.1738765545128556
-4.638742656595713
-4.248111696040284
-6.298924238956283
-7.763790341039139
-8.349736781872283
-9.130998702983138
-8.935683222705425
-10.888838025482567
-12.353704127565424
-12.060730907148852
-13.13496604867628
-13.81857022964828
-14.599832150759136
-15.381094071869994
-15.185778591592278
-16.16235599298085
-16.943617914091707
-16.748302433813993
-18.701457236591136
-20.16632333867399
-20.752269779507134
-21.63118944075685
-21.43587396047913
-23.291371023117417
-24.853894865339132
-24.4632639047837
-24.560921644922562
-24.560921644922562
-25.439841306172273
-26.22110322728313
-26.025787747005417
-26.025787747005417
-26.025787747005417
-26.025787747005417
-27.002365148393988
-27.68596932936599
-27.49065384908827
-27.588311589227132
-27.588311589227132
-27.588311589227132
-27.49065384908827
-27.49065384908827
-28.467231250476843
-29.2484931715877
-29.053177691309987
-29.053177691309987
-29.053177691309987
-29.053177691309987
-29.053177691309987
-29.053177691309987
-29.053177691309987
-28.95551995117113
-28.95551995117113
-28.95551995117113
-28.95551995117113
-27.97894254978256
-27.295338368810558
-27.392996108949415
-25.439841306172273
-23.974975204089418
-20.45929655909056
-17.43190661478599
-18.11551079575799
-13.13496604867628
-9.521629663538567
-10.302891584649425
-5.322346837567712
-1.7090104524299992
3.1738765545128556
7.763790341039139
6.787212939650568
11.767757686732281
15.381094071869994
14.599832150759136
17.627222095063708
19.775692378118563
22.21713588158999
24.560921644922562
23.974975204089418
25.049210345616846
25.732814526588847
25.63515678644999
24.65857938506142
23.87731746395056
23.096055542839704
22.314793621728846
22.510109102006563
20.55695429922942
19.092088197146563
19.385061417563133
17.43190661478599
15.869382772564279
14.306858930342566
12.74433508812085
13.13496604867628
11.08415350576028
9.619287403677424
10.009918364232853
8.935683222705425
8.252079041733426
6.494239719233997
4.931715877012284
5.224689097428855
4.248111696040284
3.466849774929427
3.662165255207141
2.68558785381857
1.9043259327077133
0.24414435034714274
-1.2207217517357138
-0.9277485313191425
-2.8809033340962844
-4.345769436179141
-4.052796215762569
-6.005951018539712
-7.470817120622568
-8.05676356145571
-8.935683222705425
-8.74036774242771
-10.693522545204852
-12.158388647287708
-11.767757686732281
-13.81857022964828
-15.283436331731137
-15.869382772564279
-16.650644693675137
-16.45532921339742
-20.361638818951704
-23.291371023117417
-22.60776684214542
-28.467231250476843
-32.95948729686427
-36.67048142214084
-40.57679102769512
-39.69787136644541
-42.72526131074998
-44.97138933394369
-44.48310063324941
-44.580758373388264
-44.48310063324941
-43.50652323186084
-42.822919050888835
-42.92057679102769
-39.99084458686198
-37.74471656366827
-38.23300526436255
-35.303273060196844
-33.05714503700313
-33.545433737697415
-33.44777599755856
-33.44777599755856
-35.303273060196844
-36.768139162279695
-36.475165941863125
-36.57282368200198
-36.475165941863125
-34.61966887922484
-33.05714503700313
-33.44777599755856
-29.541466392004274
-26.514076447699704
-27.1976806286717
-21.338216220340275
-16.84596017395285
-11.181811245899137
-5.71297779812314
-6.982528419928283
-0.04882887006942855
5.0293736171511405
3.8574807354848555
9.912260624093996
14.306858930342566
18.994430457007706
23.682001983672848
22.60776684214542
27.68596932936599
31.2993057145037
30.420386053253985
34.424353398947126
37.35408560311284
38.62363622491798
40.28381780727855
39.893186846723125
41.84634164950027
43.311207751583126
42.92057679102769
44.97138933394369
46.33859769588769
46.04562447547112
46.14328221560998
46.04562447547112
45.069047074082555
44.38544289311055
44.48310063324941
43.50652323186084
42.72526131074998
41.943999389639124
41.16273746852827
41.26039520866713
39.307240405889985
37.84237430380713
38.1353475242237
36.182192721446555
34.717326619363696
33.05714503700313
31.494621194781413
31.885252155336843
29.834439612420844
28.369573510337986
28.760204470893417
26.709391927977418
25.24452582589456
24.65857938506142
23.779659723811704
23.974975204089418
22.998397802700847
22.21713588158999
22.412451361867703
22.314793621728846
22.314793621728846
22.314793621728846
22.314793621728846
22.314793621728846
23.291371023117417
23.974975204089418
23.779659723811704
22.90074006256199
22.119478141451133
21.338216220340275
20.55695429922942
20.752269779507134
18.799114976729992
17.334248874647134
17.627222095063708
14.697489890897993
12.45136186770428
10.10757610437171
7.763790341039139
8.252079041733426
5.224689097428855
3.076218814373999
3.5645075150682843
-0.24414435034714274
-3.2715342946517127
-4.443427176317998
-6.103608758678568
-5.71297779812314
-7.763790341039139
-9.228656443121995
-8.838025482566568
-8.935683222705425
-8.935683222705425
-8.935683222705425
-8.935683222705425
-8.935683222705425
-6.982528419928283
-5.517662317845426
-5.810635538261997
-2.8809033340962844
-0.7324330510414282
1.6113527122911422
3.9551384756237127
3.36919203479057
6.39658197909514
8.545052262149996
8.05676356145571
11.08415350576028
13.232623788815136
15.674067292286564
17.920195315480278
17.43190661478599
19.48271915770199
20.947585259784848
20.55695429922942
22.510109102006563
23.974975204089418
26.514076447699704
28.857862211032273
28.27191577019913
30.322728313115128
31.787594415197987
31.494621194781413
32.471198596169984
33.15480277714199
33.93606469825284
34.717326619363696
34.52201113908598
35.49858854047456
36.27985046158541
36.0845349813077
36.0845349813077
36.0845349813077
36.0845349813077
36.0845349813077
36.0845349813077
35.10795757991913
34.32669565880827
34.52201113908598
33.44777599755856
32.764171816586554
31.00633249408713
29.443808651865414
29.736781872281988
28.760204470893417
27.97894254978256
28.174258030060273
26.22110322728313
24.756237125200276
23.096055542839704
21.533531700617992
21.92416266117342
18.994430457007706
16.748302433813993
17.236591134508277
15.185778591592278
13.720912489509422
13.13496604867628
12.256046387426567
12.45136186770428
10.498207064927138
9.033340962844282
9.326314183260854
8.349736781872283
7.568474860761425
6.787212939650568
6.005951018539712
6.201266498817426
3.2715342946517127
1.0254062714579995
1.513694972152285
-2.2949568932631417
-5.224689097428855
-9.326314183260854
-13.232623788815136
-12.353704127565424
-14.404516670481422
-15.869382772564279
-15.576409552147707
-16.55298695353628
-17.236591134508277
-15.185778591592278
-13.720912489509422
-14.11154345006485
-10.205233844510566
-7.177843900205997
-7.861448081177996
-4.834058136873426
-2.68558785381857
-2.197299153124285
-1.3183794918745708
-1.513694972152285
-2.490272373540856
-3.1738765545128556
-3.076218814373999
-3.076218814373999
-3.076218814373999
-3.076218814373999
-3.076218814373999
-3.076218814373999
-1.1230640115968566
0.24414435034714274
0.04882887006942855
2.8809033340962844
5.0293736171511405
8.349736781872283
11.47478446631571
10.79118028534371
14.697489890897993
17.724879835202564
17.041275654230564
20.947585259784848
23.87731746395056
25.146868085755703
26.807049668116274
26.416418707560844
27.392996108949415
28.174258030060273
27.97894254978256
27.97894254978256
27.97894254978256
27.002365148393988
26.318760967421987
26.416418707560844
23.48668650339513
21.338216220340275
21.826504921034562
17.82253757534142
14.892805371175708
11.767757686732281
8.642710002288853
9.326314183260854
6.298924238956283
4.052796215762569
4.541084916456855
0.6347753109025711
-2.197299153124285
-4.443427176317998
-6.787212939650568
-6.298924238956283
-8.252079041733426
-9.71694514381628
-9.42397192339971
-12.353704127565424
-14.599832150759136
-15.967040512703136
-17.52956435492485
-17.236591134508277
-20.16632333867399
-22.314793621728846
-21.826504921034562
-23.87731746395056
-25.342183566033416
-27.881284809643702
-30.127412832837415
-29.63912413214313
-30.615701533531702
-31.396963454642556
-31.201647974364842
-33.15480277714199
-34.61966887922484
-35.20561532005799
-35.98687724116884
-35.79156176089113
-35.889219501029984
-35.79156176089113
-35.79156176089113
-35.79156176089113
-35.79156176089113
-35.79156176089113
-35.79156176089113
-35.79156176089113
-36.67048142214084
-37.4517433432517
-37.256427862973986
-38.23300526436255
-39.014267185473415
-40.67444876783398
-42.236972610055695
-41.84634164950027
-43.79949645227741
-45.26436255436027
-44.97138933394369
-45.947966735332265
-46.63157091630426
-48.38941023880369
-49.951934081025406
-49.56130312046998
-49.658960860608836
-49.56130312046998
-49.56130312046998
-49.56130312046998
-49.56130312046998
-47.60814831769284
-46.14328221560998
-46.43625543602655
-43.50652323186084
-41.26039520866713
-41.74868390936141
-37.84237430380713
-34.81498435950255
-30.71335927367056
-26.807049668116274
-27.68596932936599
-22.705424582284277
-18.994430457007706
-19.87335011825742
-14.892805371175708
-11.181811245899137
-7.275501640344854
-3.36919203479057
-4.248111696040284
-0.24414435034714274
2.5879301136797133
2.0019836728465705
5.0293736171511405
7.177843900205997
7.666132600900283
8.44739452201114
8.252079041733426
9.326314183260854
10.009918364232853
9.81460288395514
8.935683222705425
8.154421301594567
6.39658197909514
4.931715877012284
5.224689097428855
3.2715342946517127
1.8066681925688564
2.0996414129854277
-0.7324330510414282
-2.9785610742351416
-5.322346837567712
-7.666132600900283
-7.080186160067139
-10.10757610437171
-12.256046387426567
-11.767757686732281
-13.81857022964828
-15.283436331731137
-15.869382772564279
-16.748302433813993
-16.55298695353628
-16.55298695353628
-16.55298695353628
-16.55298695353628
-15.576409552147707
-14.795147631036851
-14.990463111314565
-14.990463111314565
-14.990463111314565
-15.869382772564279
-16.650644693675137
-16.45532921339742
-16.45532921339742
-16.45532921339742
-18.40848401617456
-19.87335011825742
-19.58037689784085
-21.533531700617992
-22.998397802700847
-22.60776684214542
-24.65857938506142
-26.025787747005417
-27.68596932936599
-29.150835431448844
-28.857862211032273
-33.64309147783627
-37.35408560311284
-36.57282368200198
-43.40886549172198
-48.48706797894255
-53.07698176546884
-57.764553292133975
-56.690318150606544
-59.815365835049974
-61.96383611810483
-61.475547417410546
-61.5732051575494
-61.475547417410546
-57.66689555199512
-54.639505607690545
-55.32310978866255
-49.46364538033112
-44.97138933394369
-45.947966735332265
-39.014267185473415
-33.93606469825284
-30.22507057297627
-26.318760967421987
-27.100022888532845
-24.072632944228275
-21.92416266117342
-22.314793621728846
-19.385061417563133
-17.13893339436942
-12.84199282825971
-9.033340962844282
-9.912260624093996
-4.931715877012284
-1.2207217517357138
-2.0996414129854277
3.7598229953459983
8.154421301594567
11.963073167009995
15.869382772564279
14.990463111314565
19.971007858396277
23.58434424353399
22.803082322423133
25.830472266727703
27.97894254978256
29.443808651865414
31.00633249408713
30.615701533531702
32.56885633630884
34.0337224383917
33.74074921797513
34.717326619363696
35.49858854047456
34.32669565880827
33.64309147783627
33.74074921797513
33.74074921797513
33.74074921797513
33.74074921797513
31.787594415197987
30.322728313115128
28.66254673075456
27.100022888532845
27.49065384908827
25.439841306172273
23.974975204089418
24.365606164644845
21.338216220340275
19.18974593728542
17.724879835202564
16.16235599298085
16.45532921339742
14.50217441062028
13.037308308537423
13.330281528953995
11.377126726176853
9.912260624093996
8.252079041733426
6.787212939650568
7.080186160067139
5.127031357289998
3.662165255207141
3.9551384756237127
2.0019836728465705
0.537117570763714
-0.04882887006942855
-0.8300907911802854
-0.6347753109025711
-2.5879301136797133
-4.052796215762569
-3.7598229953459983
-4.834058136873426
-5.517662317845426
-6.298924238956283
-7.080186160067139
-6.884870679789426
-8.838025482566568
-10.302891584649425
-10.009918364232853
-10.986495765621424
-11.767757686732281
-12.549019607843137
-13.330281528953995
-13.13496604867628
-14.11154345006485
-14.892805371175708
-14.697489890897993
-16.650644693675137
-18.11551079575799
-18.701457236591136
-19.48271915770199
-19.385061417563133
-20.361638818951704
-21.045242999923705
-20.84992751964599
-20.947585259784848
-20.84992751964599
-20.84992751964599
-20.84992751964599
-20.84992751964599
-18.994430457007706
-17.43190661478599
-17.82253757534142
-13.916227969787137
-10.986495765621424
-7.763790341039139
-4.638742656595713
-5.322346837567712
0.43945983062485694
4.834058136873426
3.8574807354848555
8.838025482566568
12.549019607843137
17.43190661478599
22.021820401312276
21.045242999923705
26.025787747005417
29.63912413214313
28.857862211032273
33.838406958113985
37.4517433432517
40.479133287556266
43.604180971999696
42.92057679102769
45.85030899519341
48.09643701838712
47.60814831769284
49.56130312046998
51.02616922255284
52.588693064774546
54.15121690699626
53.760585946440834
54.7371633478294
55.51842526894026
55.32310978866255
55.32310978866255
55.32310978866255
54.346532387273975
53.56527046616312
53.760585946440834
51.709773403524835
50.24490730144198
50.53788052185855
47.60814831769284
45.362020294499125
43.018234531166556
40.67444876783398
41.16273746852827
38.1353475242237
35.98687724116884
36.475165941863125
32.471198596169984
29.541466392004274
27.295338368810558
24.95155260547799
25.439841306172273
22.510109102006563
20.263981078812847
20.752269779507134
17.724879835202564
15.576409552147707
14.11154345006485
12.549019607843137
12.84199282825971
9.912260624093996
7.763790341039139
8.252079041733426
7.177843900205997
6.39658197909514
5.615320057984283
4.834058136873426
5.0293736171511405
4.052796215762569
3.2715342946517127
3.466849774929427
3.36919203479057
3.36919203479057
3.36919203479057
3.36919203479057
3.36919203479057
1.513694972152285
0.04882887006942855
0.34180209048599985
-5.322346837567712
-9.81460288395514
-13.623254749370565
-17.52956435492485
-16.650644693675137
-19.678034637979707
-21.826504921034562
-21.338216220340275
-21.43587396047913
-21.43587396047913
-19.48271915770199
-18.017853055619135
-18.310826276035705
-12.549019607843137
-8.154421301594567
-9.130998702983138
-3.1738765545128556
1.1230640115968566
5.908293278400855
10.595864805065995
9.521629663538567
13.623254749370565
16.55298695353628
15.869382772564279
20.752269779507134
24.4632639047837
26.514076447699704
28.857862211032273
28.369573510337986
31.2993057145037
33.545433737697415
32.95948729686427
35.010299839780274
36.475165941863125
37.06111238269627
37.84237430380713
37.64705882352941
38.62363622491798
39.40489814602884
39.20958266575113
39.20958266575113
39.20958266575113
39.20958266575113
39.20958266575113
39.20958266575113
38.23300526436255
37.4517433432517
37.64705882352941
36.57282368200198
35.889219501029984
34.131380178530556
32.56885633630884
32.86182955672541
30.908674753948272
29.443808651865414
29.736781872281988
27.783627069504846
26.318760967421987
23.779659723811704
21.43587396047913
21.92416266117342
18.994430457007706
16.748302433813993
17.236591134508277
13.330281528953995
10.302891584649425
8.154421301594567
5.71297779812314
6.298924238956283
3.2715342946517127
1.1230640115968566
1.6113527122911422
-1.3183794918745708
-3.466849774929427
-4.931715877012284
-6.494239719233997
-6.201266498817426
-8.154421301594567
-9.619287403677424
-9.228656443121995
-10.302891584649425
-10.986495765621424
-12.74433508812085
-14.306858930342566
-13.916227969787137
-14.990463111314565
-15.674067292286564
-15.47875181200885
-17.43190661478599
-18.89677271686885
-19.58037689784085
-20.361638818951704
-20.16632333867399
-21.14290074006256
-21.92416266117342
-21.728847180895706
-23.682001983672848
-25.146868085755703
-24.756237125200276
-24.853894865339132
-24.853894865339132
-25.830472266727703
-26.514076447699704
-26.318760967421987
-27.295338368810558
-28.076600289921416
-28.857862211032273
-29.63912413214313
-29.443808651865414
-30.420386053253985
-31.103990234225986
-31.00633249408713
-31.9829098954757
-32.6665140764477
-32.471198596169984
-32.471198596169984
-32.471198596169984
-31.494621194781413
-30.811017013809415
-30.908674753948272
-28.95551995117113
-27.49065384908827
-24.95155260547799
-22.60776684214542
-23.19371328297856
-20.16632333867399
-17.920195315480278
-18.40848401617456
-14.50217441062028
-11.572442206454566
-8.349736781872283
-5.224689097428855
-6.005951018539712
-2.9785610742351416
-0.7324330510414282
-1.2207217517357138
1.6113527122911422
3.8574807354848555
5.224689097428855
6.884870679789426
6.494239719233997
8.44739452201114
9.912260624093996
9.619287403677424
10.693522545204852
11.377126726176853
12.158388647287708
12.939650568398566
12.74433508812085
12.74433508812085
12.74433508812085
12.74433508812085
12.74433508812085
12.74433508812085
10.888838025482567
9.326314183260854
9.71694514381628
7.666132600900283
6.201266498817426
6.591897459372854
3.662165255207141
1.416037232013428
0.04882887006942855
-1.513694972152285
-1.1230640115968566
-4.052796215762569
-6.298924238956283
-5.810635538261997
-8.74036774242771
-10.986495765621424
-13.330281528953995
-15.674067292286564
-15.185778591592278
-17.13893339436942
-18.60379949645228
-18.310826276035705
-20.263981078812847
-21.728847180895706
-22.314793621728846
-23.19371328297856
-22.998397802700847
-23.974975204089418
-24.65857938506142
-24.560921644922562
-25.537499046311133
-26.22110322728313
-27.002365148393988
-27.783627069504846
-27.588311589227132
-28.564888990615703
-29.346150911726557
-29.150835431448844
-31.103990234225986
-32.56885633630884
-33.15480277714199
-33.93606469825284
-33.74074921797513
-37.64705882352941
-40.57679102769512
-39.893186846723125
-45.75265125505455
-50.14724956130312
-53.95590142671855
-57.86221103227283
-56.983291371023114
-59.03410391393912
-60.49897001602197
-60.108339055466544
-59.22941939421683
-58.44815747310597
-54.83482108796826
-51.80743114366369
-52.39337758449683
-45.55733577477684
-40.38147554741741
-41.5533684290837
-33.64309147783627
-27.68596932936599
-23.291371023117417
-18.506141756313422
-19.58037689784085
-15.576409552147707
-12.646677347981994
-13.232623788815136
-8.349736781872283
-4.638742656595713
-0.7324330510414282
3.076218814373999
2.197299153124285
7.177843900205997
10.888838025482567
10.009918364232853
14.013885709925994
16.943617914091707
19.18974593728542
21.533531700617992
21.045242999923705
22.998397802700847
24.4632639047837
24.17029068436713
26.123445487144274
27.588311589227132
28.174258030060273
29.053177691309987
28.857862211032273
29.834439612420844
30.518043793392845
30.322728313115128
29.443808651865414
28.66254673075456
27.881284809643702
27.100022888532845
27.295338368810558
25.342183566033416
23.779659723811704
24.17029068436713
21.14290074006256
18.994430457007706
17.52956435492485
15.967040512703136
16.260013733119706
14.306858930342566
12.84199282825971
13.13496604867628
11.181811245899137
9.71694514381628
9.033340962844282
8.252079041733426
8.44739452201114
6.494239719233997
5.0293736171511405
5.322346837567712
3.36919203479057
1.9043259327077133
0.24414435034714274
-1.2207217517357138
-0.8300907911802854
-3.7598229953459983
-6.005951018539712
-5.517662317845426
-8.44739452201114
-10.693522545204852
-13.037308308537423
-15.381094071869994
-14.795147631036851
-17.82253757534142
-19.971007858396277
-19.48271915770199
-23.389028763256274
-26.416418707560844
-28.564888990615703
-30.908674753948272
-30.420386053253985
-33.3501182574197
-35.596246280613414
-35.10795757991913
-37.06111238269627
-38.525978484779124
-39.11192492561227
-39.99084458686198
-39.79552910658427
-40.772106507972836
-41.45571068894484
-41.26039520866713
-41.26039520866713
-41.26039520866713
-41.26039520866713
-41.26039520866713
-41.26039520866713
-40.28381780727855
-39.5025558861677
-39.69787136644541
-37.74471656366827
-36.182192721446555
-33.64309147783627
-31.396963454642556
-31.885252155336843
-27.002365148393988
-23.291371023117417
-24.072632944228275
-19.092088197146563
-15.47875181200885
-9.619287403677424
-4.150453955901427
-5.420004577706569
0.537117570763714
4.931715877012284
3.9551384756237127
9.912260624093996
14.306858930342566
17.13893339436942
20.263981078812847
19.58037689784085
23.58434424353399
26.514076447699704
25.830472266727703
28.857862211032273
31.00633249408713
31.494621194781413
32.27588311589227
32.08056763561456
32.178225375753414
32.08056763561456
32.08056763561456
31.103990234225986
30.420386053253985
28.66254673075456
27.100022888532845
27.392996108949415
24.4632639047837
22.314793621728846
22.803082322423133
19.775692378118563
17.52956435492485
15.185778591592278
12.84199282825971
13.330281528953995
10.400549324788281
8.154421301594567
8.642710002288853
5.71297779812314
3.466849774929427
1.1230640115968566
-1.1230640115968566
-0.6347753109025711
-3.5645075150682843
-5.810635538261997
-5.322346837567712
-7.275501640344854
-8.74036774242771
-10.400549324788281
-11.963073167009995
-11.572442206454566
-13.525597009231708
-14.990463111314565
-14.697489890897993
-16.650644693675137
-18.11551079575799
-18.701457236591136
-19.58037689784085
-19.385061417563133
-21.338216220340275
-22.803082322423133
-22.412451361867703
-23.48668650339513
-24.17029068436713
-25.92813000686656
-27.392996108949415
-27.100022888532845
-28.076600289921416
-28.857862211032273
-28.66254673075456
-29.63912413214313
-30.322728313115128
-31.103990234225986
-31.885252155336843
-31.68993667505913
-34.61966887922484
-36.86579690241855
-36.37750820172427
-40.28381780727855
-43.21355001144427
-45.362020294499125
-47.705806057831694
-47.21751735713741
-47.31517509727627
-47.21751735713741
-47.21751735713741
-43.40886549172198
-40.38147554741741
-35.303273060196844
-30.71335927367056
-31.787594415197987
-21.92416266117342
-14.599832150759136
-16.260013733119706
-6.298924238956283
0.9277485313191425
7.861448081177996
14.990463111314565
13.427939269092851
19.48271915770199
23.779659723811704
22.803082322423133
28.760204470893417
33.15480277714199
36.96345464255741
40.86976424811169
39.99084458686198
45.947966735332265
50.34256504158083
49.26832990005341
53.36995498588541
56.20202944991226
58.44815747310597
60.79194323643854
60.2059967956054
62.2568093385214
63.72167544060426
63.33104448004883
63.42870222018769
63.33104448004883
63.33104448004883
63.33104448004883
63.33104448004883
62.35446707866026
61.5732051575494
61.67086289768826
58.8387884336614
56.59266041046769
54.15121690699626
51.80743114366369
52.295719844357976
49.365987640192266
47.11985961699855
47.60814831769284
44.580758373388264
42.33463035019455
39.99084458686198
37.64705882352941
38.1353475242237
35.10795757991913
32.95948729686427
33.44777599755856
30.420386053253985
28.174258030060273
25.830472266727703
23.48668650339513
23.974975204089418
20.068665598535134
17.13893339436942
17.724879835202564
14.697489890897993
12.549019607843137
10.205233844510566
7.861448081177996
8.349736781872283
5.322346837567712
3.1738765545128556
3.662165255207141
-0.14648661020828566
-3.1738765545128556
-5.322346837567712
-7.666132600900283
-7.177843900205997
-9.228656443121995
-10.693522545204852
-10.302891584649425
-13.232623788815136
-15.47875181200885
-15.967040512703136
-16.748302433813993
-16.55298695353628
-18.506141756313422
-19.971007858396277
-19.678034637979707
-20.654612039368278
-21.43587396047913
-22.21713588158999
-22.998397802700847
-22.803082322423133
-24.756237125200276
-26.22110322728313
-25.830472266727703
-25.92813000686656
-25.92813000686656
-25.92813000686656
-25.92813000686656
-25.92813000686656
-23.974975204089418
-22.510109102006563
-22.803082322423133
-18.89677271686885
-15.967040512703136
-11.767757686732281
-7.959105821316854
-8.838025482566568
-3.8574807354848555
-0.14648661020828566
-1.0254062714579995
4.834058136873426
9.228656443121995
13.037308308537423
16.943617914091707
16.064698252841993
20.068665598535134
22.998397802700847
22.314793621728846
24.365606164644845
25.830472266727703
27.392996108949415
28.95551995117113
28.66254673075456
28.66254673075456
28.66254673075456
28.66254673075456
28.66254673075456
28.66254673075456
27.68596932936599
26.90470740825513
27.100022888532845
25.146868085755703
23.682001983672848
23.974975204089418
21.92416266117342
20.45929655909056
17.920195315480278
15.674067292286564
16.16235599298085
13.13496604867628
10.986495765621424
11.47478446631571
8.44739452201114
6.298924238956283
3.8574807354848555
1.513694972152285
2.0996414129854277
-0.8300907911802854
-2.9785610742351416
-2.490272373540856
-4.541084916456855
-6.005951018539712
-7.568474860761425
-9.130998702983138
-8.838025482566568
-10.79118028534371
-12.256046387426567
-11.865415426871138
-13.916227969787137
-15.381094071869994
-15.967040512703136
-16.748302433813993
-16.55298695353628
-18.506141756313422
-19.971007858396277
-19.678034637979707
-21.63118944075685
-23.096055542839704
-23.779659723811704
-24.560921644922562
-24.365606164644845
-26.318760967421987
-27.783627069504846
-27.392996108949415
-30.322728313115128
-32.56885633630884
-34.91264209964141
-37.256427862973986
-36.768139162279695
-39.69787136644541
-41.84634164950027
-41.358052948805984
-43.40886549172198
-44.873731593804834
-46.43625543602655
-47.90112153810941
-47.60814831769284
-50.53788052185855
-52.6863508049134
-52.19806210421912
-57.08094911116198
-60.694285496299685
-64.69825284199283
-68.50690470740825
-67.62798504615854
-67.82330052643626
-67.7256427862974
-67.7256427862974
-63.91699092088197
-60.8896009765774
-54.83482108796826
-49.46364538033112
-50.635538261997404
-39.893186846723125
-31.787594415197987
-33.545433737697415
-23.58434424353399
-16.260013733119706
-10.302891584649425
-3.9551384756237127
-5.322346837567712
-0.24414435034714274
3.2715342946517127
2.490272373540856
6.494239719233997
9.42397192339971
12.549019607843137
15.674067292286564
14.990463111314565
17.041275654230564
18.506141756313422
18.11551079575799
18.21316853589685
18.21316853589685
18.21316853589685
18.21316853589685
18.21316853589685
17.236591134508277
16.45532921339742
16.650644693675137
14.697489890897993
13.232623788815136
10.693522545204852
8.349736781872283
8.838025482566568
5.908293278400855
3.662165255207141
4.150453955901427
2.197299153124285
0.7324330510414282
-1.7090104524299992
-4.052796215762569
-3.5645075150682843
-5.517662317845426
-6.982528419928283
-6.6895551995117115
-7.763790341039139
-8.44739452201114
-9.228656443121995
-10.009918364232853
-9.81460288395514
-10.79118028534371
-11.572442206454566
-11.377126726176853
-13.330281528953995
-14.795147631036851
-15.381094071869994
-16.260013733119706
-16.064698252841993
-17.041275654230564
-17.724879835202564
-17.627222095063708
-18.60379949645228
-19.287403677424276
-20.068665598535134
-20.84992751964599
-20.654612039368278
-21.63118944075685
-22.412451361867703
-22.21713588158999
-22.21713588158999
-22.21713588158999
-23.19371328297856
-23.974975204089418
-23.779659723811704
-22.803082322423133
-22.119478141451133
-22.21713588158999
-22.21713588158999
-22.21713588158999
-21.24055848020142
-20.45929655909056
-20.654612039368278
-19.678034637979707
-18.89677271686885
-19.092088197146563
-18.994430457007706
-18.994430457007706
-18.994430457007706
-18.994430457007706
-18.994430457007706
-18.017853055619135
-17.334248874647134
-17.43190661478599
-15.47875181200885
-14.013885709925994
-11.47478446631571
-9.130998702983138
-9.71694514381628
-5.71297779812314
-2.783245593957427
-3.466849774929427
1.416037232013428
5.0293736171511405
10.009918364232853
14.599832150759136
13.525597009231708
20.45929655909056
25.63515678644999
24.4632639047837
30.420386053253985
34.81498435950255
38.62363622491798
42.529945830472265
41.651026169222554
46.63157091630426
50.24490730144198
49.46364538033112
52.49103532463569
54.639505607690545
56.006713969634546
57.56923781185626
57.27626459143969
59.22941939421683
60.694285496299685
60.30365453574426
60.401312275883114
60.30365453574426
60.30365453574426
60.30365453574426
60.30365453574426
58.350499732967116
56.7879758907454
57.178606851300835
54.15121690699626
52.002746623941405
49.56130312046998
47.21751735713741
47.705806057831694
44.77607385366598
42.529945830472265
43.018234531166556
39.99084458686198
37.74471656366827
36.37750820172427
34.717326619363696
35.10795757991913
33.05714503700313
31.592278934920273
31.885252155336843
29.9320973525597
28.467231250476843
27.783627069504846
27.002365148393988
27.1976806286717
25.24452582589456
23.779659723811704
24.072632944228275
21.14290074006256
18.89677271686885
17.43190661478599
15.869382772564279
16.260013733119706
13.232623788815136
11.08415350576028
11.572442206454566
8.545052262149996
6.39658197909514
4.931715877012284
3.36919203479057
3.662165255207141
1.7090104524299992
0.24414435034714274
0.537117570763714
-0.34180209048599985
-1.1230640115968566
-1.9043259327077133
-2.68558785381857
-2.490272373540856
-3.466849774929427
-4.248111696040284
-4.052796215762569
-5.0293736171511405
-5.810635538261997
-6.591897459372854
-7.373159380483711
-7.177843900205997
-10.986495765621424
-14.013885709925994
-13.330281528953995
-18.21316853589685
-21.92416266117342
-24.853894865339132
-28.076600289921416
-27.295338368810558
-26.514076447699704
-25.732814526588847
-25.92813000686656
-22.021820401312276
-19.092088197146563
-11.08415350576028
-4.345769436179141
-5.810635538261997
4.931715877012284
13.037308308537423
11.181811245899137
21.14290074006256
28.467231250476843
34.52201113908598
40.772106507972836
39.40489814602884
43.50652323186084
46.33859769588769
45.75265125505455
49.658960860608836
52.588693064774546
54.7371633478294
57.178606851300835
56.59266041046769
58.643472953383686
60.01068131532769
59.71770809491112
60.694285496299685
61.37788967727169
61.182574196993976
61.28023193713283
61.182574196993976
60.2059967956054
59.522392614633404
59.62005035477226
56.690318150606544
54.44419012741283
52.10040436408026
49.75661860074769
50.24490730144198
46.240939955748836
43.311207751583126
43.99481193255512
39.99084458686198
37.06111238269627
34.81498435950255
32.471198596169984
32.95948729686427
29.9320973525597
27.783627069504846
28.27191577019913
26.22110322728313
24.756237125200276
22.21713588158999
19.87335011825742
20.361638818951704
18.310826276035705
16.84596017395285
17.236591134508277
15.185778591592278
13.720912489509422
11.181811245899137
8.935683222705425
9.42397192339971
7.373159380483711
5.908293278400855
6.201266498817426
3.2715342946517127
1.1230640115968566
-1.2207217517357138
-3.5645075150682843
-2.9785610742351416
-5.0293736171511405
-6.494239719233997
-6.201266498817426
-9.130998702983138
-11.279468986037996
-12.74433508812085
-14.306858930342566
-13.916227969787137
-16.84596017395285
-19.092088197146563
-18.60379949645228
-21.533531700617992
-23.779659723811704
-26.123445487144274
-28.467231250476843
-27.881284809643702
-30.908674753948272
-33.05714503700313
-32.56885633630884
-33.64309147783627
-34.32669565880827
-35.10795757991913
-35.889219501029984
-35.69390402075227
-32.86182955672541
-30.615701533531702
-31.103990234225986
-27.1976806286717
-24.267948424505988
-19.18974593728542
-14.50217441062028
-15.576409552147707
-8.642710002288853
-3.466849774929427
-4.638742656595713
3.1738765545128556
9.033340962844282
14.404516670481422
19.87335011825742
18.701457236591136
25.63515678644999
30.71335927367056
29.63912413214313
33.64309147783627
36.57282368200198
39.69787136644541
42.822919050888835
42.13931486991684
44.19012741283284
45.654993514915695
45.26436255436027
45.362020294499125
45.26436255436027
45.26436255436027
45.26436255436027
45.26436255436027
44.28778515297169
43.50652323186084
43.70183871213855
42.72526131074998
41.943999389639124
40.186160067139696
38.62363622491798
39.014267185473415
35.98687724116884
33.838406958113985
34.32669565880827
31.2993057145037
29.053177691309987
26.709391927977418
24.365606164644845
24.853894865339132
20.947585259784848
18.017853055619135
18.60379949645228
15.576409552147707
13.427939269092851
10.10757610437171
6.982528419928283
7.666132600900283
5.615320057984283
4.150453955901427
4.443427176317998
1.513694972152285
-0.537117570763714
-2.9785610742351416
-5.322346837567712
-4.736400396734569
-7.763790341039139
-9.912260624093996
-9.42397192339971
-13.330281528953995
-16.357671473258563
-19.48271915770199
-22.60776684214542
-21.92416266117342
-26.807049668116274
-30.518043793392845
-29.63912413214313
-33.64309147783627
-36.57282368200198
-39.69787136644541
-42.822919050888835
-42.13931486991684
-45.069047074082555
-47.31517509727627
-46.826886396581976
-49.75661860074769
-51.90508888380255
-52.39337758449683
-53.27229724574655
-52.97932402532997
-53.07698176546884
-52.97932402532997
-52.97932402532997
-53.95590142671855
-54.639505607690545
-54.44419012741283
-54.54184786755169
-54.44419012741283
-56.39734493018997
-57.86221103227283
-57.471580071717405
-60.401312275883114
-62.64744029907683
-64.01464866102083
-65.57717250324254
-65.18654154268711
-62.35446707866026
-60.108339055466544
-60.59662775616083
-53.760585946440834
-48.584725719081405
-40.186160067139696
-32.471198596169984
-34.22903791866941
-21.43587396047913
-11.865415426871138
-13.916227969787137
-2.9785610742351416
5.0293736171511405
9.912260624093996
15.47875181200885
14.209201190203707
17.334248874647134
19.58037689784085
19.092088197146563
21.045242999923705
22.510109102006563
23.096055542839704
23.974975204089418
23.779659723811704
24.756237125200276
25.439841306172273
25.342183566033416
24.365606164644845
23.58434424353399
21.826504921034562
20.361638818951704
20.654612039368278
17.724879835202564
15.47875181200885
15.967040512703136
12.060730907148852
9.130998702983138
5.908293278400855
2.783245593957427
3.466849774929427
-1.3183794918745708
-5.0293736171511405
-4.150453955901427
-8.154421301594567
-11.08415350576028
-13.330281528953995
-15.674067292286564
-15.185778591592278
-18.11551079575799
-20.361638818951704
-19.87335011825742
-21.826504921034562
-23.291371023117417
-23.87731746395056
-24.756237125200276
-24.560921644922562
-25.537499046311133
-26.22110322728313
-26.123445487144274
-27.100022888532845
-27.783627069504846
-28.564888990615703
-29.346150911726557
-29.150835431448844
-30.127412832837415
-30.908674753948272
-30.71335927367056
-30.71335927367056
-30.71335927367056
-31.68993667505913
-32.37354085603113
-32.178225375753414
-32.27588311589227
-32.178225375753414
-32.178225375753414
-33.15480277714199
-33.838406958113985
-34.61966887922484
-35.4009308003357
-35.20561532005799
-35.303273060196844
-35.20561532005799
-35.20561532005799
-36.182192721446555
-36.86579690241855
-36.768139162279695
-36.768139162279695
-36.768139162279695
-36.768139162279695
-36.768139162279695
-36.67048142214084
-35.79156176089113
-35.010299839780274
-34.22903791866941
-33.44777599755856
-33.545433737697415
-31.592278934920273
-30.127412832837415
-30.420386053253985
-27.49065384908827
-25.24452582589456
-21.92416266117342
-18.799114976729992
-19.48271915770199
-14.599832150759136
-10.888838025482567
-11.767757686732281
-7.763790341039139
-4.834058136873426
-2.5879301136797133
-0.24414435034714274
-0.7324330510414282
2.197299153124285
4.345769436179141
3.8574807354848555
6.884870679789426
9.033340962844282
10.498207064927138
12.060730907148852
11.670099946593423
12.74433508812085
13.427939269092851
13.232623788815136
14.306858930342566
14.990463111314565
14.795147631036851
14.892805371175708
14.795147631036851
12.939650568398566
11.47478446631571
11.767757686732281
9.81460288395514
8.349736781872283
5.810635538261997
3.466849774929427
3.9551384756237127
1.0254062714579995
-1.1230640115968566
-0.6347753109025711
-3.5645075150682843
-5.810635538261997
-7.177843900205997
-8.838025482566568
-8.44739452201114
-11.377126726176853
-13.623254749370565
-13.13496604867628
-15.088120851453422
-16.55298695353628
-18.11551079575799
-19.678034637979707
-19.385061417563133
-20.361638818951704
-21.045242999923705
-20.947585259784848
-22.90074006256199
-24.365606164644845
-23.974975204089418
-24.072632944228275
-24.072632944228275
-24.95155260547799
-25.732814526588847
-25.537499046311133
-26.514076447699704
-27.295338368810558
-28.076600289921416
-28.857862211032273
-28.66254673075456
-29.63912413214313
-30.322728313115128
-30.127412832837415
-31.103990234225986
-31.885252155336843
-32.6665140764477
-33.44777599755856
-33.252460517280845
-35.20561532005799
-36.67048142214084
-36.27985046158541
-38.23300526436255
-39.69787136644541
-40.38147554741741
-41.16273746852827
-40.96742198825055
-41.943999389639124
-42.62760357061112
-42.43228809033341
-41.5533684290837
-40.772106507972836
-39.014267185473415
-37.4517433432517
-37.84237430380713
-36.768139162279695
-36.0845349813077
-36.182192721446555
-36.182192721446555
-36.182192721446555
-34.22903791866941
-32.764171816586554
-33.05714503700313
-27.1976806286717
-22.803082322423133
-23.779659723811704
-16.84596017395285
-11.670099946593423
-3.2715342946517127
4.248111696040284
2.5879301136797133
12.549019607843137
19.87335011825742
18.21316853589685
26.22110322728313
32.08056763561456
35.49858854047456
39.5025558861677
38.62363622491798
39.79552910658427
40.479133287556266
40.28381780727855
41.26039520866713
41.943999389639124
41.74868390936141
41.84634164950027
41.74868390936141
40.86976424811169
40.08850232700084
40.186160067139696
40.186160067139696
40.186160067139696
39.20958266575113
38.42832074464027
38.62363622491798
36.67048142214084
35.10795757991913
35.49858854047456
33.44777599755856
31.9829098954757
29.443808651865414
27.100022888532845
27.68596932936599
24.65857938506142
22.412451361867703
22.90074006256199
19.971007858396277
17.724879835202564
16.357671473258563
14.697489890897993
15.088120851453422
13.037308308537423
11.572442206454566
11.963073167009995
9.912260624093996
8.44739452201114
7.861448081177996
6.982528419928283
7.177843900205997
6.201266498817426
5.420004577706569
5.615320057984283
4.638742656595713
3.8574807354848555
4.052796215762569
4.052796215762569
4.052796215762569
3.076218814373999
2.2949568932631417
2.490272373540856
1.513694972152285
0.7324330510414282
-0.9277485313191425
-2.392614633401999
-2.0996414129854277
-3.076218814373999
-3.8574807354848555
-3.662165255207141
-4.638742656595713
-5.420004577706569
-6.201266498817426
-6.982528419928283
-6.787212939650568
-6.787212939650568
-6.787212939650568
-6.787212939650568
-6.787212939650568
-6.787212939650568
-5.810635538261997
-5.127031357289998
-5.224689097428855
-3.2715342946517127
-1.8066681925688564
-2.197299153124285
-0.14648661020828566
1.2207217517357138
3.7598229953459983
6.005951018539712
5.517662317845426
8.44739452201114
10.693522545204852
10.205233844510566
14.11154345006485
17.041275654230564
20.263981078812847
23.291371023117417
22.60776684214542
25.63515678644999
27.783627069504846
27.295338368810558
31.2993057145037
34.22903791866941
36.37750820172427
38.72129396505684
38.23300526436255
40.186160067139696
41.651026169222554
41.358052948805984
43.311207751583126
44.77607385366598
45.362020294499125
46.14328221560998
45.947966735332265
46.92454413672083
47.705806057831694
47.51049057755398
46.533913176165406
45.75265125505455
44.97138933394369
44.19012741283284
44.38544289311055
41.45571068894484
39.20958266575113
39.69787136644541
36.67048142214084
34.52201113908598
32.08056763561456
29.736781872281988
30.22507057297627
27.295338368810558
25.049210345616846
25.537499046311133
21.63118944075685
18.701457236591136
16.45532921339742
14.11154345006485
14.599832150759136
10.693522545204852
7.666132600900283
8.349736781872283
5.322346837567712
3.1738765545128556
-0.04882887006942855
-3.1738765545128556
-2.490272373540856
-5.517662317845426
-7.666132600900283
-7.177843900205997
-10.205233844510566
-12.353704127565424
-14.697489890897993
-17.041275654230564
-16.55298695353628
-19.48271915770199
-21.728847180895706
-21.24055848020142
-22.314793621728846
-22.998397802700847
-24.756237125200276
-26.22110322728313
-25.92813000686656
-25.92813000686656
-25.92813000686656
-25.92813000686656
-26.90470740825513
-27.588311589227132
-28.369573510337986
-29.150835431448844
-28.95551995117113
-29.053177691309987
-28.95551995117113
-28.95551995117113
-28.95551995117113
-28.95551995117113
-28.95551995117113
-28.95551995117113
-28.95551995117113
-27.97894254978256
-27.1976806286717
-27.392996108949415
-26.416418707560844
-25.63515678644999
-23.87731746395056
-22.314793621728846
-22.705424582284277
-22.60776684214542
-22.60776684214542
-22.60776684214542
-24.4632639047837
-26.025787747005417
-25.63515678644999
-25.732814526588847
-25.732814526588847
-21.826504921034562
-18.89677271686885
-19.58037689784085
-11.767757686732281
-5.810635538261997
3.2715342946517127
11.670099946593423
9.81460288395514
23.58434424353399
33.93606469825284
31.592278934920273
44.48310063324941
54.053559166857404
58.54581521324483
64.20996414129854
62.9404135194934
66.06546120393683
68.21393148699168
67.7256427862974
67.82330052643626
67.7256427862974
66.74906538490883
66.06546120393683
66.16311894407569
63.233386739909974
60.987258716716255
61.475547417410546
58.44815747310597
56.29968719005112
53.85824368657969
51.51445792324712
52.002746623941405
48.09643701838712
45.16670481422141
45.75265125505455
42.72526131074998
40.57679102769512
38.1353475242237
35.79156176089113
36.27985046158541
34.22903791866941
32.764171816586554
33.15480277714199
31.103990234225986
29.63912413214313
28.076600289921416
26.514076447699704
26.807049668116274
25.732814526588847
25.049210345616846
25.146868085755703
23.291371023117417
21.728847180895706
19.18974593728542
16.943617914091707
17.43190661478599
14.404516670481422
12.256046387426567
12.74433508812085
9.71694514381628
7.568474860761425
4.150453955901427
1.1230640115968566
1.8066681925688564
-3.076218814373999
-6.6895551995117115
-5.908293278400855
-10.888838025482567
-14.50217441062028
-18.506141756313422
-22.314793621728846
-21.43587396047913
-26.416418707560844
-30.127412832837415
-29.2484931715877
-33.252460517280845
-36.182192721446555
-39.307240405889985
-42.43228809033341
-41.74868390936141
-44.77607385366598
-46.92454413672083
-46.43625543602655
-48.38941023880369
-49.85427634088655
-51.416800183108265
-52.97932402532997
-52.588693064774546
-51.709773403524835
-50.928511482413974
-51.123826962691695
-49.17067215991455
-47.60814831769284
-45.069047074082555
-42.822919050888835
-43.311207751583126
-39.307240405889985
-36.37750820172427
-37.06111238269627
-32.08056763561456
-28.369573510337986
-23.48668650339513
-18.799114976729992
-19.87335011825742
-14.892805371175708
-11.181811245899137
-11.963073167009995
-7.959105821316854
-5.0293736171511405
-1.9043259327077133
1.1230640115968566
0.43945983062485694
3.466849774929427
5.615320057984283
5.127031357289998
7.177843900205997
8.642710002288853
9.228656443121995
10.10757610437171
9.912260624093996
9.912260624093996
9.912260624093996
9.912260624093996
7.959105821316854
6.494239719233997
4.931715877012284
3.36919203479057
3.7598229953459983
0.7324330510414282
-1.3183794918745708
-0.8300907911802854
-4.736400396734569
-7.763790341039139
-9.912260624093996
-12.256046387426567
-11.767757686732281
-13.81857022964828
-15.283436331731137
-14.892805371175708
-17.82253757534142
-20.068665598535134
-21.43587396047913
-23.096055542839704
-22.705424582284277
-24.65857938506142
-26.123445487144274
-25.830472266727703
-28.760204470893417
-30.908674753948272
-33.252460517280845
-35.596246280613414
-35.10795757991913
-37.06111238269627
-38.525978484779124
-38.23300526436255
-39.20958266575113
-39.893186846723125
-40.67444876783398
-41.45571068894484
-41.26039520866713
-41.358052948805984
-41.26039520866713
-41.26039520866713
-40.28381780727855
-39.600213626306555
-38.72129396505684
-37.94003204394598
-38.1353475242237
-37.15877012283513
-36.37750820172427
-36.57282368200198
-35.49858854047456
-34.81498435950255
-34.0337224383917
-33.15480277714199
-33.3501182574197
-32.37354085603113
-31.592278934920273
-31.787594415197987
-31.68993667505913
-31.68993667505913
-31.68993667505913
-31.68993667505913
-31.68993667505913
-30.71335927367056
-29.9320973525597
-30.127412832837415
-29.150835431448844
-28.369573510337986
-26.61173418783856
-25.049210345616846
-25.439841306172273
-25.342183566033416
-25.342183566033416
-25.342183566033416
-26.318760967421987
-27.002365148393988
-27.783627069504846
-28.564888990615703
-28.369573510337986
-27.49065384908827
-26.709391927977418
-26.90470740825513
-22.998397802700847
-20.068665598535134
-15.869382772564279
-12.060730907148852
-12.939650568398566
-6.005951018539712
-0.8300907911802854
-2.0019836728465705
4.834058136873426
10.009918364232853
11.670099946593423
14.209201190203707
13.623254749370565
13.720912489509422
13.720912489509422
13.720912489509422
13.720912489509422
13.720912489509422
13.720912489509422
13.720912489509422
13.720912489509422
12.74433508812085
11.963073167009995
12.158388647287708
12.060730907148852
12.060730907148852
10.205233844510566
8.74036774242771
9.033340962844282
7.959105821316854
7.275501640344854
7.470817120622568
6.39658197909514
5.71297779812314
3.9551384756237127
2.392614633401999
2.783245593957427
0.7324330510414282
-0.6347753109025711
-0.24414435034714274
-2.2949568932631417
-3.7598229953459983
-5.322346837567712
-6.884870679789426
-6.494239719233997
-8.44739452201114
-9.912260624093996
-9.619287403677424
-11.572442206454566
-13.037308308537423
-14.697489890897993
-16.16235599298085
-15.869382772564279
-16.84596017395285
-17.627222095063708
-17.43190661478599
-18.40848401617456
-19.18974593728542
-19.971007858396277
-20.752269779507134
-20.55695429922942
-20.55695429922942
-20.55695429922942
-20.55695429922942
-20.55695429922942
-20.55695429922942
-20.55695429922942
-20.55695429922942
-20.45929655909056
-20.45929655909056
-20.45929655909056
-20.45929655909056
-20.45929655909056
-20.45929655909056
-20.45929655909056
-20.45929655909056
-20.45929655909056
-19.48271915770199
-18.701457236591136
-18.89677271686885
-17.920195315480278
-17.13893339436942
-14.50217441062028
-12.158388647287708
-12.646677347981994
-9.71694514381628
-7.470817120622568
-7.959105821316854
-3.076218814373999
0.43945983062485694
4.443427176317998
8.349736781872283
7.470817120622568
12.45136186770428
16.064698252841993
15.283436331731137
20.263981078812847
23.87731746395056
26.90470740825513
30.029755092698558
29.346150911726557
33.252460517280845
36.182192721446555
35.49858854047456
39.5025558861677
42.43228809033341
44.580758373388264
47.0222018768597
46.43625543602655
47.51049057755398
48.19409475852598
47.998779278248264
48.97535667963683
49.75661860074769
48.584725719081405
47.90112153810941
47.998779278248264
47.0222018768597
46.240939955748836
46.43625543602655
45.362020294499125
44.67841611352712
41.943999389639124
39.69787136644541
40.186160067139696
37.15877012283513
34.91264209964141
35.4009308003357
33.3501182574197
31.885252155336843
29.346150911726557
27.100022888532845
27.588311589227132
24.560921644922562
22.412451361867703
22.803082322423133
19.87335011825742
17.627222095063708
15.283436331731137
12.939650568398566
13.427939269092851
10.498207064927138
8.252079041733426
8.74036774242771
5.810635538261997
3.5645075150682843
1.2207217517357138
-1.0254062714579995
-0.537117570763714
-2.5879301136797133
-4.052796215762569
-3.662165255207141
-5.71297779812314
-7.177843900205997
-8.74036774242771
-10.302891584649425
-9.912260624093996
-10.986495765621424
-11.670099946593423
-11.47478446631571
-12.45136186770428
-13.232623788815136
-14.013885709925994
-14.795147631036851
-14.599832150759136
-15.576409552147707
-16.357671473258563
-16.16235599298085
-18.11551079575799
-19.58037689784085
-20.16632333867399
-20.947585259784848
-20.84992751964599
-21.826504921034562
-22.510109102006563
-22.314793621728846
-22.412451361867703
-22.412451361867703
-19.48271915770199
-17.236591134508277
-17.724879835202564
-13.81857022964828
-10.888838025482567
-11.47478446631571
-5.615320057984283
-1.2207217517357138
3.466849774929427
8.05676356145571
7.080186160067139
10.10757610437171
12.353704127565424
11.865415426871138
11.963073167009995
11.963073167009995
10.986495765621424
10.205233844510566
10.400549324788281
10.302891584649425
10.302891584649425
10.302891584649425
13.232623788815136
15.381094071869994
18.701457236591136
21.826504921034562
21.14290074006256
27.002365148393988
31.396963454642556
30.420386053253985
35.4009308003357
39.014267185473415
39.20958266575113
40.08850232700084
39.893186846723125
38.03768978408484
36.475165941863125
36.768139162279695
33.838406958113985
31.68993667505913
29.2484931715877
26.90470740825513
27.392996108949415
24.4632639047837
22.21713588158999
22.705424582284277
19.775692378118563
17.52956435492485
15.185778591592278
12.84199282825971
13.330281528953995
10.302891584649425
8.154421301594567
8.642710002288853
5.615320057984283
3.466849774929427
1.0254062714579995
-1.2207217517357138
-0.6347753109025711
-3.662165255207141
-5.810635538261997
-5.322346837567712
-8.349736781872283
-10.498207064927138
-12.939650568398566
-15.185778591592278
-14.697489890897993
-16.748302433813993
-18.21316853589685
-17.82253757534142
-20.752269779507134
-22.998397802700847
-24.365606164644845
-26.025787747005417
-25.63515678644999
-28.564888990615703
-30.71335927367056
-30.22507057297627
-32.27588311589227
-33.74074921797513
-34.32669565880827
-35.10795757991913
-34.91264209964141
-36.86579690241855
-38.33066300450141
-38.03768978408484
-39.014267185473415
-39.69787136644541
-40.479133287556266
-41.26039520866713
-41.065079728389414
-42.04165712977798
-42.822919050888835
-42.62760357061112
-43.604180971999696
-44.28778515297169
-45.069047074082555
-45.85030899519341
-45.654993514915695
-44.77607385366598
-43.99481193255512
-44.09246967269398
-42.13931486991684
-40.67444876783398
-36.182192721446555
-32.471198596169984
-33.252460517280845
-28.27191577019913
-24.560921644922562
-25.439841306172273
-18.506141756313422
-13.427939269092851
-8.838025482566568
-4.052796215762569
-5.127031357289998
0.7324330510414282
5.127031357289998
4.150453955901427
9.130998702983138
12.84199282825971
14.892805371175708
17.236591134508277
16.748302433813993
18.701457236591136
20.16632333867399
19.87335011825742
20.84992751964599
21.63118944075685
21.43587396047913
21.43587396047913
21.43587396047913
21.43587396047913
21.43587396047913
21.43587396047913
20.45929655909056
19.678034637979707
18.017853055619135
16.45532921339742
16.748302433813993
15.771725032425422
14.990463111314565
15.185778591592278
13.232623788815136
11.767757686732281
10.10757610437171
8.545052262149996
8.935683222705425
6.982528419928283
5.517662317845426
5.810635538261997
3.8574807354848555
2.392614633401999
1.7090104524299992
0.9277485313191425
1.1230640115968566
-0.7324330510414282
-2.197299153124285
-1.9043259327077133
-2.9785610742351416
-3.662165255207141
-5.420004577706569
-6.982528419928283
-6.591897459372854
-8.545052262149996
-10.009918364232853
-9.71694514381628
-12.646677347981994
-14.892805371175708
-16.260013733119706
-17.82253757534142
-17.52956435492485
-19.48271915770199
-20.947585259784848
-20.654612039368278
-21.63118944075685
-22.314793621728846
-23.096055542839704
-23.87731746395056
-23.682001983672848
-25.63515678644999
-27.100022888532845
-26.807049668116274
-27.783627069504846
-28.564888990615703
-28.369573510337986
-28.369573510337986
-28.369573510337986
-28.369573510337986
-28.369573510337986
-28.369573510337986
-29.2484931715877
-30.029755092698558
-29.834439612420844
-29.834439612420844
-29.834439612420844
-29.834439612420844
-29.834439612420844
-29.834439612420844
-29.834439612420844
-29.834439612420844
-27.881284809643702
-26.416418707560844
-26.709391927977418
-22.803082322423133
-19.87335011825742
-20.55695429922942
-15.576409552147707
-11.865415426871138
-6.982528419928283
-2.392614633401999
-3.36919203479057
0.537117570763714
3.466849774929427
2.8809033340962844
3.9551384756237127
4.638742656595713
5.420004577706569
6.201266498817426
6.005951018539712
7.959105821316854
9.42397192339971
9.130998702983138
13.037308308537423
15.967040512703136
20.068665598535134
23.974975204089418
23.096055542839704
29.9320973525597
35.10795757991913
33.93606469825284
38.91660944533455
42.62760357061112
43.70183871213855
45.362020294499125
44.97138933394369
44.09246967269398
43.311207751583126
43.40886549172198
41.45571068894484
39.99084458686198
38.42832074464027
36.86579690241855
37.15877012283513
34.22903791866941
31.9829098954757
32.471198596169984
29.443808651865414
27.295338368810558
24.853894865339132
22.510109102006563
23.096055542839704
21.045242999923705
19.58037689784085
19.87335011825742
17.920195315480278
16.45532921339742
14.795147631036851
13.232623788815136
13.623254749370565
11.572442206454566
10.10757610437171
10.498207064927138
9.42397192339971
8.74036774242771
6.982528419928283
5.420004577706569
5.810635538261997
2.783245593957427
0.6347753109025711
1.1230640115968566
-1.8066681925688564
-3.9551384756237127
-6.39658197909514
-8.642710002288853
-8.154421301594567
-12.060730907148852
-14.990463111314565
-14.404516670481422
-18.310826276035705
-21.24055848020142
-23.48668650339513
-25.830472266727703
-25.342183566033416
-29.2484931715877
-32.178225375753414
-31.494621194781413
-33.545433737697415
-35.010299839780274
-36.57282368200198
-38.1353475242237
-37.74471656366827
-37.84237430380713
-37.74471656366827
-37.74471656366827
-35.889219501029984
-34.32669565880827
-29.9320973525597
-26.123445487144274
-26.90470740825513
-21.045242999923705
-16.55298695353628
-17.52956435492485
-10.693522545204852
-5.517662317845426
0.9277485313191425
7.080186160067139
5.71297779812314
12.646677347981994
17.82253757534142
16.650644693675137
23.58434424353399
28.760204470893417
33.3501182574197
38.03768978408484
36.96345464255741
41.943999389639124
45.55733577477684
44.77607385366598
48.78004119935912
51.709773403524835
54.83482108796826
57.95986877241169
57.178606851300835
59.22941939421683
60.694285496299685
60.30365453574426
61.37788967727169
62.061493858243686
61.86617837796597
61.86617837796597
61.86617837796597
60.8896009765774
60.108339055466544
60.30365453574426
58.350499732967116
56.7879758907454
55.22545204852369
53.66292820630198
53.95590142671855
52.002746623941405
50.44022278171969
50.83085374227512
47.80346379797055
45.654993514915695
44.19012741283284
42.529945830472265
42.92057679102769
39.99084458686198
37.74471656366827
38.23300526436255
36.182192721446555
34.717326619363696
32.178225375753414
29.834439612420844
30.322728313115128
28.27191577019913
26.807049668116274
27.1976806286717
26.123445487144274
25.439841306172273
23.682001983672848
22.119478141451133
22.412451361867703
21.43587396047913
20.654612039368278
20.84992751964599
19.87335011825742
19.092088197146563
17.334248874647134
15.771725032425422
16.16235599298085
13.232623788815136
10.986495765621424
11.47478446631571
7.568474860761425
4.638742656595713
1.416037232013428
-1.6113527122911422
-0.9277485313191425
-4.834058136873426
-7.763790341039139
-7.177843900205997
-10.205233844510566
-12.353704127565424
-14.697489890897993
-17.041275654230564
-16.55298695353628
-18.506141756313422
-19.971007858396277
-19.678034637979707
-18.799114976729992
-18.017853055619135
-15.283436331731137
-13.037308308537423
-13.525597009231708
-9.619287403677424
-6.6895551995117115
-7.275501640344854
-2.392614633401999
1.2207217517357138
6.103608758678568
10.693522545204852
9.71694514381628
14.697489890897993
18.310826276035705
17.52956435492485
22.510109102006563
26.123445487144274
29.150835431448844
32.27588311589227
31.592278934920273
32.6665140764477
33.3501182574197
33.252460517280845
31.2993057145037
29.834439612420844
27.295338368810558
24.95155260547799
25.439841306172273
26.318760967421987
27.100022888532845
26.90470740825513
29.736781872281988
31.9829098954757
35.303273060196844
38.33066300450141
37.64705882352941
43.50652323186084
47.998779278248264
46.92454413672083
51.90508888380255
55.61608300907912
54.7371633478294
54.932478828107115
54.83482108796826
51.02616922255284
47.998779278248264
48.68238345922026
44.67841611352712
41.74868390936141
37.64705882352941
33.74074921797513
34.61966887922484
29.63912413214313
25.92813000686656
26.709391927977418
22.705424582284277
19.775692378118563
17.627222095063708
15.185778591592278
15.771725032425422
11.767757686732281
8.838025482566568
9.521629663538567
5.517662317845426
2.5879301136797133
0.34180209048599985
-1.9043259327077133
-1.416037232013428
-5.322346837567712
-8.252079041733426
-7.568474860761425
-11.572442206454566
-14.50217441062028
-17.627222095063708
-20.752269779507134
-20.068665598535134
-23.096055542839704
-25.24452582589456
-24.756237125200276
-27.68596932936599
-29.9320973525597
-32.27588311589227
-34.61966887922484
-34.131380178530556
-36.0845349813077
-37.549401083390556
-37.256427862973986
-39.20958266575113
-40.67444876783398
-42.236972610055695
-43.79949645227741
-43.40886549172198
-45.362020294499125
-46.826886396581976
-46.43625543602655
-48.48706797894255
-49.85427634088655
-50.53788052185855
-51.31914244296941
-51.123826962691695
-50.14724956130312
-49.46364538033112
-49.56130312046998
-47.60814831769284
-46.14328221560998
-41.651026169222554
-37.84237430380713
-38.72129396505684
-33.74074921797513
-30.029755092698558
-30.811017013809415
-23.974975204089418
-18.799114976729992
-14.209201190203707
-9.521629663538567
-10.498207064927138
-5.517662317845426
-1.9043259327077133
-2.68558785381857
2.197299153124285
5.810635538261997
7.861448081177996
10.302891584649425
9.71694514381628
12.74433508812085
14.892805371175708
14.404516670481422
16.45532921339742
17.920195315480278
19.48271915770199
21.045242999923705
20.654612039368278
20.752269779507134
20.752269779507134
20.752269779507134
19.775692378118563
18.994430457007706
17.236591134508277
15.771725032425422
16.064698252841993
13.13496604867628
10.888838025482567
11.377126726176853
8.44739452201114
6.201266498817426
2.8809033340962844
-0.04882887006942855
0.537117570763714
-3.36919203479057
-6.298924238956283
-5.615320057984283
-8.642710002288853
-10.888838025482567
-13.232623788815136
-15.576409552147707
-14.990463111314565
-18.017853055619135
-20.16632333867399
-19.678034637979707
-22.705424582284277
-24.853894865339132
-26.318760967421987
-27.881284809643702
-27.49065384908827
-30.420386053253985
-32.6665140764477
-32.178225375753414
-35.10795757991913
-37.256427862973986
-38.72129396505684
-40.28381780727855
-39.893186846723125
-42.822919050888835
-45.069047074082555
-44.580758373388264
-47.51049057755398
-49.658960860608836
-51.123826962691695
-52.6863508049134
-52.295719844357976
-54.24887464713512
-55.713740749217976
-55.420767528801406
-57.37392233157855
-58.8387884336614
-60.401312275883114
-61.86617837796597
-61.5732051575494
-62.54978255893797
-63.233386739909974
-63.03807125963226
-64.01464866102083
-64.79591058213168
-64.60059510185397
-64.60059510185397
-64.60059510185397
-64.50293736171511
-64.50293736171511
-64.50293736171511
-62.54978255893797
-61.08491645685512
-59.42473487449455
-57.86221103227283
-58.25284199282826
-54.346532387273975
-51.31914244296941
-52.002746623941405
-47.0222018768597
-43.311207751583126
-39.40489814602884
-35.49858854047456
-36.27985046158541
-30.420386053253985
-25.92813000686656
-26.90470740825513
-21.92416266117342
-18.310826276035705
-15.283436331731137
-12.060730907148852
-12.84199282825971
-10.693522545204852
-9.228656443121995
-9.619287403677424
-10.498207064927138
-11.181811245899137
-11.963073167009995
-12.74433508812085
-12.646677347981994
-12.646677347981994
-12.646677347981994
-12.646677347981994
-11.670099946593423
-10.888838025482567
-9.130998702983138
-7.666132600900283
-7.959105821316854
-4.052796215762569
-1.1230640115968566
-1.8066681925688564
0.14648661020828566
1.6113527122911422
0.34180209048599985
-0.24414435034714274
-0.04882887006942855
-2.9785610742351416
-5.224689097428855
-4.736400396734569
-7.666132600900283
-9.912260624093996
-11.279468986037996
-12.84199282825971
-12.549019607843137
-15.47875181200885
-17.627222095063708
-17.13893339436942
-19.18974593728542
-20.654612039368278
-22.21713588158999
-23.779659723811704
-23.389028763256274
-24.4632639047837
-25.146868085755703
-24.95155260547799
-26.90470740825513
-28.369573510337986
-28.076600289921416
-28.076600289921416
-28.076600289921416
-29.053177691309987
-29.736781872281988
-29.63912413214313
-29.63912413214313
-29.63912413214313
-30.518043793392845
-31.2993057145037
-31.103990234225986
-31.103990234225986
-31.103990234225986
-31.103990234225986
-32.08056763561456
-32.764171816586554
-33.545433737697415
-34.32669565880827
-34.131380178530556
-35.10795757991913
-35.889219501029984
-35.69390402075227
-36.67048142214084
-37.35408560311284
-37.256427862973986
-37.256427862973986
-37.256427862973986
-36.27985046158541
-35.49858854047456
-35.69390402075227
-34.61966887922484
-33.93606469825284
-30.22507057297627
-27.1976806286717
-27.881284809643702
-22.998397802700847
-19.287403677424276
-20.068665598535134
-13.232623788815136
-8.05676356145571
-2.490272373540856
2.8809033340962844
1.6113527122911422
8.545052262149996
13.720912489509422
12.549019607843137
19.48271915770199
24.65857938506142
29.2484931715877
33.93606469825284
32.86182955672541
37.84237430380713
41.5533684290837
40.67444876783398
44.67841611352712
47.60814831769284
49.75661860074769
52.10040436408026
51.61211566338598
52.6863508049134
53.36995498588541
53.17463950560769
54.15121690699626
54.83482108796826
53.760585946440834
52.97932402532997
53.17463950560769
52.10040436408026
51.416800183108265
51.51445792324712
50.53788052185855
49.75661860074769
47.0222018768597
44.77607385366598
45.26436255436027
42.236972610055695
40.08850232700084
40.57679102769512
37.549401083390556
35.303273060196844
32.95948729686427
30.615701533531702
31.103990234225986
28.174258030060273
25.92813000686656
26.416418707560844
23.389028763256274
21.24055848020142
19.775692378118563
18.21316853589685
18.506141756313422
16.55298695353628
15.088120851453422
15.381094071869994
14.306858930342566
13.623254749370565
12.84199282825971
12.060730907148852
12.256046387426567
12.158388647287708
12.158388647287708
12.158388647287708
12.158388647287708
12.158388647287708
10.205233844510566
8.74036774242771
9.130998702983138
7.080186160067139
5.615320057984283
5.908293278400855
2.9785610742351416
0.8300907911802854
-1.513694972152285
-3.7598229953459983
-3.2715342946517127
-6.298924238956283
-8.44739452201114
-7.959105821316854
-10.986495765621424
-13.13496604867628
-13.623254749370565
-14.404516670481422
-14.209201190203707
-14.306858930342566
-14.306858930342566
-14.306858930342566
-14.306858930342566
-14.306858930342566
-12.353704127565424
-10.888838025482567
-11.181811245899137
-8.252079041733426
-6.005951018539712
-6.494239719233997
-2.5879301136797133
0.24414435034714274
3.36919203479057
6.494239719233997
5.810635538261997
11.670099946593423
16.16235599298085
15.185778591592278
20.16632333867399
23.779659723811704
27.783627069504846
31.592278934920273
30.71335927367056
35.69390402075227
39.40489814602884
38.525978484779124
43.50652323186084
47.11985961699855
50.14724956130312
53.27229724574655
52.588693064774546
51.709773403524835
50.928511482413974
51.123826962691695
47.21751735713741
44.28778515297169
40.08850232700084
36.27985046158541
37.06111238269627
34.0337224383917
31.787594415197987
32.27588311589227
31.201647974364842
30.518043793392845
31.592278934920273
32.27588311589227
32.178225375753414
34.0337224383917
35.49858854047456
35.20561532005799
38.1353475242237
40.28381780727855
37.94003204394598
36.57282368200198
36.86579690241855
32.95948729686427
29.9320973525597
30.615701533531702
26.61173418783856
23.682001983672848
20.55695429922942
17.43190661478599
18.11551079575799
15.088120851453422
12.84199282825971
13.330281528953995
10.400549324788281
8.154421301594567
5.810635538261997
3.466849774929427
3.9551384756237127
1.9043259327077133
0.43945983062485694
0.8300907911802854
-1.1230640115968566
-2.5879301136797133
-4.150453955901427
-5.71297779812314
-5.322346837567712
-7.373159380483711
-8.838025482566568
-8.44739452201114
-9.521629663538567
-10.205233844510566
-10.986495765621424
-11.767757686732281
-11.572442206454566
-12.646677347981994
-13.330281528953995
-13.13496604867628
-15.088120851453422
-16.55298695353628
-17.236591134508277
-18.017853055619135
-17.82253757534142
-18.799114976729992
-19.58037689784085
-19.385061417563133
-20.361638818951704
-21.045242999923705
-20.947585259784848
-20.947585259784848
-20.947585259784848
-19.971007858396277
-19.18974593728542
-19.385061417563133
-16.45532921339742
-14.209201190203707
-10.888838025482567
-7.861448081177996
-8.545052262149996
-3.5645075150682843
0.04882887006942855
-0.7324330510414282
5.127031357289998
9.521629663538567
13.330281528953995
17.236591134508277
16.357671473258563
20.361638818951704
23.291371023117417
22.60776684214542
27.49065384908827
31.201647974364842
33.252460517280845
35.596246280613414
35.10795757991913
37.06111238269627
38.525978484779124
38.23300526436255
39.20958266575113
39.893186846723125
40.67444876783398
41.45571068894484
41.26039520866713
42.236972610055695
43.018234531166556
42.822919050888835
41.84634164950027
41.16273746852827
40.28381780727855
39.5025558861677
39.69787136644541
37.74471656366827
36.27985046158541
36.57282368200198
34.61966887922484
33.05714503700313
30.518043793392845
28.27191577019913
28.760204470893417
25.732814526588847
23.58434424353399
23.974975204089418
20.068665598535134
17.13893339436942
14.892805371175708
12.549019607843137
13.037308308537423
10.10757610437171
7.861448081177996
8.349736781872283
5.420004577706569
3.1738765545128556
0.8300907911802854
-1.416037232013428
-0.9277485313191425
-3.8574807354848555
-6.103608758678568
-5.615320057984283
-7.666132600900283
-9.033340962844282
-11.572442206454566
-13.916227969787137
-13.427939269092851
-15.381094071869994
-16.84596017395285
-16.55298695353628
-18.506141756313422
-19.971007858396277
-21.533531700617992
-23.096055542839704
-22.705424582284277
-23.779659723811704
-24.4632639047837
-24.365606164644845
-26.22110322728313
-27.68596932936599
-28.369573510337986
-29.150835431448844
-28.95551995117113
-29.9320973525597
-30.71335927367056
-30.518043793392845
-31.494621194781413
-32.178225375753414
-32.95948729686427
-33.74074921797513
-33.545433737697415
-33.64309147783627
-33.545433737697415
-33.545433737697415
-33.545433737697415
-33.545433737697415
-31.592278934920273
-30.127412832837415
-30.420386053253985
-26.514076447699704
-23.58434424353399
-24.267948424505988
-19.287403677424276
-15.674067292286564
-11.670099946593423
-7.763790341039139
-8.642710002288853
-3.662165255207141
0.04882887006942855
-0.8300907911802854
4.052796215762569
7.763790341039139
11.670099946593423
15.576409552147707
14.697489890897993
18.701457236591136
21.63118944075685
20.947585259784848
22.998397802700847
24.4632639047837
26.025787747005417
27.588311589227132
27.1976806286717
26.318760967421987
25.537499046311133
25.732814526588847
21.826504921034562
18.89677271686885
14.795147631036851
10.888838025482567
11.767757686732281
9.71694514381628
8.252079041733426
8.545052262149996
6.591897459372854
5.127031357289998
6.39658197909514
7.080186160067139
6.884870679789426
8.838025482566568
10.302891584649425
10.009918364232853
11.963073167009995
13.427939269092851
13.037308308537423
13.13496604867628
13.13496604867628
10.302891584649425
8.05676356145571
8.545052262149996
6.494239719233997
5.0293736171511405
2.490272373540856
0.24414435034714274
0.7324330510414282
-1.2207217517357138
-2.68558785381857
-2.392614633401999
-4.345769436179141
-5.810635538261997
-8.349736781872283
-10.595864805065995
-10.10757610437171
-12.158388647287708
-13.623254749370565
-13.232623788815136
-16.16235599298085
-18.40848401617456
-19.775692378118563
-21.43587396047913
-21.045242999923705
-23.974975204089418
-26.22110322728313
-25.63515678644999
-27.68596932936599
-29.150835431448844
-31.68993667505913
-33.93606469825284
-33.44777599755856
-35.49858854047456
-36.86579690241855
-36.57282368200198
-37.549401083390556
-38.33066300450141
-39.11192492561227
-39.893186846723125
-39.69787136644541
-39.69787136644541
-39.69787136644541
-39.69787136644541
-38.72129396505684
-37.94003204394598
-35.20561532005799
-32.95948729686427
-33.44777599755856
-29.541466392004274
-26.514076447699704
-27.1976806286717
-22.21713588158999
-18.60379949645228
-12.74433508812085
-7.275501640344854
-8.545052262149996
-0.6347753109025711
5.224689097428855
3.8574807354848555
12.74433508812085
19.385061417563133
24.560921644922562
30.127412832837415
28.857862211032273
34.81498435950255
39.20958266575113
38.23300526436255
43.21355001144427
46.826886396581976
48.877698939497975
51.31914244296941
50.73319600213626
52.78400854505226
54.15121690699626
53.85824368657969
53.95590142671855
53.85824368657969
52.002746623941405
50.44022278171969
50.73319600213626
48.78004119935912
47.31517509727627
47.60814831769284
44.67841611352712
42.43228809033341
39.99084458686198
37.64705882352941
38.23300526436255
35.20561532005799
32.95948729686427
33.44777599755856
30.518043793392845
28.27191577019913
26.807049668116274
25.24452582589456
25.63515678644999
22.60776684214542
20.45929655909056
20.947585259784848
18.89677271686885
17.43190661478599
15.869382772564279
14.306858930342566
14.599832150759136
11.670099946593423
9.42397192339971
9.912260624093996
7.861448081177996
6.39658197909514
3.8574807354848555
1.6113527122911422
2.0996414129854277
-0.7324330510414282
-2.9785610742351416
-2.490272373540856
-5.420004577706569
-7.666132600900283
-10.009918364232853
-12.353704127565424
-11.865415426871138
-13.81857022964828
-15.283436331731137
-14.990463111314565
-16.943617914091707
-18.40848401617456
-19.971007858396277
-21.533531700617992
-21.24055848020142
-23.19371328297856
-24.65857938506142
-24.267948424505988
-25.342183566033416
-26.025787747005417
-27.783627069504846
-29.2484931715877
-28.95551995117113
-29.9320973525597
-30.71335927367056
-30.518043793392845
-30.518043793392845
-30.518043793392845
-28.564888990615703
-27.100022888532845
-27.392996108949415
-22.60776684214542
-18.89677271686885
-19.678034637979707
-13.81857022964828
-9.326314183260854
-2.68558785381857
3.36919203479057
2.0019836728465705
10.888838025482567
17.52956435492485
16.064698252841993
24.95155260547799
31.592278934920273
37.74471656366827
43.99481193255512
42.529945830472265
49.56130312046998
54.639505607690545
53.467612726024264
57.56923781185626
60.401312275883114
61.67086289768826
63.33104448004883
62.9404135194934
64.89356832227054
66.3584344243534
65.96780346379796
65.08888380254825
64.3076218814374
63.526359960326545
62.64744029907683
62.84275577935454
58.936446173800256
56.006713969634546
56.59266041046769
48.877698939497975
42.92057679102769
37.549401083390556
31.9829098954757
33.252460517280845
29.150835431448844
26.22110322728313
26.807049668116274
24.756237125200276
23.291371023117417
23.682001983672848
23.58434424353399
23.58434424353399
25.439841306172273
26.90470740825513
26.61173418783856
29.541466392004274
31.787594415197987
30.322728313115128
29.63912413214313
29.736781872281988
25.92813000686656
22.90074006256199
23.58434424353399
20.55695429922942
18.40848401617456
15.967040512703136
13.623254749370565
14.209201190203707
10.205233844510566
7.275501640344854
7.959105821316854
4.931715877012284
2.68558785381857
-0.537117570763714
-3.5645075150682843
-2.8809033340962844
-5.908293278400855
-8.154421301594567
-7.666132600900283
-10.595864805065995
-12.74433508812085
-15.185778591592278
-17.52956435492485
-16.943617914091707
-19.971007858396277
-22.119478141451133
-21.63118944075685
-23.682001983672848
-25.146868085755703
-26.709391927977418
-28.27191577019913
-27.881284809643702
-29.834439612420844
-31.2993057145037
-31.00633249408713
-31.00633249408713
-31.00633249408713
-31.00633249408713
-31.00633249408713
-31.00633249408713
-28.076600289921416
-25.92813000686656
-26.318760967421987
-22.412451361867703
-19.48271915770199
-15.381094071869994
-11.47478446631571
-12.353704127565424
-5.420004577706569
-0.34180209048599985
-1.416037232013428
5.420004577706569
10.498207064927138
15.088120851453422
19.775692378118563
18.799114976729992
23.779659723811704
27.392996108949415
26.61173418783856
31.494621194781413
35.20561532005799
36.27985046158541
37.94003204394598
37.549401083390556
40.479133287556266
42.72526131074998
42.13931486991684
43.21355001144427
43.89715419241627
44.67841611352712
45.45967803463798
45.26436255436027
44.38544289311055
43.604180971999696
43.79949645227741
41.74868390936141
40.28381780727855
37.74471656366827
35.4009308003357
35.98687724116884
31.00633249408713
27.392996108949415
28.174258030060273
23.19371328297856
19.48271915770199
14.599832150759136
9.912260624093996
10.986495765621424
6.005951018539712
2.2949568932631417
3.1738765545128556
-2.68558785381857
-7.080186160067139
-10.888838025482567
-14.795147631036851
-13.916227969787137
-17.920195315480278
-20.84992751964599
-20.16632333867399
-23.19371328297856
-25.439841306172273
-27.783627069504846
-30.127412832837415
-29.541466392004274
-32.56885633630884
-34.717326619363696
-34.22903791866941
-36.27985046158541
-37.64705882352941
-40.186160067139696
-42.529945830472265
-41.943999389639124
-43.99481193255512
-45.45967803463798
-45.069047074082555
-47.0222018768597
-48.48706797894255
-50.04959182116426
-51.61211566338598
-51.22148470283055
-52.295719844357976
-52.97932402532997
-52.78400854505226
-52.78400854505226
-52.78400854505226
-53.760585946440834
-54.44419012741283
-54.24887464713512
-54.346532387273975
-54.24887464713512
-54.24887464713512
-54.24887464713512
-54.24887464713512
-53.27229724574655
-52.49103532463569
-52.6863508049134
-50.73319600213626
-49.17067215991455
-49.46364538033112
-46.533913176165406
-44.28778515297169
-40.96742198825055
-37.94003204394598
-38.525978484779124
-33.64309147783627
-29.9320973525597
-30.71335927367056
-25.830472266727703
-22.119478141451133
-17.13893339436942
-12.549019607843137
-13.525597009231708
-8.545052262149996
-4.931715877012284
-5.71297779812314
-1.7090104524299992
1.1230640115968566
4.248111696040284
7.373159380483711
6.6895551995117115
10.693522545204852
13.623254749370565
12.939650568398566
14.990463111314565
16.45532921339742
18.017853055619135
19.58037689784085
19.18974593728542
20.263981078812847
20.947585259784848
20.84992751964599
19.87335011825742
19.092088197146563
18.310826276035705
17.52956435492485
17.724879835202564
13.81857022964828
10.888838025482567
11.572442206454566
3.7598229953459983
-2.0996414129854277
-7.470817120622568
-12.939650568398566
-11.670099946593423
-16.748302433813993
-20.361638818951704
-19.58037689784085
-20.654612039368278
-21.338216220340275
-20.263981078812847
-19.58037689784085
-19.678034637979707
-16.748302433813993
-14.599832150759136
-15.088120851453422
-12.060730907148852
-9.912260624093996
-9.42397192339971
-8.545052262149996
-8.74036774242771
-10.595864805065995
-12.060730907148852
-11.767757686732281
-13.720912489509422
-15.185778591592278
-17.724879835202564
-20.068665598535134
-19.48271915770199
-21.533531700617992
-22.998397802700847
-22.60776684214542
-25.537499046311133
-27.783627069504846
-29.150835431448844
-30.811017013809415
-30.420386053253985
-33.3501182574197
-35.49858854047456
-35.010299839780274
-37.06111238269627
-38.525978484779124
-40.08850232700084
-41.651026169222554
-41.26039520866713
-42.236972610055695
-43.018234531166556
-42.822919050888835
-44.77607385366598
-46.240939955748836
-45.85030899519341
-45.947966735332265
-45.85030899519341
-46.826886396581976
-47.60814831769284
-47.412832837415124
-46.43625543602655
-45.654993514915695
-43.89715419241627
-42.43228809033341
-42.72526131074998
-38.818951705195694
-35.889219501029984
-36.475165941863125
-30.615701533531702
-26.22110322728313
-20.45929655909056
-15.088120851453422
-16.260013733119706
-10.205233844510566
-5.810635538261997
-6.787212939650568
-0.8300907911802854
3.466849774929427
6.298924238956283
9.42397192339971
8.74036774242771
10.79118028534371
12.256046387426567
11.963073167009995
13.916227969787137
15.381094071869994
15.088120851453422
15.088120851453422
15.088120851453422
15.088120851453422
15.088120851453422
15.088120851453422
15.088120851453422
15.088120851453422
14.11154345006485
13.330281528953995
13.525597009231708
11.572442206454566
10.10757610437171
10.400549324788281
7.470817120622568
5.224689097428855
2.8809033340962844
0.537117570763714
1.1230640115968566
-2.783245593957427
-5.71297779812314
-5.0293736171511405
-8.05676356145571
-10.205233844510566
-12.646677347981994
-14.990463111314565
-14.404516670481422
-15.47875181200885
-16.16235599298085
-16.064698252841993
-17.041275654230564
-17.724879835202564
-18.506141756313422
-19.287403677424276
-19.092088197146563
-19.18974593728542
-19.18974593728542
-19.18974593728542
-19.18974593728542
-19.092088197146563
-19.092088197146563
-19.092088197146563
-19.092088197146563
-19.092088197146563
-19.092088197146563
-19.092088197146563
-20.068665598535134
-20.752269779507134
-22.510109102006563
-24.072632944228275
-23.682001983672848
-24.756237125200276
-25.439841306172273
-25.24452582589456
-28.174258030060273
-30.322728313115128
-31.787594415197987
-33.3501182574197
-32.95948729686427
-35.010299839780274
-36.475165941863125
-36.0845349813077
-38.03768978408484
-39.5025558861677
-40.08850232700084
-40.96742198825055
-40.772106507972836
-41.74868390936141
-42.43228809033341
-42.236972610055695
-42.33463035019455
-42.236972610055695
-42.236972610055695
-42.236972610055695
-42.236972610055695
-40.28381780727855
-38.818951705195694
-39.11192492561227
-35.20561532005799
-32.27588311589227
-28.174258030060273
-24.267948424505988
-25.146868085755703
-19.18974593728542
-14.795147631036851
-15.771725032425422
-8.838025482566568
-3.662165255207141
0.8300907911802854
5.517662317845426
4.443427176317998
9.42397192339971
13.13496604867628
12.353704127565424
16.260013733119706
19.18974593728542
21.43587396047913
23.779659723811704
23.291371023117417
25.24452582589456
26.709391927977418
26.416418707560844
27.392996108949415
28.174258030060273
27.97894254978256
27.97894254978256
27.97894254978256
27.97894254978256
27.97894254978256
27.97894254978256
27.002365148393988
26.22110322728313
25.439841306172273
24.65857938506142
24.853894865339132
20.947585259784848
18.017853055619135
18.60379949645228
12.74433508812085
8.349736781872283
2.5879301136797133
-2.68558785381857
-1.513694972152285
-5.615320057984283
-8.44739452201114
-7.861448081177996
-8.935683222705425
-9.619287403677424
-8.545052262149996
-7.763790341039139
-7.959105821316854
-4.150453955901427
-1.1230640115968566
-1.8066681925688564
2.0996414129854277
5.0293736171511405
5.322346837567712
6.201266498817426
6.005951018539712
3.1738765545128556
0.9277485313191425
1.416037232013428
-0.537117570763714
-2.0019836728465705
-2.5879301136797133
-3.36919203479057
-3.1738765545128556
-4.248111696040284
-4.931715877012284
-4.736400396734569
-5.810635538261997
-6.494239719233997
-7.275501640344854
-8.05676356145571
-7.861448081177996
-8.838025482566568
-9.619287403677424
-9.42397192339971
-10.400549324788281
-11.181811245899137
-11.963073167009995
-12.74433508812085
-12.549019607843137
-12.549019607843137
-12.549019607843137
-12.549019607843137
-10.693522545204852
-9.130998702983138
-6.591897459372854
-4.345769436179141
-4.834058136873426
0.04882887006942855
3.662165255207141
2.783245593957427
8.74036774242771
13.13496604867628
17.920195315480278
22.510109102006563
21.533531700617992
27.49065384908827
31.885252155336843
30.908674753948272
36.768139162279695
41.16273746852827
44.97138933394369
48.877698939497975
47.998779278248264
52.002746623941405
54.932478828107115
57.08094911116198
59.42473487449455
58.936446173800256
61.86617837796597
64.11230640115969
63.526359960326545
66.55374990463112
68.70222018768597
68.21393148699168
69.19050888838025
69.87411306935225
69.77645532921339
69.77645532921339
69.67879758907453
68.70222018768597
68.01861600671397
68.11627374685283
65.18654154268711
62.9404135194934
59.62005035477226
56.49500267032883
57.178606851300835
52.19806210421912
48.584725719081405
44.580758373388264
40.67444876783398
41.5533684290837
37.4517433432517
34.52201113908598
35.20561532005799
31.201647974364842
28.27191577019913
25.146868085755703
22.021820401312276
22.705424582284277
20.55695429922942
19.092088197146563
19.48271915770199
17.43190661478599
15.967040512703136
15.381094071869994
14.50217441062028
14.697489890897993
12.74433508812085
11.279468986037996
11.572442206454566
10.595864805065995
9.81460288395514
8.05676356145571
6.591897459372854
6.884870679789426
4.931715877012284
3.466849774929427
3.7598229953459983
1.8066681925688564
0.34180209048599985
-1.1230640115968566
-2.68558785381857
-2.392614633401999
-4.345769436179141
-5.810635538261997
-5.517662317845426
-7.470817120622568
-8.935683222705425
-9.619287403677424
-10.400549324788281
-10.205233844510566
-11.181811245899137
-11.963073167009995
-11.767757686732281
-11.767757686732281
-11.767757686732281
-11.767757686732281
-11.767757686732281
-11.767757686732281
-10.79118028534371
-10.10757610437171
-10.205233844510566
-9.228656443121995
-8.44739452201114
-6.787212939650568
-5.224689097428855
-5.517662317845426
-2.5879301136797133
-0.43945983062485694
-0.9277485313191425
2.0019836728465705
4.150453955901427
6.591897459372854
8.935683222705425
8.349736781872283
12.256046387426567
15.283436331731137
14.599832150759136
17.627222095063708
19.775692378118563
22.119478141451133
24.4632639047837
23.974975204089418
26.90470740825513
29.150835431448844
28.66254673075456
30.615701533531702
32.08056763561456
33.64309147783627
35.20561532005799
34.81498435950255
34.91264209964141
34.91264209964141
34.91264209964141
34.81498435950255
34.81498435950255
33.838406958113985
33.15480277714199
33.252460517280845
31.2993057145037
29.834439612420844
30.127412832837415
26.22110322728313
23.291371023117417
21.045242999923705
18.701457236591136
19.18974593728542
