ppg
0.8300907911802854
-0.6347753109025711
-0.24414435034714274
-2.2949568932631417
-3.7598229953459983
-3.36919203479057
-4.443427176317998
-5.127031357289998
-6.884870679789426
-8.44739452201114
-8.05676356145571
-9.130998702983138
-9.81460288395514
-9.619287403677424
-10.595864805065995
-11.377126726176853
-12.158388647287708
-12.939650568398566
-12.74433508812085
-12.84199282825971
-12.74433508812085
-12.74433508812085
-13.720912489509422
-14.50217441062028
-15.283436331731137
-16.064698252841993
-15.869382772564279
-15.869382772564279
-15.869382772564279
-15.869382772564279
-17.724879835202564
-19.287403677424276
-19.87335011825742
-20.654612039368278
-20.45929655909056
-20.55695429922942
-20.55695429922942
-20.45929655909056
-20.45929655909056
-20.45929655909056
-20.45929655909056
-20.45929655909056
-20.45929655909056
-20.45929655909056
-20.45929655909056
-20.45929655909056
-20.45929655909056
-20.45929655909056
-20.45929655909056
-20.45929655909056
-20.45929655909056
-20.45929655909056
-20.361638818951704
-20.361638818951704
-20.361638818951704
-20.361638818951704
-19.385061417563133
-18.701457236591136
-18.799114976729992
-17.82253757534142
-17.13893339436942
-17.236591134508277
-15.283436331731137
-13.81857022964828
-11.279468986037996
-8.935683222705425
-9.521629663538567
-5.517662317845426
-2.5879301136797133
-3.2715342946517127
-0.24414435034714274
1.8066681925688564
4.248111696040284
6.591897459372854
6.005951018539712
9.033340962844282
11.181811245899137
10.693522545204852
12.74433508812085
14.209201190203707
15.771725032425422
17.334248874647134
16.943617914091707
18.017853055619135
18.701457236591136
18.506141756313422
19.58037689784085
20.263981078812847
19.18974593728542
18.40848401617456
18.60379949645228
17.627222095063708
16.84596017395285
17.041275654230564
15.088120851453422
13.525597009231708
11.963073167009995
10.400549324788281
10.79118028534371
8.74036774242771
7.275501640344854
7.666132600900283
5.615320057984283
4.150453955901427
2.5879301136797133
1.0254062714579995
1.416037232013428
-0.537117570763714
-2.0019836728465705
-1.6113527122911422
-3.662165255207141
-5.127031357289998
-5.71297779812314
-6.494239719233997
-6.39658197909514
-7.373159380483711
-8.05676356145571
-7.959105821316854
-8.935683222705425
-9.619287403677424
-10.400549324788281
-11.181811245899137
-10.986495765621424
-11.08415350576028
-11.08415350576028
-11.08415350576028
-11.08415350576028
-11.08415350576028
-11.963073167009995
-12.74433508812085
-12.549019607843137
-12.549019607843137
-12.549019607843137
-12.549019607843137
-15.47875181200885
-17.627222095063708
-22.90074006256199
-27.49065384908827
-26.416418707560844
-31.396963454642556
-35.10795757991913
-34.22903791866941
-36.27985046158541
-37.74471656366827
-37.4517433432517
-37.4517433432517
-37.4517433432517
-34.61966887922484
-32.37354085603113
-32.86182955672541
-27.002365148393988
-22.510109102006563
-17.82253757534142
-13.13496604867628
-14.11154345006485
-10.10757610437171
-7.177843900205997
-7.763790341039139
-5.71297779812314
-4.345769436179141
-0.8300907911802854
2.0996414129854277
1.416037232013428
5.420004577706569
8.349736781872283
7.666132600900283
11.670099946593423
14.599832150759136
16.84596017395285
19.18974593728542
18.60379949645228
20.654612039368278
22.119478141451133
21.826504921034562
23.779659723811704
25.24452582589456
25.830472266727703
26.61173418783856
26.514076447699704
27.49065384908827
28.174258030060273
27.97894254978256
28.95551995117113
29.736781872281988
30.518043793392845
31.2993057145037
31.103990234225986
31.103990234225986
31.103990234225986
31.103990234225986
30.127412832837415
29.346150911726557
28.564888990615703
27.783627069504846
27.97894254978256
26.025787747005417
24.4632639047837
24.853894865339132
22.803082322423133
21.338216220340275
19.775692378118563
18.21316853589685
18.506141756313422
16.55298695353628
15.088120851453422
15.381094071869994
13.427939269092851
11.963073167009995
10.400549324788281
8.838025482566568
9.130998702983138
7.177843900205997
5.71297779812314
6.005951018539712
4.052796215762569
2.5879301136797133
0.04882887006942855
-2.197299153124285
-1.7090104524299992
-3.662165255207141
-5.127031357289998
-4.834058136873426
-6.787212939650568
-8.252079041733426
-8.935683222705425
-9.71694514381628
-9.521629663538567
-10.498207064927138
-11.279468986037996
-11.08415350576028
-12.060730907148852
-12.84199282825971
-13.623254749370565
-14.404516670481422
-14.209201190203707
-16.16235599298085
-17.627222095063708
-17.236591134508277
-18.310826276035705
-18.994430457007706
-19.775692378118563
-20.55695429922942
-20.361638818951704
-20.45929655909056
-20.45929655909056
-20.45929655909056
-20.361638818951704
-20.361638818951704
-19.48271915770199
-18.701457236591136
-18.89677271686885
-16.943617914091707
-15.381094071869994
-15.771725032425422
-12.84199282825971
-10.595864805065995
-8.252079041733426
-5.908293278400855
-6.39658197909514
-2.490272373540856
0.43945983062485694
-0.14648661020828566
3.7598229953459983
6.6895551995117115
8.838025482566568
11.181811245899137
10.693522545204852
13.720912489509422
15.869382772564279
15.381094071869994
17.43190661478599
18.799114976729992
20.45929655909056
22.021820401312276
21.63118944075685
22.60776684214542
23.389028763256274
23.19371328297856
23.19371328297856
23.19371328297856
23.19371328297856
23.19371328297856
23.19371328297856
22.21713588158999
21.43587396047913
21.63118944075685
20.654612039368278
19.87335011825742
18.11551079575799
16.650644693675137
16.943617914091707
14.990463111314565
13.525597009231708
13.81857022964828
11.865415426871138
10.400549324788281
8.74036774242771
7.177843900205997
7.568474860761425
6.494239719233997
5.810635538261997
5.908293278400855
3.9551384756237127
2.490272373540856
1.9043259327077133
1.1230640115968566
1.2207217517357138
0.24414435034714274
-0.34180209048599985
-0.24414435034714274
-1.2207217517357138
-1.9043259327077133
-2.68558785381857
-3.466849774929427
-3.36919203479057
-4.345769436179141
-5.0293736171511405
-4.931715877012284
-6.787212939650568
-8.349736781872283
-8.935683222705425
-9.71694514381628
-9.521629663538567
-11.47478446631571
-12.939650568398566
-12.646677347981994
-13.623254749370565
-14.404516670481422
-14.209201190203707
-14.209201190203707
-14.209201190203707
-14.209201190203707
-14.209201190203707
-14.209201190203707
-16.16235599298085
-17.627222095063708
-20.16632333867399
-22.412451361867703
-21.92416266117342
-25.830472266727703
-28.760204470893417
-28.076600289921416
-29.2484931715877
-29.9320973525597
-29.736781872281988
-29.736781872281988
-29.736781872281988
-26.90470740825513
-24.65857938506142
-25.146868085755703
-20.263981078812847
-16.55298695353628
-12.549019607843137
-8.642710002288853
-9.521629663538567
-4.541084916456855
-0.9277485313191425
-1.7090104524299992
1.2207217517357138
3.36919203479057
6.787212939650568
9.81460288395514
9.130998702983138
12.158388647287708
14.306858930342566
13.81857022964828
17.724879835202564
20.654612039368278
21.92416266117342
23.58434424353399
23.19371328297856
25.146868085755703
26.61173418783856
26.318760967421987
26.416418707560844
26.318760967421987
26.318760967421987
26.318760967421987
26.318760967421987
26.318760967421987
26.318760967421987
26.318760967421987
25.342183566033416
24.560921644922562
23.779659723811704
22.998397802700847
23.19371328297856
21.24055848020142
19.775692378118563
20.068665598535134
18.11551079575799
16.55298695353628
14.990463111314565
13.427939269092851
13.81857022964828
11.767757686732281
10.302891584649425
10.693522545204852
8.642710002288853
7.177843900205997
6.591897459372854
5.71297779812314
5.908293278400855
3.9551384756237127
2.490272373540856
2.783245593957427
1.8066681925688564
1.0254062714579995
-0.6347753109025711
-2.0996414129854277
-1.8066681925688564
-2.783245593957427
-3.5645075150682843
-3.36919203479057
-5.322346837567712
-6.787212939650568
-7.373159380483711
-8.252079041733426
-8.05676356145571
-9.033340962844282
-9.71694514381628
-9.619287403677424
-9.619287403677424
-9.619287403677424
-9.619287403677424
-9.619287403677424
-9.619287403677424
-8.642710002288853
-7.861448081177996
-8.05676356145571
-7.080186160067139
-6.298924238956283
-4.541084916456855
-3.076218814373999
-3.36919203479057
-2.392614633401999
-1.6113527122911422
-1.8066681925688564
-0.8300907911802854
-0.04882887006942855
0.6347753109025711
1.416037232013428
1.2207217517357138
1.2207217517357138
1.2207217517357138
1.2207217517357138
0.34180209048599985
-0.34180209048599985
0.6347753109025711
1.416037232013428
1.2207217517357138
2.197299153124285
2.9785610742351416
2.783245593957427
4.736400396734569
6.201266498817426
8.74036774242771
10.986495765621424
10.498207064927138
13.525597009231708
15.674067292286564
15.185778591592278
17.236591134508277
18.701457236591136
19.287403677424276
20.068665598535134
19.87335011825742
18.994430457007706
18.21316853589685
18.40848401617456
16.45532921339742
14.990463111314565
12.45136186770428
10.10757610437171
10.595864805065995
8.642710002288853
7.177843900205997
7.470817120622568
4.541084916456855
2.2949568932631417
0.9277485313191425
-0.6347753109025711
-0.24414435034714274
-2.197299153124285
-3.662165255207141
-3.36919203479057
-5.322346837567712
-6.787212939650568
-7.470817120622568
-8.252079041733426
-8.05676356145571
-10.009918364232853
-11.47478446631571
-11.181811245899137
-12.158388647287708
-12.939650568398566
-13.720912489509422
-14.50217441062028
-14.306858930342566
-14.306858930342566
-14.306858930342566
-14.306858930342566
-15.283436331731137
-15.967040512703136
-15.869382772564279
-15.869382772564279
-15.869382772564279
-15.869382772564279
-15.869382772564279
-15.869382772564279
-16.84596017395285
-17.52956435492485
-17.334248874647134
-17.43190661478599
-17.334248874647134
-18.310826276035705
-19.092088197146563
-18.89677271686885
-18.89677271686885
-18.89677271686885
-18.89677271686885
-18.89677271686885
-18.89677271686885
-17.920195315480278
-17.236591134508277
-17.334248874647134
-17.334248874647134
-17.334248874647134
-17.334248874647134
-17.334248874647134
-17.334248874647134
-17.334248874647134
-17.236591134508277
-17.236591134508277
-20.16632333867399
-22.314793621728846
-26.61173418783856
-30.420386053253985
-29.541466392004274
-33.545433737697415
-36.475165941863125
-35.79156176089113
-36.96345464255741
-37.64705882352941
-33.64309147783627
-30.71335927367056
-31.2993057145037
-25.439841306172273
-21.045242999923705
-22.021820401312276
-11.279468986037996
-3.1738765545128556
4.541084916456855
12.353704127565424
10.595864805065995
17.627222095063708
22.803082322423133
21.63118944075685
26.61173418783856
30.322728313115128
32.37354085603113
34.717326619363696
34.131380178530556
35.20561532005799
35.98687724116884
35.79156176089113
36.768139162279695
37.4517433432517
36.37750820172427
35.596246280613414
35.79156176089113
34.81498435950255
34.0337224383917
34.22903791866941
33.15480277714199
32.471198596169984
31.592278934920273
30.811017013809415
31.00633249408713
29.053177691309987
27.588311589227132
27.881284809643702
26.807049668116274
26.123445487144274
25.342183566033416
24.560921644922562
24.65857938506142
22.705424582284277
21.24055848020142
21.533531700617992
20.55695429922942
19.775692378118563
18.017853055619135
16.55298695353628
16.84596017395285
13.916227969787137
11.670099946593423
12.158388647287708
10.205233844510566
8.74036774242771
7.080186160067139
5.517662317845426
5.908293278400855
3.9551384756237127
2.392614633401999
2.783245593957427
1.7090104524299992
1.0254062714579995
0.24414435034714274
-0.43945983062485694
-0.34180209048599985
-0.34180209048599985
-0.34180209048599985
-0.34180209048599985
-1.3183794918745708
-2.0019836728465705
-2.783245593957427
-3.5645075150682843
-3.36919203479057
-4.443427176317998
-5.127031357289998
-4.931715877012284
-6.005951018539712
-6.6895551995117115
-7.470817120622568
-8.252079041733426
-8.05676356145571
-8.154421301594567
-8.154421301594567
-8.154421301594567
-8.154421301594567
-8.05676356145571
-8.05676356145571
-8.05676356145571
-8.05676356145571
-7.177843900205997
-6.39658197909514
-6.591897459372854
-5.517662317845426
-4.834058136873426
-3.076218814373999
-1.513694972152285
-1.9043259327077133
0.04882887006942855
1.416037232013428
1.1230640115968566
3.076218814373999
4.541084916456855
7.080186160067139
9.42397192339971
8.935683222705425
12.84199282825971
15.771725032425422
15.088120851453422
18.11551079575799
20.263981078812847
23.58434424353399
26.709391927977418
26.025787747005417
29.053177691309987
31.201647974364842
30.71335927367056
32.764171816586554
34.131380178530556
34.81498435950255
35.596246280613414
35.4009308003357
35.4009308003357
35.4009308003357
35.4009308003357
35.4009308003357
35.4009308003357
34.424353398947126
33.64309147783627
33.838406958113985
32.764171816586554
32.08056763561456
32.178225375753414
31.201647974364842
30.518043793392845
29.63912413214313
28.857862211032273
29.053177691309987
28.076600289921416
27.295338368810558
27.49065384908827
26.416418707560844
25.732814526588847
24.95155260547799
24.17029068436713
24.267948424505988
23.291371023117417
22.510109102006563
22.705424582284277
21.728847180895706
20.947585259784848
20.16632333867399
19.385061417563133
19.58037689784085
17.627222095063708
16.16235599298085
16.45532921339742
14.404516670481422
12.939650568398566
11.377126726176853
9.81460288395514
10.205233844510566
8.154421301594567
6.6895551995117115
7.080186160067139
5.0293736171511405
3.5645075150682843
2.9785610742351416
2.0996414129854277
2.2949568932631417
0.34180209048599985
-1.0254062714579995
-0.7324330510414282
-2.68558785381857
-4.150453955901427
-6.6895551995117115
-8.935683222705425
-8.44739452201114
-10.498207064927138
-11.963073167009995
-11.572442206454566
-14.50217441062028
-16.748302433813993
-18.11551079575799
-19.775692378118563
-19.385061417563133
-22.314793621728846
-24.560921644922562
-24.072632944228275
-27.002365148393988
-29.150835431448844
-32.471198596169984
-35.596246280613414
-34.91264209964141
-36.96345464255741
-38.33066300450141
-38.03768978408484
-37.15877012283513
-36.37750820172427
-32.6665140764477
-29.736781872281988
-30.322728313115128
-23.48668650339513
-18.310826276035705
-19.48271915770199
-10.595864805065995
-3.9551384756237127
3.076218814373999
10.009918364232853
8.44739452201114
14.50217441062028
18.89677271686885
17.920195315480278
21.045242999923705
23.19371328297856
24.560921644922562
26.22110322728313
25.830472266727703
27.783627069504846
29.2484931715877
28.95551995117113
28.95551995117113
28.95551995117113
27.97894254978256
27.295338368810558
27.392996108949415
26.416418707560844
25.63515678644999
25.830472266727703
24.853894865339132
24.072632944228275
22.314793621728846
20.84992751964599
21.14290074006256
20.068665598535134
19.385061417563133
19.48271915770199
16.650644693675137
14.404516670481422
12.939650568398566
11.377126726176853
11.767757686732281
8.74036774242771
6.591897459372854
7.080186160067139
4.052796215762569
1.9043259327077133
-0.43945983062485694
-2.783245593957427
-2.197299153124285
-4.248111696040284
-5.71297779812314
-5.420004577706569
-6.39658197909514
-7.080186160067139
-8.838025482566568
-10.400549324788281
-10.009918364232853
-11.08415350576028
-11.767757686732281
-11.670099946593423
-12.646677347981994
-13.330281528953995
-14.11154345006485
-14.892805371175708
-14.697489890897993
-16.650644693675137
-18.11551079575799
-17.82253757534142
-19.775692378118563
-21.24055848020142
-22.803082322423133
-24.365606164644845
-24.072632944228275
-26.025787747005417
-27.49065384908827
-27.100022888532845
-29.150835431448844
-30.518043793392845
-31.201647974364842
-31.9829098954757
-31.787594415197987
-31.787594415197987
-31.787594415197987
-31.787594415197987
-31.787594415197987
-31.787594415197987
-31.787594415197987
-31.787594415197987
-31.787594415197987
-30.811017013809415
-30.029755092698558
-30.22507057297627
-28.27191577019913
-26.709391927977418
-25.146868085755703
-23.58434424353399
-23.974975204089418
-20.068665598535134
-17.041275654230564
-17.724879835202564
-14.697489890897993
-12.549019607843137
-9.130998702983138
-6.103608758678568
-6.787212939650568
-4.736400396734569
-3.2715342946517127
-3.5645075150682843
-1.6113527122911422
-0.14648661020828566
0.43945983062485694
1.2207217517357138
1.0254062714579995
1.1230640115968566
1.1230640115968566
1.1230640115968566
1.1230640115968566
1.1230640115968566
1.1230640115968566
1.1230640115968566
1.1230640115968566
0.14648661020828566
-0.537117570763714
-0.34180209048599985
-2.2949568932631417
-3.7598229953459983
-4.443427176317998
-5.224689097428855
-5.0293736171511405
-6.982528419928283
-8.44739452201114
-8.154421301594567
-9.130998702983138
-9.912260624093996
-10.693522545204852
-11.47478446631571
-11.279468986037996
-12.256046387426567
-12.939650568398566
-12.84199282825971
-12.84199282825971
-12.84199282825971
-12.84199282825971
-12.84199282825971
-12.84199282825971
-11.865415426871138
-11.08415350576028
-11.279468986037996
-11.279468986037996
-11.279468986037996
-11.279468986037996
-11.279468986037996
-11.279468986037996
-12.158388647287708
-12.939650568398566
-12.74433508812085
-13.720912489509422
-14.50217441062028
-15.283436331731137
-16.064698252841993
-15.869382772564279
-15.869382772564279
-15.869382772564279
-15.869382772564279
-16.84596017395285
-17.52956435492485
-17.43190661478599
-17.43190661478599
-17.43190661478599
-18.40848401617456
-19.092088197146563
-18.89677271686885
-18.994430457007706
-18.89677271686885
-18.89677271686885
-18.89677271686885
-18.89677271686885
-18.89677271686885
-18.89677271686885
-18.89677271686885
-18.89677271686885
-18.89677271686885
-18.89677271686885
-18.89677271686885
-18.89677271686885
-16.943617914091707
-15.47875181200885
-15.771725032425422
-15.674067292286564
-15.771725032425422
-17.627222095063708
-19.092088197146563
-18.799114976729992
-18.799114976729992
-18.799114976729992
-18.799114976729992
-15.967040512703136
-13.720912489509422
-9.42397192339971
-5.615320057984283
-6.494239719233997
1.3183794918745708
7.177843900205997
5.908293278400855
14.697489890897993
21.338216220340275
27.49065384908827
33.74074921797513
32.37354085603113
36.475165941863125
39.40489814602884
38.72129396505684
39.79552910658427
40.479133287556266
40.38147554741741
40.38147554741741
40.38147554741741
40.28381780727855
40.28381780727855
40.28381780727855
39.307240405889985
38.62363622491798
36.86579690241855
35.303273060196844
35.596246280613414
33.64309147783627
32.178225375753414
32.471198596169984
30.420386053253985
28.95551995117113
27.392996108949415
25.830472266727703
26.123445487144274
23.19371328297856
21.045242999923705
21.533531700617992
19.48271915770199
18.017853055619135
15.47875181200885
13.13496604867628
13.623254749370565
11.670099946593423
10.205233844510566
10.498207064927138
7.568474860761425
5.322346837567712
3.9551384756237127
2.2949568932631417
2.68558785381857
1.6113527122911422
0.9277485313191425
1.0254062714579995
-0.7324330510414282
-2.2949568932631417
-1.9043259327077133
-2.0019836728465705
-2.0019836728465705
-2.9785610742351416
-3.662165255207141
-3.5645075150682843
-3.5645075150682843
-3.5645075150682843
-4.541084916456855
-5.224689097428855
-5.0293736171511405
-6.103608758678568
-6.787212939650568
-6.591897459372854
-7.666132600900283
-8.349736781872283
-9.130998702983138
-9.912260624093996
-9.71694514381628
-10.693522545204852
-11.47478446631571
-11.279468986037996
-12.256046387426567
-13.037308308537423
-12.84199282825971
-12.84199282825971
-12.84199282825971
-13.81857022964828
-14.599832150759136
-14.404516670481422
-14.404516670481422
-14.404516670481422
-12.45136186770428
-10.986495765621424
-11.279468986037996
-9.326314183260854
-7.861448081177996
-8.154421301594567
-5.224689097428855
-3.076218814373999
0.14648661020828566
3.2715342946517127
2.5879301136797133
6.591897459372854
9.521629663538567
8.838025482566568
12.74433508812085
15.771725032425422
16.943617914091707
18.60379949645228
18.21316853589685
20.263981078812847
21.728847180895706
21.338216220340275
23.291371023117417
24.756237125200276
25.439841306172273
26.22110322728313
26.025787747005417
27.002365148393988
27.783627069504846
27.588311589227132
27.588311589227132
27.588311589227132
27.588311589227132
27.588311589227132
27.588311589227132
25.63515678644999
24.17029068436713
24.4632639047837
22.510109102006563
20.947585259784848
19.385061417563133
17.82253757534142
18.21316853589685
16.16235599298085
14.697489890897993
14.990463111314565
13.037308308537423
11.572442206454566
10.986495765621424
10.10757610437171
10.302891584649425
10.302891584649425
10.302891584649425
10.302891584649425
10.302891584649425
10.302891584649425
11.181811245899137
11.963073167009995
11.767757686732281
11.767757686732281
11.767757686732281
11.767757686732281
10.79118028534371
10.10757610437171
9.326314183260854
8.545052262149996
8.642710002288853
6.787212939650568
5.224689097428855
5.615320057984283
4.541084916456855
3.8574807354848555
3.076218814373999
2.2949568932631417
2.392614633401999
2.392614633401999
2.392614633401999
2.392614633401999
1.416037232013428
0.7324330510414282
0.04882887006942855
-0.7324330510414282
-0.6347753109025711
-0.6347753109025711
-0.6347753109025711
-0.6347753109025711
-1.6113527122911422
-2.2949568932631417
-2.197299153124285
-2.197299153124285
-2.197299153124285
-1.2207217517357138
-0.537117570763714
-0.6347753109025711
0.24414435034714274
0.9277485313191425
2.68558785381857
4.248111696040284
3.8574807354848555
5.908293278400855
7.373159380483711
6.982528419928283
8.05676356145571
8.74036774242771
6.6895551995117115
5.224689097428855
5.517662317845426
4.541084916456855
3.7598229953459983
3.9551384756237127
3.9551384756237127
3.9551384756237127
5.810635538261997
7.373159380483711
6.982528419928283
10.888838025482567
13.81857022964828
13.13496604867628
18.11551079575799
21.728847180895706
24.756237125200276
27.881284809643702
27.1976806286717
28.27191577019913
28.95551995117113
28.857862211032273
26.90470740825513
25.439841306172273
24.853894865339132
23.974975204089418
24.17029068436713
22.21713588158999
20.752269779507134
21.045242999923705
19.092088197146563
17.52956435492485
15.967040512703136
14.404516670481422
14.795147631036851
12.74433508812085
11.279468986037996
11.670099946593423
10.595864805065995
9.912260624093996
8.154421301594567
6.591897459372854
6.884870679789426
5.908293278400855
5.127031357289998
5.322346837567712
5.322346837567712
5.322346837567712
4.345769436179141
3.5645075150682843
3.7598229953459983
4.638742656595713
5.420004577706569
5.224689097428855
5.322346837567712
5.322346837567712
5.322346837567712
5.322346837567712
5.322346837567712
6.201266498817426
6.982528419928283
6.787212939650568
5.908293278400855
5.127031357289998
5.322346837567712
5.224689097428855
5.224689097428855
4.345769436179141
3.5645075150682843
3.7598229953459983
2.783245593957427
2.0019836728465705
1.2207217517357138
0.43945983062485694
0.6347753109025711
-0.34180209048599985
-1.0254062714579995
-0.8300907911802854
-2.783245593957427
-4.248111696040284
-6.787212939650568
-9.130998702983138
-8.642710002288853
-11.572442206454566
-13.81857022964828
-13.330281528953995
-14.306858930342566
-15.088120851453422
-15.869382772564279
-16.650644693675137
-16.45532921339742
-16.45532921339742
-16.45532921339742
-16.45532921339742
-14.50217441062028
-13.037308308537423
-10.498207064927138
-8.252079041733426
-8.74036774242771
-5.71297779812314
-3.5645075150682843
-4.052796215762569
-2.0019836728465705
-0.537117570763714
0.9277485313191425
2.490272373540856
2.197299153124285
5.127031357289998
7.275501640344854
6.787212939650568
8.838025482566568
10.302891584649425
11.865415426871138
13.427939269092851
13.037308308537423
15.088120851453422
16.55298695353628
16.16235599298085
17.236591134508277
17.920195315480278
17.724879835202564
17.82253757534142
17.82253757534142
17.724879835202564
17.724879835202564
17.724879835202564
16.84596017395285
16.064698252841993
15.283436331731137
14.50217441062028
14.599832150759136
12.646677347981994
11.181811245899137
11.572442206454566
9.521629663538567
8.05676356145571
7.470817120622568
6.591897459372854
6.787212939650568
5.810635538261997
5.0293736171511405
5.224689097428855
4.248111696040284
3.466849774929427
2.68558785381857
1.9043259327077133
2.0996414129854277
1.1230640115968566
0.34180209048599985
0.537117570763714
-0.34180209048599985
-1.1230640115968566
-0.9277485313191425
-0.9277485313191425
-0.9277485313191425
-1.9043259327077133
-2.68558785381857
-2.490272373540856
-2.490272373540856
-2.490272373540856
-3.466849774929427
-4.248111696040284
-4.052796215762569
-4.052796215762569
-4.052796215762569
-4.052796215762569
-5.0293736171511405
-5.71297779812314
-6.591897459372854
-7.275501640344854
-7.177843900205997
-7.177843900205997
-7.177843900205997
-7.177843900205997
-8.154421301594567
-8.838025482566568
-10.595864805065995
-12.158388647287708
-11.767757686732281
-12.84199282825971
-13.525597009231708
-13.330281528953995
-14.306858930342566
-15.088120851453422
-15.869382772564279
-16.650644693675137
-16.45532921339742
-16.45532921339742
-16.45532921339742
-16.45532921339742
-15.47875181200885
-14.795147631036851
-13.037308308537423
-11.47478446631571
-11.865415426871138
-8.935683222705425
-6.6895551995117115
-7.177843900205997
-5.127031357289998
-3.662165255207141
-4.052796215762569
-3.9551384756237127
-3.9551384756237127
-3.9551384756237127
-3.9551384756237127
-3.9551384756237127
-2.0019836728465705
-0.537117570763714
1.9043259327077133
4.150453955901427
3.662165255207141
8.545052262149996
12.256046387426567
11.47478446631571
16.357671473258563
20.068665598535134
22.119478141451133
24.4632639047837
23.974975204089418
24.072632944228275
24.072632944228275
24.072632944228275
21.14290074006256
18.89677271686885
17.52956435492485
15.869382772564279
16.260013733119706
14.209201190203707
12.74433508812085
13.13496604867628
11.08415350576028
9.619287403677424
9.033340962844282
8.154421301594567
8.349736781872283
6.39658197909514
4.931715877012284
5.224689097428855
4.248111696040284
3.466849774929427
2.68558785381857
1.9043259327077133
2.0996414129854277
2.0996414129854277
2.0996414129854277
2.0996414129854277
2.0996414129854277
2.0996414129854277
1.1230640115968566
0.34180209048599985
0.537117570763714
0.537117570763714
0.537117570763714
0.537117570763714
-0.34180209048599985
-1.1230640115968566
-2.783245593957427
-4.345769436179141
-4.052796215762569
-5.0293736171511405
-5.810635538261997
-5.615320057984283
-6.591897459372854
-7.275501640344854
-8.154421301594567
-8.935683222705425
-8.74036774242771
-8.74036774242771
-8.74036774242771
-8.74036774242771
-8.74036774242771
-8.74036774242771
-7.763790341039139
-6.982528419928283
-7.177843900205997
-7.177843900205997
-7.177843900205997
-7.177843900205997
-6.201266498817426
-5.420004577706569
-5.615320057984283
-5.615320057984283
-5.615320057984283
-3.662165255207141
-2.197299153124285
-2.490272373540856
-0.537117570763714
0.8300907911802854
4.345769436179141
7.373159380483711
6.6895551995117115
10.693522545204852
13.623254749370565
12.939650568398566
17.82253757534142
21.533531700617992
25.439841306172273
29.346150911726557
28.467231250476843
32.471198596169984
35.4009308003357
34.717326619363696
36.768139162279695
38.23300526436255
39.79552910658427
41.358052948805984
40.96742198825055
41.065079728389414
41.065079728389414
41.065079728389414
40.96742198825055
40.96742198825055
40.96742198825055
40.96742198825055
40.96742198825055
39.99084458686198
39.20958266575113
39.40489814602884
38.33066300450141
37.64705882352941
35.889219501029984
34.32669565880827
34.717326619363696
33.64309147783627
32.86182955672541
33.05714503700313
31.103990234225986
29.63912413214313
27.100022888532845
24.756237125200276
25.24452582589456
22.21713588158999
20.068665598535134
20.55695429922942
17.52956435492485
15.381094071869994
12.939650568398566
10.595864805065995
11.181811245899137
8.154421301594567
6.005951018539712
6.39658197909514
4.443427176317998
2.9785610742351416
0.43945983062485694
-1.8066681925688564
-1.2207217517357138
-3.2715342946517127
-4.736400396734569
-4.443427176317998
-7.373159380483711
-9.521629663538567
-10.009918364232853
-10.888838025482567
-10.693522545204852
-11.670099946593423
-12.45136186770428
-12.256046387426567
-13.232623788815136
-13.916227969787137
-14.697489890897993
-15.47875181200885
-15.381094071869994
-16.357671473258563
-17.041275654230564
-16.84596017395285
-17.920195315480278
-18.60379949645228
-18.40848401617456
-18.506141756313422
-18.40848401617456
-19.385061417563133
-20.16632333867399
-19.971007858396277
-19.971007858396277
-19.971007858396277
-19.971007858396277
-19.971007858396277
-19.971007858396277
-18.994430457007706
-18.21316853589685
-18.40848401617456
-16.45532921339742
-14.990463111314565
-13.427939269092851
-11.865415426871138
-12.158388647287708
-9.228656443121995
-6.982528419928283
-7.470817120622568
-3.5645075150682843
-0.6347753109025711
1.513694972152285
3.8574807354848555
3.36919203479057
7.275501640344854
10.205233844510566
9.521629663538567
10.595864805065995
11.377126726176853
10.205233844510566
9.521629663538567
9.71694514381628
8.642710002288853
7.959105821316854
8.154421301594567
9.033340962844282
9.81460288395514
11.47478446631571
13.037308308537423
12.646677347981994
16.55298695353628
19.48271915770199
18.89677271686885
23.779659723811704
27.49065384908827
30.420386053253985
33.545433737697415
32.86182955672541
33.93606469825284
34.717326619363696
34.52201113908598
34.52201113908598
34.52201113908598
33.545433737697415
32.764171816586554
32.95948729686427
31.9829098954757
31.201647974364842
31.396963454642556
30.322728313115128
29.63912413214313
28.760204470893417
27.97894254978256
28.174258030060273
26.22110322728313
24.756237125200276
25.049210345616846
23.096055542839704
21.63118944075685
19.971007858396277
18.40848401617456
18.799114976729992
15.869382772564279
13.623254749370565
14.11154345006485
12.060730907148852
10.595864805065995
8.05676356145571
5.810635538261997
6.298924238956283
4.248111696040284
2.783245593957427
3.076218814373999
2.0996414129854277
1.3183794918745708
0.537117570763714
-0.14648661020828566
0.04882887006942855
-0.9277485313191425
-1.7090104524299992
-1.513694972152285
-3.466849774929427
-4.931715877012284
-5.517662317845426
-6.39658197909514
-6.201266498817426
-8.154421301594567
-9.619287403677424
-9.228656443121995
-10.302891584649425
-10.986495765621424
-12.74433508812085
-14.306858930342566
-13.916227969787137
-15.869382772564279
-17.334248874647134
-17.041275654230564
-17.13893339436942
-17.041275654230564
-16.16235599298085
-15.381094071869994
-15.576409552147707
-14.50217441062028
-13.81857022964828
-14.013885709925994
-11.08415350576028
-8.838025482566568
-5.517662317845426
-2.392614633401999
-3.076218814373999
0.7324330510414282
3.662165255207141
3.076218814373999
6.005951018539712
8.252079041733426
9.619287403677424
11.279468986037996
10.888838025482567
11.963073167009995
12.646677347981994
12.45136186770428
12.549019607843137
12.549019607843137
12.549019607843137
12.45136186770428
12.45136186770428
11.572442206454566
10.79118028534371
10.986495765621424
9.033340962844282
7.568474860761425
5.908293278400855
4.345769436179141
4.736400396734569
2.783245593957427
1.2207217517357138
1.6113527122911422
-0.34180209048599985
-1.8066681925688564
-4.345769436179141
-6.591897459372854
-6.103608758678568
-9.033340962844282
-11.279468986037996
-10.79118028534371
-12.74433508812085
-14.209201190203707
-15.771725032425422
-17.334248874647134
-17.041275654230564
-18.994430457007706
-20.45929655909056
-20.16632333867399
-21.14290074006256
-21.826504921034562
-23.58434424353399
-25.146868085755703
-24.756237125200276
-25.830472266727703
-26.514076447699704
-26.318760967421987
-27.295338368810558
-28.076600289921416
-28.857862211032273
-29.63912413214313
-29.443808651865414
-29.443808651865414
-29.443808651865414
-29.443808651865414
-30.420386053253985
-31.103990234225986
-31.885252155336843
-32.6665140764477
-32.471198596169984
-32.471198596169984
-32.471198596169984
-32.471198596169984
-32.471198596169984
-32.471198596169984
-31.494621194781413
-30.71335927367056
-30.908674753948272
-30.811017013809415
-30.811017013809415
-30.811017013809415
-29.834439612420844
-29.150835431448844
-28.27191577019913
-27.49065384908827
-27.68596932936599
-27.68596932936599
-27.68596932936599
-27.68596932936599
-26.709391927977418
-25.92813000686656
-25.146868085755703
-24.365606164644845
-24.4632639047837
-22.510109102006563
-21.045242999923705
-21.338216220340275
-19.385061417563133
-17.920195315480278
-15.381094071869994
-13.037308308537423
-13.623254749370565
-10.595864805065995
-8.349736781872283
-8.838025482566568
-5.908293278400855
-3.662165255207141
-1.3183794918745708
0.9277485313191425
0.43945983062485694
1.513694972152285
2.197299153124285
2.0019836728465705
1.1230640115968566
0.34180209048599985
-4.150453955901427
-7.861448081177996
-7.080186160067139
-12.939650568398566
-17.43190661478599
-16.357671473258563
-19.48271915770199
-21.63118944075685
-22.119478141451133
-22.998397802700847
-22.803082322423133
-21.826504921034562
-21.045242999923705
-21.24055848020142
-18.310826276035705
-16.16235599298085
-13.720912489509422
-11.377126726176853
-11.865415426871138
-11.767757686732281
-11.767757686732281
-11.767757686732281
-13.720912489509422
-15.185778591592278
-15.771725032425422
-16.650644693675137
-16.45532921339742
-17.43190661478599
-18.11551079575799
-18.017853055619135
-18.994430457007706
-19.678034637979707
-19.48271915770199
-19.58037689784085
-19.58037689784085
-19.58037689784085
-19.58037689784085
-19.48271915770199
-19.48271915770199
-19.48271915770199
-19.48271915770199
-19.48271915770199
-19.48271915770199
-19.48271915770199
-19.48271915770199
-19.48271915770199
-20.45929655909056
-21.14290074006256
-20.947585259784848
-21.045242999923705
-21.045242999923705
-21.045242999923705
-21.045242999923705
-20.947585259784848
-20.947585259784848
-20.947585259784848
-20.947585259784848
-20.947585259784848
-20.947585259784848
-21.92416266117342
-22.60776684214542
-22.510109102006563
-22.510109102006563
-22.510109102006563
-22.510109102006563
-22.510109102006563
-22.510109102006563
-22.412451361867703
-22.412451361867703
-22.412451361867703
-20.55695429922942
-18.994430457007706
-17.43190661478599
-15.869382772564279
-16.260013733119706
-13.232623788815136
-11.08415350576028
-11.572442206454566
-7.666132600900283
-4.638742656595713
-0.537117570763714
3.1738765545128556
2.392614633401999
7.275501640344854
10.986495765621424
10.205233844510566
14.11154345006485
17.041275654230564
20.263981078812847
23.389028763256274
22.705424582284277
26.61173418783856
29.541466392004274
28.857862211032273
30.908674753948272
32.37354085603113
33.93606469825284
35.49858854047456
35.10795757991913
35.20561532005799
35.20561532005799
35.20561532005799
35.20561532005799
35.10795757991913
34.22903791866941
33.44777599755856
33.545433737697415
32.56885633630884
31.885252155336843
31.9829098954757
30.029755092698558
28.564888990615703
27.881284809643702
27.100022888532845
27.295338368810558
26.22110322728313
25.537499046311133
25.63515678644999
24.65857938506142
23.974975204089418
23.096055542839704
22.314793621728846
22.510109102006563
21.533531700617992
20.752269779507134
20.947585259784848
18.994430457007706
17.52956435492485
14.990463111314565
12.646677347981994
13.13496604867628
10.205233844510566
7.959105821316854
8.44739452201114
5.517662317845426
3.2715342946517127
1.8066681925688564
0.24414435034714274
0.6347753109025711
-1.3183794918745708
-2.783245593957427
-2.392614633401999
-4.443427176317998
-5.908293278400855
-7.470817120622568
-9.033340962844282
-8.642710002288853
-10.595864805065995
-12.060730907148852
-11.767757686732281
-13.720912489509422
-15.185778591592278
-15.869382772564279
-16.650644693675137
-16.45532921339742
-17.43190661478599
-18.21316853589685
-18.017853055619135
-18.017853055619135
-18.017853055619135
-18.017853055619135
-18.017853055619135
-18.017853055619135
-18.017853055619135
-18.017853055619135
-18.017853055619135
-17.041275654230564
-16.260013733119706
-15.47875181200885
-14.697489890897993
-14.892805371175708
-13.916227969787137
-13.13496604867628
-13.330281528953995
-10.400549324788281
-8.154421301594567
-5.810635538261997
-3.466849774929427
-3.9551384756237127
-0.04882887006942855
2.783245593957427
2.0996414129854277
5.127031357289998
7.373159380483711
9.71694514381628
12.060730907148852
11.572442206454566
14.50217441062028
16.748302433813993
16.260013733119706
17.236591134508277
18.017853055619135
19.775692378118563
21.24055848020142
20.947585259784848
20.947585259784848
20.947585259784848
20.947585259784848
18.994430457007706
17.52956435492485
13.037308308537423
9.326314183260854
10.10757610437171
6.103608758678568
3.1738765545128556
3.8574807354848555
1.8066681925688564
0.34180209048599985
-0.24414435034714274
-1.0254062714579995
-0.8300907911802854
1.9043259327077133
4.150453955901427
3.662165255207141
7.568474860761425
10.498207064927138
14.599832150759136
18.506141756313422
17.627222095063708
18.701457236591136
19.48271915770199
19.287403677424276
18.310826276035705
17.627222095063708
16.84596017395285
16.064698252841993
16.16235599298085
14.209201190203707
12.74433508812085
11.181811245899137
9.619287403677424
9.912260624093996
8.935683222705425
8.154421301594567
8.349736781872283
6.39658197909514
4.931715877012284
5.224689097428855
3.2715342946517127
1.8066681925688564
1.1230640115968566
0.34180209048599985
0.537117570763714
-1.3183794918745708
-2.783245593957427
-2.490272373540856
-4.443427176317998
-5.908293278400855
-7.470817120622568
-9.033340962844282
-8.74036774242771
-10.693522545204852
-12.158388647287708
-14.697489890897993
-16.943617914091707
-16.45532921339742
-18.506141756313422
-19.971007858396277
-19.58037689784085
-19.678034637979707
-19.678034637979707
-19.678034637979707
-19.678034637979707
-19.678034637979707
-16.748302433813993
-14.50217441062028
-14.990463111314565
-11.08415350576028
-8.154421301594567
-8.838025482566568
-3.8574807354848555
-0.14648661020828566
3.662165255207141
7.568474860761425
6.6895551995117115
10.693522545204852
13.623254749370565
12.939650568398566
16.943617914091707
19.87335011825742
22.021820401312276
24.4632639047837
23.87731746395056
25.92813000686656
27.392996108949415
27.97894254978256
28.760204470893417
28.564888990615703
29.63912413214313
30.322728313115128
30.127412832837415
30.127412832837415
30.127412832837415
30.127412832837415
30.127412832837415
30.127412832837415
29.150835431448844
28.369573510337986
28.564888990615703
27.588311589227132
26.807049668116274
27.002365148393988
25.049210345616846
23.58434424353399
21.92416266117342
20.361638818951704
20.752269779507134
18.701457236591136
17.236591134508277
16.650644693675137
15.771725032425422
15.967040512703136
14.990463111314565
14.209201190203707
14.404516670481422
13.427939269092851
12.646677347981994
12.84199282825971
12.74433508812085
12.74433508812085
13.720912489509422
14.50217441062028
14.306858930342566
14.306858930342566
14.306858930342566
15.283436331731137
16.064698252841993
15.869382772564279
15.869382772564279
15.869382772564279
15.869382772564279
16.84596017395285
17.52956435492485
17.334248874647134
17.43190661478599
17.43190661478599
18.310826276035705
19.092088197146563
18.89677271686885
19.87335011825742
20.654612039368278
21.43587396047913
22.21713588158999
22.021820401312276
22.998397802700847
23.682001983672848
23.58434424353399
24.560921644922562
25.24452582589456
26.025787747005417
26.807049668116274
26.61173418783856
26.61173418783856
26.61173418783856
26.61173418783856
26.61173418783856
26.61173418783856
26.61173418783856
26.61173418783856
26.61173418783856
26.61173418783856
26.61173418783856
26.61173418783856
25.63515678644999
24.853894865339132
25.92813000686656
26.709391927977418
26.514076447699704
28.467231250476843
29.9320973525597
29.541466392004274
31.494621194781413
32.95948729686427
35.49858854047456
37.84237430380713
37.256427862973986
39.307240405889985
40.772106507972836
40.38147554741741
42.33463035019455
43.79949645227741
44.48310063324941
45.26436255436027
45.069047074082555
45.069047074082555
45.069047074082555
45.069047074082555
45.069047074082555
45.069047074082555
44.09246967269398
43.311207751583126
43.40886549172198
40.57679102769512
38.33066300450141
38.818951705195694
35.79156176089113
33.545433737697415
28.369573510337986
23.779659723811704
24.756237125200276
14.990463111314565
7.568474860761425
9.228656443121995
0.24414435034714274
-6.201266498817426
-11.47478446631571
-16.943617914091707
-15.771725032425422
-18.89677271686885
-21.045242999923705
-20.55695429922942
-21.63118944075685
-22.314793621728846
-19.287403677424276
-17.041275654230564
-17.52956435492485
-14.599832150759136
-12.353704127565424
-12.84199282825971
-12.74433508812085
-12.74433508812085
-13.720912489509422
-14.404516670481422
-14.306858930342566
-16.260013733119706
-17.724879835202564
-17.334248874647134
-18.40848401617456
-19.092088197146563
-19.87335011825742
-20.654612039368278
-20.45929655909056
-21.43587396047913
-22.21713588158999
-22.021820401312276
-22.998397802700847
-23.682001983672848
-25.439841306172273
-27.002365148393988
-26.61173418783856
-27.68596932936599
-28.369573510337986
-28.174258030060273
-30.127412832837415
-31.592278934920273
-33.15480277714199
-34.717326619363696
-34.32669565880827
-35.4009308003357
-36.0845349813077
-35.889219501029984
-37.84237430380713
-39.307240405889985
-40.86976424811169
-42.43228809033341
-42.04165712977798
-43.11589227130541
-43.79949645227741
-43.604180971999696
-43.70183871213855
-43.604180971999696
-43.604180971999696
-43.604180971999696
-43.604180971999696
-42.62760357061112
-41.84634164950027
-42.04165712977798
-39.11192492561227
-36.86579690241855
-34.52201113908598
-32.178225375753414
-32.6665140764477
-28.760204470893417
-25.732814526588847
-26.416418707560844
-22.412451361867703
-19.48271915770199
-16.357671473258563
-13.232623788815136
-13.916227969787137
-10.888838025482567
-8.642710002288853
-9.130998702983138
-8.05676356145571
-7.373159380483711
-7.568474860761425
-7.470817120622568
-7.470817120622568
-8.44739452201114
-9.130998702983138
-9.033340962844282
-10.986495765621424
-12.45136186770428
-14.990463111314565
-17.236591134508277
-16.748302433813993
-19.678034637979707
-21.92416266117342
-21.43587396047913
-23.389028763256274
-24.853894865339132
-27.392996108949415
-29.736781872281988
-29.150835431448844
-31.201647974364842
-32.6665140764477
-32.27588311589227
-35.20561532005799
-37.4517433432517
-39.79552910658427
-42.13931486991684
-41.5533684290837
-44.580758373388264
-46.72922865644312
-46.240939955748836
-48.19409475852598
-49.658960860608836
-51.22148470283055
-52.78400854505226
-52.39337758449683
-54.44419012741283
-55.81139848935683
-55.51842526894026
-57.471580071717405
-58.936446173800256
-59.522392614633404
-60.30365453574426
-60.108339055466544
-61.08491645685512
-61.86617837796597
-61.67086289768826
-62.64744029907683
-63.33104448004883
-63.13572899977112
-63.13572899977112
-63.13572899977112
-64.11230640115969
-64.79591058213168
-64.60059510185397
-64.60059510185397
-64.60059510185397
-65.57717250324254
-66.26077668421455
-66.06546120393683
-66.06546120393683
-66.06546120393683
-66.06546120393683
-65.96780346379796
-65.96780346379796
-65.96780346379796
-65.96780346379796
-65.96780346379796
-64.9912260624094
-64.20996414129854
-64.3076218814374
-62.35446707866026
-60.8896009765774
-59.22941939421683
-57.66689555199512
-58.057526512550545
-55.03013656824598
-52.881666285191116
-53.27229724574655
-50.34256504158083
-48.09643701838712
-43.79949645227741
-39.99084458686198
-40.772106507972836
-35.79156176089113
-32.178225375753414
-32.95948729686427
-28.95551995117113
-26.025787747005417
-22.803082322423133
-19.678034637979707
-20.361638818951704
-17.334248874647134
-15.185778591592278
-15.674067292286564
-13.623254749370565
-12.158388647287708
-10.595864805065995
-9.033340962844282
-9.326314183260854
-8.349736781872283
-7.568474860761425
-7.763790341039139
-7.666132600900283
-7.763790341039139
-7.763790341039139
-7.666132600900283
-7.666132600900283
-8.642710002288853
-9.42397192339971
-9.228656443121995
-11.181811245899137
-12.646677347981994
-15.185778591592278
-17.43190661478599
-16.943617914091707
-20.84992751964599
-23.779659723811704
-23.19371328297856
-26.123445487144274
-28.369573510337986
-29.736781872281988
-31.396963454642556
-31.00633249408713
-30.127412832837415
-29.346150911726557
-29.541466392004274
-26.61173418783856
-24.365606164644845
-21.045242999923705
-17.920195315480278
-18.60379949645228
-14.599832150759136
-11.670099946593423
-12.353704127565424
-11.279468986037996
-10.498207064927138
-10.693522545204852
-10.595864805065995
-10.693522545204852
-10.595864805065995
-10.595864805065995
-10.595864805065995
-11.572442206454566
-12.353704127565424
-12.158388647287708
-12.158388647287708
-12.158388647287708
-13.13496604867628
-13.916227969787137
-13.720912489509422
-13.720912489509422
-13.720912489509422
-14.697489890897993
-15.381094071869994
-15.283436331731137
-15.283436331731137
-15.283436331731137
-15.283436331731137
-15.283436331731137
-15.283436331731137
-14.306858930342566
-13.525597009231708
-13.720912489509422
-12.74433508812085
-11.963073167009995
-12.158388647287708
-10.205233844510566
-8.74036774242771
-6.201266498817426
-3.8574807354848555
-4.345769436179141
-1.416037232013428
0.7324330510414282
0.24414435034714274
4.150453955901427
7.080186160067139
10.302891584649425
13.330281528953995
12.646677347981994
16.650644693675137
19.58037689784085
18.89677271686885
22.90074006256199
25.830472266727703
27.97894254978256
30.420386053253985
29.834439612420844
32.86182955672541
35.010299839780274
34.52201113908598
37.4517433432517
39.69787136644541
41.065079728389414
42.62760357061112
42.236972610055695
44.28778515297169
45.75265125505455
45.362020294499125
45.45967803463798
45.362020294499125
45.362020294499125
45.362020294499125
45.362020294499125
44.38544289311055
43.604180971999696
43.79949645227741
42.822919050888835
42.04165712977798
40.28381780727855
38.72129396505684
39.014267185473415
37.06111238269627
35.596246280613414
35.889219501029984
33.93606469825284
32.471198596169984
30.811017013809415
29.2484931715877
29.63912413214313
28.564888990615703
27.783627069504846
27.97894254978256
27.002365148393988
26.22110322728313
25.439841306172273
24.65857938506142
24.853894865339132
23.779659723811704
23.096055542839704
23.19371328297856
22.21713588158999
21.533531700617992
20.654612039368278
19.87335011825742
20.068665598535134
18.11551079575799
16.650644693675137
16.943617914091707
15.967040512703136
15.185778591592278
14.404516670481422
13.623254749370565
13.81857022964828
13.720912489509422
13.720912489509422
13.720912489509422
13.720912489509422
13.720912489509422
13.720912489509422
13.720912489509422
13.720912489509422
13.720912489509422
13.720912489509422
13.720912489509422
13.720912489509422
13.720912489509422
12.74433508812085
11.963073167009995
12.158388647287708
11.181811245899137
10.400549324788281
10.595864805065995
9.619287403677424
8.838025482566568
8.05676356145571
7.275501640344854
7.470817120622568
7.373159380483711
7.373159380483711
7.373159380483711
8.349736781872283
9.130998702983138
11.767757686732281
14.013885709925994
13.525597009231708
16.55298695353628
18.701457236591136
18.21316853589685
22.119478141451133
25.049210345616846
27.295338368810558
29.63912413214313
29.150835431448844
32.08056763561456
34.22903791866941
33.74074921797513
36.768139162279695
38.91660944533455
39.40489814602884
40.186160067139696
39.99084458686198
40.08850232700084
39.99084458686198
39.99084458686198
39.99084458686198
39.99084458686198
39.014267185473415
38.23300526436255
38.42832074464027
37.4517433432517
36.67048142214084
36.86579690241855
34.91264209964141
33.3501182574197
31.787594415197987
30.22507057297627
30.518043793392845
29.541466392004274
28.760204470893417
28.95551995117113
27.002365148393988
25.537499046311133
21.045242999923705
17.236591134508277
18.11551079575799
11.181811245899137
6.005951018539712
7.177843900205997
0.24414435034714274
-4.834058136873426
-7.470817120622568
-10.693522545204852
-10.009918364232853
-11.08415350576028
-11.767757686732281
-11.670099946593423
-9.71694514381628
-8.252079041733426
-3.7598229953459983
-0.04882887006942855
-0.8300907911802854
3.076218814373999
6.005951018539712
5.322346837567712
6.39658197909514
7.080186160067139
5.0293736171511405
3.5645075150682843
3.9551384756237127
2.8809033340962844
2.197299153124285
2.2949568932631417
1.3183794918745708
0.6347753109025711
-0.04882887006942855
-0.8300907911802854
-0.7324330510414282
-1.7090104524299992
-2.392614633401999
-2.2949568932631417
-3.2715342946517127
-3.9551384756237127
-3.8574807354848555
-3.8574807354848555
-3.8574807354848555
-4.834058136873426
-5.517662317845426
-5.322346837567712
-6.39658197909514
-7.080186160067139
-7.861448081177996
-8.642710002288853
-8.44739452201114
-9.42397192339971
-10.205233844510566
-10.009918364232853
-10.10757610437171
-10.009918364232853
-9.130998702983138
-8.349736781872283
-8.545052262149996
-6.591897459372854
-5.127031357289998
-5.420004577706569
-3.466849774929427
-2.0019836728465705
-0.34180209048599985
1.1230640115968566
0.7324330510414282
2.68558785381857
4.150453955901427
3.8574807354848555
5.810635538261997
7.275501640344854
7.959105821316854
8.74036774242771
8.545052262149996
9.521629663538567
10.302891584649425
10.10757610437171
10.10757610437171
10.10757610437171
10.10757610437171
10.10757610437171
10.10757610437171
9.130998702983138
8.44739452201114
8.545052262149996
7.568474860761425
6.884870679789426
5.127031357289998
3.5645075150682843
3.9551384756237127
1.9043259327077133
0.43945983062485694
0.8300907911802854
-0.14648661020828566
-0.8300907911802854
-2.5879301136797133
-4.150453955901427
-3.7598229953459983
-4.834058136873426
-5.517662317845426
-5.420004577706569
-5.420004577706569
-5.420004577706569
-6.39658197909514
-7.080186160067139
-6.884870679789426
-7.959105821316854
-8.642710002288853
-8.44739452201114
-9.42397192339971
-10.205233844510566
-10.986495765621424
-11.767757686732281
-11.572442206454566
-13.525597009231708
-14.990463111314565
-14.697489890897993
-16.650644693675137
-18.11551079575799
-18.701457236591136
-19.58037689784085
-19.385061417563133
-20.361638818951704
-21.045242999923705
-20.947585259784848
-20.947585259784848
-20.947585259784848
-21.826504921034562
-22.60776684214542
-22.412451361867703
-22.510109102006563
-22.412451361867703
-22.412451361867703
-23.389028763256274
-24.17029068436713
-24.95155260547799
-25.63515678644999
-25.537499046311133
-26.514076447699704
-27.1976806286717
-27.002365148393988
-27.100022888532845
-27.002365148393988
-27.002365148393988
-27.002365148393988
-27.002365148393988
-27.002365148393988
-27.002365148393988
-27.002365148393988
-27.002365148393988
-27.002365148393988
-25.049210345616846
-23.58434424353399
-23.87731746395056
-21.92416266117342
-20.45929655909056
-20.752269779507134
-17.82253757534142
-15.576409552147707
-12.256046387426567
-9.130998702983138
-9.81460288395514
-5.908293278400855
-2.9785610742351416
-3.5645075150682843
-0.537117570763714
1.513694972152285
3.8574807354848555
6.201266498817426
5.71297779812314
6.787212939650568
7.470817120622568
7.373159380483711
8.349736781872283
9.033340962844282
8.838025482566568
8.935683222705425
8.935683222705425
7.959105821316854
7.177843900205997
7.373159380483711
7.373159380483711
7.373159380483711
7.373159380483711
7.373159380483711
7.373159380483711
7.275501640344854
7.275501640344854
7.275501640344854
7.275501640344854
7.275501640344854
7.275501640344854
7.275501640344854
7.275501640344854
6.39658197909514
5.615320057984283
5.810635538261997
4.736400396734569
4.052796215762569
1.3183794918745708
-0.8300907911802854
-0.34180209048599985
-5.224689097428855
-8.935683222705425
-8.05676356145571
-12.060730907148852
-14.990463111314565
-16.260013733119706
-17.920195315480278
-17.52956435492485
-17.627222095063708
-17.52956435492485
-17.52956435492485
-15.674067292286564
-14.11154345006485
-10.693522545204852
-7.568474860761425
-8.252079041733426
-5.224689097428855
-3.076218814373999
-3.5645075150682843
-3.466849774929427
-3.466849774929427
-5.420004577706569
-6.884870679789426
-6.494239719233997
-8.545052262149996
-10.009918364232853
-9.619287403677424
-11.670099946593423
-13.13496604867628
-14.697489890897993
-16.260013733119706
-15.869382772564279
-16.943617914091707
-17.627222095063708
-17.43190661478599
-17.52956435492485
-17.43190661478599
-17.43190661478599
-17.43190661478599
-17.43190661478599
-16.45532921339742
-15.771725032425422
-15.869382772564279
-14.892805371175708
-14.209201190203707
-11.47478446631571
-9.228656443121995
-9.71694514381628
-6.6895551995117115
-4.541084916456855
-5.0293736171511405
-2.0019836728465705
0.04882887006942855
2.490272373540856
4.834058136873426
4.248111696040284
7.275501640344854
9.42397192339971
8.935683222705425
11.963073167009995
14.11154345006485
15.576409552147707
17.13893339436942
16.748302433813993
19.678034637979707
21.92416266117342
21.43587396047913
23.389028763256274
24.853894865339132
25.537499046311133
26.318760967421987
26.123445487144274
26.123445487144274
26.123445487144274
26.123445487144274
25.146868085755703
24.365606164644845
23.58434424353399
22.803082322423133
22.998397802700847
21.045242999923705
19.58037689784085
19.87335011825742
18.799114976729992
18.11551079575799
17.334248874647134
16.55298695353628
16.650644693675137
15.674067292286564
14.990463111314565
15.088120851453422
15.088120851453422
15.088120851453422
14.11154345006485
13.330281528953995
13.525597009231708
12.549019607843137
11.767757686732281
11.963073167009995
10.009918364232853
8.545052262149996
7.861448081177996
7.080186160067139
7.275501640344854
6.298924238956283
5.517662317845426
5.71297779812314
3.7598229953459983
2.2949568932631417
1.6113527122911422
0.8300907911802854
1.0254062714579995
0.04882887006942855
-0.6347753109025711
-0.43945983062485694
-2.392614633401999
-3.8574807354848555
-4.541084916456855
-5.322346837567712
-5.127031357289998
-6.103608758678568
-6.884870679789426
-6.6895551995117115
-6.6895551995117115
-6.6895551995117115
-6.6895551995117115
-6.6895551995117115
-6.6895551995117115
-6.6895551995117115
-6.6895551995117115
-6.6895551995117115
-5.71297779812314
-5.0293736171511405
-5.224689097428855
-5.127031357289998
-5.127031357289998
-3.2715342946517127
-1.7090104524299992
-2.0996414129854277
-0.04882887006942855
1.3183794918745708
4.736400396734569
7.763790341039139
7.177843900205997
11.08415350576028
14.013885709925994
13.330281528953995
18.310826276035705
21.92416266117342
25.92813000686656
29.834439612420844
28.95551995117113
32.95948729686427
35.889219501029984
35.20561532005799
39.11192492561227
42.04165712977798
43.311207751583126
44.873731593804834
44.580758373388264
45.55733577477684
46.240939955748836
46.14328221560998
47.11985961699855
47.80346379797055
48.584725719081405
49.365987640192266
49.17067215991455
49.17067215991455
49.17067215991455
49.17067215991455
49.073014419775696
49.073014419775696
48.09643701838712
47.412832837415124
47.51049057755398
45.55733577477684
44.09246967269398
44.38544289311055
42.43228809033341
40.86976424811169
39.307240405889985
37.74471656366827
38.03768978408484
36.0845349813077
34.61966887922484
34.91264209964141
32.95948729686427
31.396963454642556
29.834439612420844
28.27191577019913
28.66254673075456
26.61173418783856
25.146868085755703
25.439841306172273
23.48668650339513
22.021820401312276
17.52956435492485
13.720912489509422
14.599832150759136
7.763790341039139
2.5879301136797133
3.662165255207141
-3.1738765545128556
-8.252079041733426
-10.986495765621424
-14.209201190203707
-13.427939269092851
-14.599832150759136
-15.283436331731137
-15.088120851453422
-13.232623788815136
-11.767757686732281
-8.252079041733426
-5.224689097428855
-5.908293278400855
-0.9277485313191425
2.68558785381857
1.8066681925688564
2.9785610742351416
3.662165255207141
1.6113527122911422
0.14648661020828566
0.43945983062485694
-1.416037232013428
-2.8809033340962844
-2.5879301136797133
-3.5645075150682843
-4.345769436179141
-5.127031357289998
-5.908293278400855
-5.71297779812314
-5.71297779812314
-5.71297779812314
-5.71297779812314
-4.736400396734569
-4.052796215762569
-3.2715342946517127
-2.490272373540856
-2.5879301136797133
-0.6347753109025711
0.7324330510414282
0.34180209048599985
2.392614633401999
3.8574807354848555
6.39658197909514
8.642710002288853
8.154421301594567
12.060730907148852
14.990463111314565
14.306858930342566
18.310826276035705
21.24055848020142
23.48668650339513
25.830472266727703
25.24452582589456
27.295338368810558
28.760204470893417
28.369573510337986
29.443808651865414
30.127412832837415
29.9320973525597
30.029755092698558
30.029755092698558
28.076600289921416
26.61173418783856
26.90470740825513
23.974975204089418
21.728847180895706
19.385061417563133
17.041275654230564
17.52956435492485
13.623254749370565
10.595864805065995
11.279468986037996
8.252079041733426
6.103608758678568
3.662165255207141
1.3183794918745708
1.9043259327077133
-0.04882887006942855
-1.513694972152285
-1.2207217517357138
-3.1738765545128556
-4.638742656595713
-7.177843900205997
-9.42397192339971
-8.935683222705425
-10.986495765621424
-12.45136186770428
-12.060730907148852
-14.11154345006485
-15.576409552147707
-17.13893339436942
-18.701457236591136
-18.310826276035705
-18.40848401617456
-18.40848401617456
-18.40848401617456
-18.310826276035705
-18.310826276035705
-18.310826276035705
-18.310826276035705
-18.310826276035705
-18.310826276035705
-18.310826276035705
-18.310826276035705
-17.334248874647134
-16.650644693675137
-16.748302433813993
-16.748302433813993
-16.748302433813993
-16.748302433813993
-16.748302433813993
-16.748302433813993
-17.627222095063708
-18.40848401617456
-18.21316853589685
-18.21316853589685
-18.21316853589685
-18.21316853589685
-18.21316853589685
-18.21316853589685
-18.21316853589685
-18.21316853589685
-19.18974593728542
-19.87335011825742
-19.775692378118563
-20.752269779507134
-21.43587396047913
-21.24055848020142
-22.21713588158999
-22.998397802700847
-22.803082322423133
-22.803082322423133
-22.803082322423133
-22.803082322423133
-22.803082322423133
-22.803082322423133
-20.84992751964599
-19.385061417563133
-17.82253757534142
-16.260013733119706
-16.55298695353628
-13.623254749370565
-11.47478446631571
-11.963073167009995
-8.935683222705425
-6.6895551995117115
-4.345769436179141
-2.0019836728465705
-2.5879301136797133
0.34180209048599985
2.5879301136797133
2.0996414129854277
3.076218814373999
3.8574807354848555
3.662165255207141
3.662165255207141
3.662165255207141
3.662165255207141
3.662165255207141
3.662165255207141
2.783245593957427
2.0019836728465705
1.2207217517357138
0.43945983062485694
0.6347753109025711
-1.2207217517357138
-2.68558785381857
-2.392614633401999
-3.466849774929427
-4.150453955901427
-4.931715877012284
-5.71297779812314
-5.517662317845426
-6.494239719233997
-7.275501640344854
-7.080186160067139
-7.177843900205997
-7.080186160067139
-8.05676356145571
-8.838025482566568
-8.642710002288853
-8.642710002288853
-8.642710002288853
-8.642710002288853
-8.642710002288853
-8.642710002288853
-9.619287403677424
-10.400549324788281
-10.205233844510566
-11.181811245899137
-11.865415426871138
-11.767757686732281
-11.767757686732281
-11.767757686732281
-14.599832150759136
-16.84596017395285
-16.357671473258563
-20.263981078812847
-23.19371328297856
-22.510109102006563
-26.514076447699704
-29.443808651865414
-29.736781872281988
-30.615701533531702
-30.420386053253985
-29.443808651865414
-28.760204470893417
-28.857862211032273
-25.92813000686656
-23.779659723811704
-19.48271915770199
-15.576409552147707
-16.45532921339742
-12.45136186770428
-9.521629663538567
-10.205233844510566
-8.154421301594567
-6.6895551995117115
-6.982528419928283
-6.884870679789426
-6.884870679789426
-7.861448081177996
-8.642710002288853
-8.44739452201114
-9.42397192339971
-10.205233844510566
-10.009918364232853
-10.009918364232853
-10.009918364232853
-9.033340962844282
-8.349736781872283
-8.44739452201114
-6.494239719233997
-5.0293736171511405
-3.466849774929427
-1.9043259327077133
-2.2949568932631417
1.513694972152285
4.541084916456855
3.8574807354848555
6.884870679789426
9.033340962844282
12.353704127565424
15.47875181200885
14.795147631036851
16.84596017395285
18.21316853589685
17.920195315480278
19.87335011825742
21.338216220340275
22.90074006256199
24.4632639047837
24.17029068436713
25.146868085755703
25.92813000686656
25.732814526588847
26.709391927977418
27.392996108949415
28.174258030060273
28.95551995117113
28.760204470893417
28.857862211032273
28.760204470893417
28.760204470893417
28.760204470893417
28.760204470893417
28.760204470893417
28.760204470893417
28.760204470893417
27.783627069504846
27.002365148393988
27.1976806286717
27.1976806286717
27.1976806286717
27.100022888532845
27.100022888532845
27.100022888532845
27.100022888532845
27.100022888532845
27.100022888532845
26.123445487144274
25.342183566033416
25.537499046311133
25.537499046311133
25.537499046311133
24.560921644922562
23.779659723811704
23.974975204089418
22.90074006256199
22.21713588158999
21.43587396047913
20.654612039368278
20.752269779507134
19.775692378118563
18.994430457007706
19.18974593728542
18.21316853589685
17.43190661478599
16.650644693675137
15.869382772564279
16.064698252841993
13.13496604867628
10.888838025482567
11.377126726176853
8.44739452201114
6.201266498817426
2.8809033340962844
-0.04882887006942855
0.537117570763714
-3.36919203479057
-6.298924238956283
-5.615320057984283
-9.619287403677424
-12.549019607843137
-14.795147631036851
-17.13893339436942
-16.55298695353628
-18.60379949645228
-20.068665598535134
-19.775692378118563
-20.752269779507134
-21.43587396047913
-21.338216220340275
-21.338216220340275
-21.338216220340275
-19.385061417563133
-17.920195315480278
-18.21316853589685
-15.283436331731137
-13.037308308537423
-8.838025482566568
-4.931715877012284
-5.810635538261997
-1.8066681925688564
1.0254062714579995
0.34180209048599985
5.322346837567712
8.935683222705425
11.963073167009995
15.088120851453422
14.404516670481422
17.43190661478599
19.58037689784085
19.092088197146563
21.14290074006256
22.60776684214542
23.19371328297856
23.974975204089418
23.779659723811704
23.87731746395056
23.87731746395056
23.87731746395056
24.756237125200276
25.537499046311133
26.318760967421987
27.100022888532845
26.90470740825513
26.90470740825513
26.90470740825513
26.90470740825513
26.90470740825513
26.90470740825513
25.92813000686656
25.146868085755703
25.342183566033416
24.365606164644845
23.58434424353399
23.779659723811704
21.826504921034562
20.263981078812847
18.701457236591136
17.13893339436942
17.52956435492485
15.47875181200885
14.013885709925994
14.306858930342566
12.353704127565424
10.888838025482567
10.205233844510566
9.42397192339971
9.619287403677424
8.642710002288853
7.861448081177996
8.05676356145571
7.080186160067139
6.298924238956283
5.517662317845426
4.736400396734569
4.931715877012284
2.9785610742351416
1.513694972152285
1.8066681925688564
0.7324330510414282
0.04882887006942855
-3.466849774929427
-6.494239719233997
-5.810635538261997
-12.646677347981994
-17.82253757534142
-16.650644693675137
-22.705424582284277
-27.002365148393988
-29.834439612420844
-33.05714503700313
-32.37354085603113
-32.471198596169984
-32.471198596169984
-32.471198596169984
-30.518043793392845
-29.053177691309987
-25.537499046311133
-22.510109102006563
-23.19371328297856
-19.18974593728542
-16.260013733119706
-16.84596017395285
-14.795147631036851
-13.330281528953995
-14.599832150759136
-15.283436331731137
-15.185778591592278
-16.16235599298085
-16.84596017395285
-16.650644693675137
-17.627222095063708
-18.40848401617456
-18.21316853589685
-18.310826276035705
-18.21316853589685
-17.334248874647134
-16.55298695353628
-16.748302433813993
-14.795147631036851
-13.232623788815136
-10.693522545204852
-8.44739452201114
-8.935683222705425
-6.884870679789426
-5.420004577706569
-5.810635538261997
-2.783245593957427
-0.6347753109025711
0.7324330510414282
2.2949568932631417
1.9043259327077133
3.9551384756237127
5.420004577706569
5.0293736171511405
5.127031357289998
5.127031357289998
5.127031357289998
5.127031357289998
5.127031357289998
5.127031357289998
5.127031357289998
5.127031357289998
5.127031357289998
5.127031357289998
5.127031357289998
5.127031357289998
5.127031357289998
4.150453955901427
3.36919203479057
3.5645075150682843
2.5879301136797133
1.8066681925688564
0.04882887006942855
-1.3183794918745708
-1.0254062714579995
-2.9785610742351416
-4.443427176317998
-4.150453955901427
-7.080186160067139
-9.228656443121995
-10.693522545204852
-12.256046387426567
-11.865415426871138
-13.916227969787137
-15.381094071869994
-14.990463111314565
-17.041275654230564
-18.506141756313422
-18.11551079575799
-18.21316853589685
-18.21316853589685
-19.092088197146563
-19.87335011825742
-19.678034637979707
-19.678034637979707
-19.678034637979707
-19.678034637979707
-19.678034637979707
-19.678034637979707
-20.654612039368278
-21.338216220340275
-21.24055848020142
-22.21713588158999
-22.90074006256199
-22.705424582284277
-22.803082322423133
-22.803082322423133
-22.803082322423133
-22.705424582284277
-22.705424582284277
-23.682001983672848
-24.4632639047837
-24.267948424505988
-24.267948424505988
-24.267948424505988
-25.24452582589456
-25.92813000686656
-25.732814526588847
-26.709391927977418
-27.49065384908827
-27.295338368810558
-27.295338368810558
-27.295338368810558
-26.318760967421987
-25.63515678644999
-25.732814526588847
-24.756237125200276
-24.072632944228275
-21.338216220340275
-19.092088197146563
-19.58037689784085
-16.55298695353628
-14.306858930342566
-14.795147631036851
-10.888838025482567
-7.959105821316854
-4.834058136873426
-1.7090104524299992
-2.392614633401999
0.537117570763714
2.783245593957427
2.2949568932631417
5.224689097428855
7.470817120622568
7.861448081177996
8.74036774242771
8.545052262149996
9.521629663538567
10.302891584649425
10.10757610437171
11.08415350576028
11.865415426871138
11.670099946593423
11.670099946593423
11.670099946593423
11.670099946593423
11.670099946593423
11.670099946593423
10.693522545204852
10.009918364232853
9.228656443121995
8.44739452201114
8.545052262149996
6.591897459372854
5.127031357289998
5.420004577706569
2.490272373540856
0.34180209048599985
-2.0019836728465705
-4.248111696040284
-3.7598229953459983
-5.810635538261997
-7.275501640344854
-6.884870679789426
-9.81460288395514
-12.060730907148852
-12.549019607843137
-13.427939269092851
-13.232623788815136
-14.209201190203707
-14.892805371175708
-14.697489890897993
-13.81857022964828
-13.037308308537423
-12.256046387426567
-11.47478446631571
-11.670099946593423
-10.693522545204852
-9.912260624093996
-10.10757610437171
-9.130998702983138
-8.349736781872283
-7.568474860761425
-6.787212939650568
-6.982528419928283
-6.884870679789426
-6.884870679789426
-6.884870679789426
-6.884870679789426
-6.884870679789426
-8.838025482566568
-10.302891584649425
-9.912260624093996
-14.795147631036851
-18.506141756313422
-17.627222095063708
-21.63118944075685
-24.560921644922562
-25.830472266727703
-27.49065384908827
-27.100022888532845
-26.22110322728313
-25.439841306172273
-25.63515678644999
-23.682001983672848
-22.119478141451133
-18.701457236591136
-15.576409552147707
-16.260013733119706
-11.377126726176853
-7.666132600900283
-8.44739452201114
-5.420004577706569
-3.2715342946517127
-2.783245593957427
-1.9043259327077133
-2.0996414129854277
-0.14648661020828566
1.2207217517357138
0.9277485313191425
3.8574807354848555
6.005951018539712
8.44739452201114
10.693522545204852
10.205233844510566
13.232623788815136
15.381094071869994
14.892805371175708
17.82253757534142
20.068665598535134
22.412451361867703
24.756237125200276
24.267948424505988
26.22110322728313
27.68596932936599
27.392996108949415
28.369573510337986
29.150835431448844
28.95551995117113
28.95551995117113
28.95551995117113
28.95551995117113
28.95551995117113
28.95551995117113
27.97894254978256
27.1976806286717
25.439841306172273
23.87731746395056
24.267948424505988
22.21713588158999
20.752269779507134
21.14290074006256
18.11551079575799
15.967040512703136
13.525597009231708
11.181811245899137
11.767757686732281
8.74036774242771
6.591897459372854
7.080186160067139
5.0293736171511405
3.5645075150682843
2.0019836728465705
0.43945983062485694
0.7324330510414282
-1.1230640115968566
-2.5879301136797133
-2.2949568932631417
-3.2715342946517127
-4.052796215762569
-4.834058136873426
-5.615320057984283
-5.420004577706569
-5.420004577706569
-5.420004577706569
-5.420004577706569
-6.39658197909514
-7.177843900205997
-7.959105821316854
-8.74036774242771
-8.545052262149996
-8.545052262149996
-8.545052262149996
-8.545052262149996
-9.521629663538567
-10.205233844510566
-10.10757610437171
-10.10757610437171
-10.10757610437171
-10.10757610437171
-10.10757610437171
-10.10757610437171
-11.08415350576028
-11.767757686732281
-10.693522545204852
-9.912260624093996
-10.10757610437171
-10.10757610437171
-10.10757610437171
-10.10757610437171
-10.009918364232853
-10.009918364232853
-10.986495765621424
-11.767757686732281
-11.572442206454566
-10.693522545204852
-9.912260624093996
-10.10757610437171
-10.009918364232853
-10.009918364232853
-8.154421301594567
-6.591897459372854
-6.982528419928283
-4.052796215762569
-1.8066681925688564
-2.2949568932631417
2.490272373540856
6.201266498817426
10.10757610437171
14.013885709925994
13.13496604867628
18.11551079575799
21.826504921034562
20.947585259784848
24.95155260547799
27.881284809643702
31.00633249408713
34.131380178530556
33.44777599755856
36.475165941863125
38.62363622491798
38.1353475242237
40.08850232700084
41.5533684290837
42.236972610055695
43.018234531166556
42.822919050888835
43.79949645227741
44.48310063324941
44.28778515297169
43.40886549172198
42.62760357061112
41.84634164950027
41.065079728389414
41.16273746852827
39.20958266575113
37.74471656366827
38.03768978408484
36.0845349813077
34.61966887922484
32.08056763561456
29.736781872281988
30.22507057297627
27.1976806286717
25.049210345616846
25.537499046311133
23.48668650339513
22.021820401312276
20.45929655909056
18.89677271686885
19.18974593728542
17.236591134508277
15.771725032425422
16.064698252841993
14.11154345006485
12.646677347981994
10.986495765621424
9.42397192339971
9.81460288395514
8.74036774242771
8.05676356145571
8.154421301594567
6.201266498817426
4.736400396734569
4.150453955901427
3.36919203479057
3.466849774929427
2.490272373540856
1.8066681925688564
1.9043259327077133
0.9277485313191425
0.24414435034714274
-0.43945983062485694
-1.2207217517357138
-1.1230640115968566
-2.0996414129854277
-2.783245593957427
-2.68558785381857
-3.662165255207141
-4.345769436179141
-8.05676356145571
-11.08415350576028
-10.400549324788281
-16.260013733119706
-20.654612039368278
-19.678034637979707
-24.65857938506142
-28.27191577019913
-29.443808651865414
-31.00633249408713
-30.71335927367056
-30.71335927367056
-30.71335927367056
-30.71335927367056
-27.881284809643702
-25.63515678644999
-21.338216220340275
-17.52956435492485
-18.310826276035705
-13.330281528953995
-9.71694514381628
-10.498207064927138
-7.470817120622568
-5.224689097428855
-5.71297779812314
-5.615320057984283
-5.615320057984283
-4.736400396734569
-3.9551384756237127
-4.150453955901427
-1.2207217517357138
0.9277485313191425
3.2715342946517127
5.615320057984283
5.127031357289998
8.05676356145571
10.302891584649425
9.81460288395514
12.74433508812085
14.990463111314565
17.334248874647134
19.678034637979707
19.092088197146563
21.14290074006256
22.60776684214542
22.314793621728846
23.291371023117417
23.974975204089418
22.90074006256199
22.119478141451133
22.314793621728846
21.338216220340275
20.55695429922942
20.752269779507134
19.775692378118563
18.994430457007706
18.21316853589685
17.43190661478599
17.627222095063708
16.55298695353628
15.869382772564279
15.967040512703136
14.013885709925994
12.549019607843137
10.986495765621424
9.42397192339971
9.81460288395514
6.787212939650568
4.638742656595713
5.127031357289998
2.0996414129854277
0.04882887006942855
-1.416037232013428
-2.9785610742351416
-2.68558785381857
-5.615320057984283
-7.763790341039139
-7.275501640344854
-9.326314183260854
-10.79118028534371
-12.353704127565424
-13.916227969787137
-13.525597009231708
-14.599832150759136
-15.283436331731137
-15.088120851453422
-17.041275654230564
-18.506141756313422
-20.16632333867399
-21.63118944075685
-21.338216220340275
-24.267948424505988
-26.416418707560844
-25.92813000686656
-27.97894254978256
-29.443808651865414
-30.029755092698558
-30.811017013809415
-30.615701533531702
-32.56885633630884
-34.0337224383917
-33.74074921797513
-34.717326619363696
-35.49858854047456
-35.303273060196844
-35.303273060196844
-35.303273060196844
-35.303273060196844
-35.303273060196844
-35.303273060196844
-36.182192721446555
-36.96345464255741
-36.768139162279695
-36.768139162279695
-36.768139162279695
-36.768139162279695
-36.768139162279695
-36.768139162279695
-35.79156176089113
-35.010299839780274
-33.252460517280845
-31.68993667505913
-32.08056763561456
-30.029755092698558
-28.564888990615703
-28.857862211032273
-24.95155260547799
-22.021820401312276
-18.89677271686885
-15.771725032425422
-16.45532921339742
-12.45136186770428
-9.521629663538567
-10.205233844510566
-6.201266498817426
-3.2715342946517127
-2.0019836728465705
-0.34180209048599985
-0.7324330510414282
2.0996414129854277
4.345769436179141
3.8574807354848555
4.931715877012284
5.615320057984283
6.39658197909514
7.177843900205997
6.982528419928283
7.959105821316854
8.74036774242771
8.545052262149996
7.666132600900283
6.884870679789426
7.080186160067139
6.982528419928283
6.982528419928283
6.103608758678568
5.322346837567712
5.517662317845426
5.420004577706569
5.420004577706569
4.541084916456855
3.7598229953459983
3.9551384756237127
2.0019836728465705
0.537117570763714
0.8300907911802854
-0.14648661020828566
-0.8300907911802854
-1.6113527122911422
-2.392614633401999
-2.197299153124285
-3.2715342946517127
-3.9551384756237127
-3.7598229953459983
-4.736400396734569
-5.517662317845426
-5.322346837567712
-5.420004577706569
-5.420004577706569
-4.443427176317998
-3.662165255207141
-3.8574807354848555
-3.7598229953459983
-3.8574807354848555
-2.8809033340962844
-2.0996414129854277
-2.2949568932631417
-2.197299153124285
-2.197299153124285
-2.197299153124285
-3.1738765545128556
-3.9551384756237127
-4.736400396734569
-5.517662317845426
-5.322346837567712
-7.275501640344854
-8.74036774242771
-8.44739452201114
-10.400549324788281
-11.865415426871138
-14.404516670481422
-16.650644693675137
-16.16235599298085
-22.021820401312276
-26.416418707560844
-25.439841306172273
-30.420386053253985
-34.131380178530556
-35.20561532005799
-36.86579690241855
-36.475165941863125
-35.596246280613414
-34.81498435950255
-34.91264209964141
-31.9829098954757
-29.834439612420844
-23.58434424353399
-18.310826276035705
-19.48271915770199
-12.549019607843137
-7.373159380483711
-8.545052262149996
-3.466849774929427
0.04882887006942855
3.076218814373999
6.201266498817426
5.517662317845426
9.521629663538567
12.45136186770428
11.767757686732281
14.795147631036851
16.943617914091707
18.40848401617456
19.971007858396277
19.58037689784085
22.60776684214542
24.756237125200276
24.267948424505988
26.318760967421987
27.68596932936599
30.22507057297627
32.56885633630884
32.08056763561456
34.0337224383917
35.49858854047456
35.20561532005799
37.15877012283513
38.62363622491798
38.23300526436255
38.33066300450141
38.23300526436255
38.23300526436255
38.23300526436255
38.23300526436255
37.256427862973986
36.57282368200198
35.69390402075227
34.91264209964141
35.10795757991913
33.15480277714199
31.68993667505913
31.9829098954757
31.885252155336843
31.885252155336843
30.908674753948272
30.127412832837415
30.322728313115128
29.346150911726557
28.564888990615703
28.760204470893417
27.783627069504846
27.002365148393988
25.24452582589456
23.682001983672848
24.072632944228275
21.14290074006256
18.89677271686885
19.385061417563133
15.381094071869994
12.45136186770428
9.326314183260854
6.201266498817426
6.884870679789426
2.8809033340962844
0.04882887006942855
0.6347753109025711
-2.2949568932631417
-4.443427176317998
-7.861448081177996
-10.888838025482567
-10.205233844510566
-12.256046387426567
-13.720912489509422
-13.427939269092851
-14.404516670481422
-15.088120851453422
-15.869382772564279
-16.650644693675137
-16.55298695353628
-17.52956435492485
-18.21316853589685
-18.017853055619135
-18.11551079575799
-18.11551079575799
-18.11551079575799
-18.017853055619135
-18.017853055619135
-18.017853055619135
-18.017853055619135
-18.017853055619135
-18.017853055619135
-18.017853055619135
-16.16235599298085
-14.599832150759136
-14.990463111314565
-12.939650568398566
-11.47478446631571
-11.767757686732281
-7.959105821316854
-4.931715877012284
-0.8300907911802854
2.8809033340962844
2.0996414129854277
6.982528419928283
10.693522545204852
9.912260624093996
13.916227969787137
16.748302433813993
19.971007858396277
23.096055542839704
22.412451361867703
24.4632639047837
25.830472266727703
25.537499046311133
27.49065384908827
28.95551995117113
29.541466392004274
30.420386053253985
30.22507057297627
30.22507057297627
30.22507057297627
30.22507057297627
31.201647974364842
31.885252155336843
31.68993667505913
31.787594415197987
31.68993667505913
30.71335927367056
30.029755092698558
30.127412832837415
29.150835431448844
28.369573510337986
26.709391927977418
25.146868085755703
25.439841306172273
23.48668650339513
22.021820401312276
22.314793621728846
21.24055848020142
20.55695429922942
18.799114976729992
17.236591134508277
17.627222095063708
16.55298695353628
15.869382772564279
15.967040512703136
14.013885709925994
12.549019607843137
10.986495765621424
9.42397192339971
9.71694514381628
7.763790341039139
6.298924238956283
6.591897459372854
3.662165255207141
1.416037232013428
0.04882887006942855
-1.416037232013428
-1.1230640115968566
-3.076218814373999
-4.541084916456855
-4.248111696040284
-6.201266498817426
-7.666132600900283
-8.252079041733426
-9.130998702983138
-8.935683222705425
-8.935683222705425
-8.935683222705425
-8.935683222705425
-9.912260624093996
-10.595864805065995
-10.498207064927138
-10.498207064927138
-10.498207064927138
-11.47478446631571
-12.158388647287708
-12.060730907148852
-13.037308308537423
-13.720912489509422
-17.43190661478599
-20.361638818951704
-19.678034637979707
-25.537499046311133
-30.029755092698558
-29.053177691309987
-34.0337224383917
-37.64705882352941
-38.72129396505684
-40.38147554741741
-39.99084458686198
-38.1353475242237
-36.67048142214084
-36.96345464255741
-32.08056763561456
-28.369573510337986
-21.533531700617992
-15.47875181200885
-16.84596017395285
-7.861448081177996
-1.3183794918745708
-2.783245593957427
3.1738765545128556
7.568474860761425
9.521629663538567
11.963073167009995
11.377126726176853
13.427939269092851
14.892805371175708
14.50217441062028
16.45532921339742
17.920195315480278
18.60379949645228
19.385061417563133
19.18974593728542
19.287403677424276
19.18974593728542
19.18974593728542
19.18974593728542
19.18974593728542
19.18974593728542
19.18974593728542
19.18974593728542
18.21316853589685
17.52956435492485
17.627222095063708
16.650644693675137
15.869382772564279
14.11154345006485
12.646677347981994
12.939650568398566
10.986495765621424
9.521629663538567
9.81460288395514
7.861448081177996
6.39658197909514
4.834058136873426
3.2715342946517127
3.5645075150682843
1.6113527122911422
0.14648661020828566
0.43945983062485694
-1.416037232013428
-2.8809033340962844
-3.5645075150682843
-4.345769436179141
-4.150453955901427
-6.103608758678568
-7.568474860761425
-7.275501640344854
-8.252079041733426
-9.033340962844282
-9.81460288395514
-10.595864805065995
-10.400549324788281
-11.377126726176853
-12.158388647287708
-11.963073167009995
-13.916227969787137
-15.381094071869994
-15.967040512703136
-16.84596017395285
-16.650644693675137
-17.627222095063708
-18.310826276035705
-18.11551079575799
-18.21316853589685
-18.21316853589685
-18.21316853589685
-18.21316853589685
-18.11551079575799
-18.11551079575799
-18.11551079575799
-18.11551079575799
-19.092088197146563
-19.87335011825742
-19.678034637979707
-19.678034637979707
-19.678034637979707
-20.654612039368278
-21.338216220340275
-21.14290074006256
-21.24055848020142
-21.24055848020142
-22.119478141451133
-22.90074006256199
-22.705424582284277
-23.682001983672848
-24.4632639047837
-24.267948424505988
-24.267948424505988
-24.267948424505988
-23.291371023117417
-22.60776684214542
-22.705424582284277
-20.752269779507134
-19.287403677424276
-19.58037689784085
-16.650644693675137
-14.404516670481422
-11.08415350576028
-8.05676356145571
-8.74036774242771
-5.71297779812314
-3.466849774929427
-3.9551384756237127
-1.0254062714579995
1.1230640115968566
2.490272373540856
4.150453955901427
3.7598229953459983
5.71297779812314
7.177843900205997
6.884870679789426
7.861448081177996
8.642710002288853
8.44739452201114
8.545052262149996
8.44739452201114
6.591897459372854
5.127031357289998
5.420004577706569
3.466849774929427
2.0019836728465705
-0.43945983062485694
-2.783245593957427
-2.2949568932631417
-6.201266498817426
-9.130998702983138
-8.44739452201114
-10.498207064927138
-11.963073167009995
-14.50217441062028
-16.84596017395285
-16.260013733119706
-17.334248874647134
-18.11551079575799
-17.920195315480278
-18.89677271686885
-19.58037689784085
-20.361638818951704
-21.14290074006256
-21.045242999923705
-22.021820401312276
-22.705424582284277
-22.510109102006563
-22.60776684214542
-22.60776684214542
-22.510109102006563
-22.510109102006563
-22.510109102006563
-22.510109102006563
-22.510109102006563
-22.510109102006563
-21.533531700617992
-20.84992751964599
-20.947585259784848
-20.947585259784848
-20.947585259784848
-20.947585259784848
-20.947585259784848
-20.947585259784848
-21.826504921034562
-22.60776684214542
-22.412451361867703
-22.412451361867703
-22.412451361867703
-23.389028763256274
-24.072632944228275
-23.974975204089418
-23.974975204089418
-23.974975204089418
-22.998397802700847
-22.21713588158999
-22.412451361867703
-22.314793621728846
-22.314793621728846
-22.314793621728846
-22.314793621728846
-22.314793621728846
-23.291371023117417
-23.974975204089418
-23.87731746395056
-27.68596932936599
-30.615701533531702
-29.9320973525597
-32.95948729686427
-35.20561532005799
-34.61966887922484
-34.717326619363696
-34.717326619363696
-31.885252155336843
-29.63912413214313
-30.127412832837415
-23.291371023117417
-18.11551079575799
-11.670099946593423
-5.420004577706569
-6.787212939650568
1.0254062714579995
6.884870679789426
5.615320057984283
11.670099946593423
15.967040512703136
17.920195315480278
20.361638818951704
19.775692378118563
21.826504921034562
23.291371023117417
22.90074006256199
25.830472266727703
28.076600289921416
28.564888990615703
29.346150911726557
29.150835431448844
29.150835431448844
29.150835431448844
29.150835431448844
29.150835431448844
29.150835431448844
28.174258030060273
27.392996108949415
27.588311589227132
25.63515678644999
24.17029068436713
24.4632639047837
22.510109102006563
21.045242999923705
19.385061417563133
17.82253757534142
18.21316853589685
17.13893339436942
16.45532921339742
16.55298695353628
15.576409552147707
14.892805371175708
14.013885709925994
13.232623788815136
13.427939269092851
13.427939269092851
13.427939269092851
13.427939269092851
12.45136186770428
11.670099946593423
11.865415426871138
11.767757686732281
11.767757686732281
10.888838025482567
10.10757610437171
10.302891584649425
9.228656443121995
8.545052262149996
7.763790341039139
6.982528419928283
7.177843900205997
6.103608758678568
5.420004577706569
5.517662317845426
4.541084916456855
3.8574807354848555
3.076218814373999
2.2949568932631417
2.392614633401999
0.43945983062485694
-0.9277485313191425
-0.537117570763714
-2.5879301136797133
-4.052796215762569
-4.638742656595713
-5.420004577706569
-5.322346837567712
-6.298924238956283
-6.982528419928283
-6.787212939650568
-7.861448081177996
-8.545052262149996
-8.349736781872283
-8.44739452201114
-8.44739452201114
-9.326314183260854
-10.10757610437171
-9.912260624093996
-9.033340962844282
-8.252079041733426
-7.470817120622568
-6.6895551995117115
-6.884870679789426
-5.908293278400855
-5.127031357289998
-5.322346837567712
-2.392614633401999
-0.14648661020828566
2.0996414129854277
4.443427176317998
3.9551384756237127
6.884870679789426
9.130998702983138
8.642710002288853
11.572442206454566
13.81857022964828
16.16235599298085
18.506141756313422
17.920195315480278
20.947585259784848
23.096055542839704
22.60776684214542
24.65857938506142
26.123445487144274
27.68596932936599
29.2484931715877
28.857862211032273
29.834439612420844
30.615701533531702
30.420386053253985
31.396963454642556
32.178225375753414
32.95948729686427
33.64309147783627
33.545433737697415
34.52201113908598
35.20561532005799
35.010299839780274
35.010299839780274
35.010299839780274
35.010299839780274
35.010299839780274
35.010299839780274
34.0337224383917
33.252460517280845
33.44777599755856
32.471198596169984
31.68993667505913
30.908674753948272
30.127412832837415
30.22507057297627
29.2484931715877
28.564888990615703
28.66254673075456
28.66254673075456
28.66254673075456
28.66254673075456
28.564888990615703
28.564888990615703
29.541466392004274
30.322728313115128
30.127412832837415
30.127412832837415
30.127412832837415
29.150835431448844
28.369573510337986
28.564888990615703
27.588311589227132
26.807049668116274
27.002365148393988
25.049210345616846
23.48668650339513
22.90074006256199
22.119478141451133
22.21713588158999
20.263981078812847
18.799114976729992
19.092088197146563
18.11551079575799
17.334248874647134
15.576409552147707
14.11154345006485
14.404516670481422
12.45136186770428
10.986495765621424
11.279468986037996
8.349736781872283
6.103608758678568
4.736400396734569
3.076218814373999
3.466849774929427
0.537117570763714
-1.6113527122911422
-1.1230640115968566
-2.197299153124285
-2.8809033340962844
-6.494239719233997
-9.521629663538567
-8.838025482566568
-13.81857022964828
-17.43190661478599
-16.650644693675137
-19.678034637979707
-21.826504921034562
-21.338216220340275
-21.43587396047913
-21.43587396047913
-17.627222095063708
-14.599832150759136
-15.283436331731137
-8.44739452201114
-3.2715342946517127
3.076218814373999
9.326314183260854
7.861448081177996
14.892805371175708
19.971007858396277
18.89677271686885
22.90074006256199
25.830472266727703
25.146868085755703
25.342183566033416
25.24452582589456
25.24452582589456
25.24452582589456
25.24452582589456
24.267948424505988
23.58434424353399
21.826504921034562
20.263981078812847
20.654612039368278
18.60379949645228
17.13893339436942
17.43190661478599
15.47875181200885
14.013885709925994
12.45136186770428
10.888838025482567
11.181811245899137
9.228656443121995
7.763790341039139
8.05676356145571
6.103608758678568
4.638742656595713
2.9785610742351416
1.416037232013428
1.8066681925688564
-0.04882887006942855
-1.513694972152285
-1.2207217517357138
-2.2949568932631417
-2.9785610742351416
-4.736400396734569
-6.201266498817426
-5.908293278400855
-6.884870679789426
-7.666132600900283
-7.470817120622568
-7.568474860761425
-7.470817120622568
-8.44739452201114
-9.228656443121995
-9.033340962844282
-9.033340962844282
-9.033340962844282
-9.033340962844282
-8.05676356145571
-7.373159380483711
-7.568474860761425
-7.470817120622568
-7.470817120622568
-6.494239719233997
-5.810635538261997
-5.908293278400855
-4.931715877012284
-4.248111696040284
-4.345769436179141
-4.345769436179141
-4.345769436179141
-3.36919203479057
-2.68558785381857
-2.783245593957427
-2.783245593957427
-2.783245593957427
-2.783245593957427
-2.783245593957427
-2.783245593957427
-3.7598229953459983
-4.443427176317998
-4.345769436179141
-4.345769436179141
-4.345769436179141
-5.322346837567712
-6.005951018539712
-5.908293278400855
-6.884870679789426
-7.568474860761425
-7.373159380483711
-7.470817120622568
-7.470817120622568
-5.517662317845426
-4.052796215762569
-4.345769436179141
-1.416037232013428
0.6347753109025711
0.14648661020828566
4.150453955901427
7.080186160067139
11.181811245899137
14.990463111314565
14.209201190203707
19.092088197146563
22.803082322423133
21.92416266117342
25.049210345616846
27.1976806286717
29.541466392004274
31.885252155336843
31.396963454642556
31.494621194781413
31.396963454642556
31.396963454642556
31.396963454642556
31.396963454642556
30.420386053253985
29.63912413214313
29.834439612420844
28.857862211032273
28.076600289921416
28.27191577019913
26.318760967421987
24.853894865339132
23.19371328297856
21.63118944075685
22.021820401312276
19.971007858396277
18.506141756313422
18.89677271686885
16.84596017395285
15.381094071869994
13.81857022964828
12.256046387426567
12.549019607843137
10.595864805065995
9.130998702983138
9.42397192339971
7.470817120622568
6.005951018539712
3.466849774929427
1.1230640115968566
1.6113527122911422
-1.2207217517357138
-3.466849774929427
-2.9785610742351416
-4.931715877012284
-6.39658197909514
-7.959105821316854
-9.521629663538567
-9.228656443121995
-11.181811245899137
-12.646677347981994
-12.353704127565424
-14.306858930342566
-15.771725032425422
-16.357671473258563
-17.236591134508277
-17.041275654230564
-18.994430457007706
-20.45929655909056
-20.068665598535134
-22.021820401312276
-23.48668650339513
-25.146868085755703
-26.61173418783856
-26.318760967421987
-28.27191577019913
-29.736781872281988
-29.443808651865414
-30.420386053253985
-31.103990234225986
-31.885252155336843
-32.6665140764477
-32.471198596169984
-33.44777599755856
-34.22903791866941
-34.0337224383917
-35.010299839780274
-35.69390402075227
-36.475165941863125
-37.256427862973986
-37.06111238269627
-37.15877012283513
-37.06111238269627
-37.06111238269627
-37.06111238269627
-37.06111238269627
-38.03768978408484
-38.72129396505684
-38.525978484779124
-39.5025558861677
-40.28381780727855
-40.08850232700084
-40.08850232700084
-40.08850232700084
-36.27985046158541
-33.252460517280845
-33.93606469825284
-28.076600289921416
-23.58434424353399
-24.560921644922562
-16.748302433813993
-10.79118028534371
-3.5645075150682843
3.36919203479057
1.8066681925688564
8.838025482566568
13.916227969787137
12.74433508812085
17.82253757534142
21.43587396047913
21.63118944075685
22.510109102006563
22.314793621728846
22.314793621728846
22.314793621728846
22.314793621728846
21.338216220340275
20.55695429922942
18.89677271686885
17.334248874647134
17.627222095063708
15.674067292286564
14.209201190203707
14.50217441062028
12.549019607843137
11.08415350576028
7.568474860761425
4.541084916456855
5.224689097428855
1.2207217517357138
-1.6113527122911422
-0.9277485313191425
-4.931715877012284
-7.861448081177996
-10.986495765621424
-14.11154345006485
-13.427939269092851
-16.45532921339742
-18.60379949645228
-18.11551079575799
-20.16632333867399
-21.63118944075685
-23.19371328297856
-24.756237125200276
-24.365606164644845
-26.416418707560844
-27.881284809643702
-27.49065384908827
-28.564888990615703
-29.2484931715877
-30.029755092698558
-30.811017013809415
-30.615701533531702
-31.592278934920273
-32.27588311589227
-32.178225375753414
-32.178225375753414
-32.178225375753414
-33.05714503700313
-33.838406958113985
-33.64309147783627
-34.61966887922484
-35.4009308003357
-35.20561532005799
-35.20561532005799
-35.20561532005799
-36.182192721446555
-36.86579690241855
-36.67048142214084
-37.64705882352941
-38.42832074464027
-38.23300526436255
-38.23300526436255
-38.23300526436255
-38.23300526436255
-38.23300526436255
-38.23300526436255
-38.1353475242237
-38.1353475242237
-38.1353475242237
-38.1353475242237
-38.1353475242237
-37.15877012283513
-36.37750820172427
-36.57282368200198
-35.596246280613414
-34.81498435950255
-34.91264209964141
-32.95948729686427
-31.494621194781413
-28.95551995117113
-26.709391927977418
-27.1976806286717
-24.17029068436713
-21.92416266117342
-22.412451361867703
-18.506141756313422
-15.576409552147707
-12.353704127565424
-9.228656443121995
-10.009918364232853
-7.861448081177996
-6.39658197909514
-6.787212939650568
-4.736400396734569
-3.2715342946517127
-2.68558785381857
-1.9043259327077133
-2.0019836728465705
-1.0254062714579995
-0.34180209048599985
-0.43945983062485694
-1.416037232013428
-2.0996414129854277
-2.9785610742351416
-3.7598229953459983
-3.5645075150682843
-4.541084916456855
-5.224689097428855
-5.127031357289998
-7.959105821316854
-10.205233844510566
-11.670099946593423
-13.232623788815136
-12.84199282825971
-15.771725032425422
-18.017853055619135
-17.52956435492485
-20.45929655909056
-22.705424582284277
-24.072632944228275
-25.63515678644999
-25.342183566033416
-27.295338368810558
-28.760204470893417
-28.369573510337986
-30.420386053253985
-31.885252155336843
-32.471198596169984
-33.252460517280845
-33.05714503700313
-33.15480277714199
-33.05714503700313
-33.05714503700313
-32.08056763561456
-31.396963454642556
-30.518043793392845
-29.736781872281988
-29.9320973525597
-27.97894254978256
-26.514076447699704
-26.807049668116274
-25.732814526588847
-25.049210345616846
-23.291371023117417
-21.728847180895706
-22.119478141451133
-20.068665598535134
-18.60379949645228
-18.89677271686885
-18.89677271686885
-18.89677271686885
-17.920195315480278
-17.13893339436942
-17.334248874647134
-18.21316853589685
-18.994430457007706
-18.799114976729992
-18.799114976729992
-18.799114976729992
-18.799114976729992
-18.799114976729992
-18.799114976729992
-17.82253757534142
-17.13893339436942
-17.236591134508277
-16.260013733119706
-15.47875181200885
-13.81857022964828
-12.256046387426567
-12.549019607843137
-10.595864805065995
-9.130998702983138
-9.42397192339971
-5.517662317845426
-2.5879301136797133
-1.3183794918745708
0.14648661020828566
-0.04882887006942855
-0.9277485313191425
-1.7090104524299992
-1.513694972152285
-0.6347753109025711
0.04882887006942855
2.68558785381857
5.0293736171511405
4.541084916456855
9.42397192339971
13.037308308537423
12.256046387426567
19.092088197146563
24.267948424505988
30.71335927367056
36.96345464255741
35.49858854047456
41.5533684290837
45.947966735332265
44.97138933394369
47.998779278248264
50.14724956130312
48.68238345922026
48.09643701838712
48.19409475852598
47.21751735713741
46.43625543602655
46.63157091630426
45.55733577477684
44.873731593804834
43.99481193255512
43.21355001144427
43.40886549172198
42.43228809033341
41.651026169222554
41.74868390936141
39.79552910658427
38.33066300450141
37.74471656366827
36.86579690241855
37.06111238269627
35.10795757991913
33.64309147783627
33.93606469825284
32.86182955672541
32.178225375753414
30.420386053253985
28.857862211032273
29.150835431448844
27.1976806286717
25.732814526588847
26.025787747005417
24.95155260547799
24.267948424505988
22.510109102006563
20.947585259784848
21.338216220340275
21.24055848020142
21.24055848020142
21.24055848020142
20.263981078812847
19.48271915770199
20.654612039368278
21.338216220340275
21.14290074006256
21.24055848020142
21.14290074006256
21.14290074006256
21.14290074006256
21.14290074006256
22.119478141451133
22.803082322423133
22.705424582284277
21.728847180895706
20.947585259784848
21.14290074006256
20.16632333867399
19.385061417563133
18.60379949645228
17.82253757534142
18.017853055619135
17.041275654230564
16.260013733119706
16.45532921339742
15.381094071869994
14.697489890897993
13.916227969787137
13.13496604867628
13.232623788815136
13.232623788815136
13.232623788815136
13.232623788815136
14.209201190203707
14.892805371175708
15.674067292286564
16.45532921339742
16.260013733119706
18.21316853589685
19.678034637979707
19.385061417563133
21.338216220340275
22.803082322423133
25.342183566033416
27.588311589227132
27.100022888532845
30.127412832837415
32.27588311589227
31.787594415197987
33.74074921797513
35.20561532005799
36.768139162279695
38.33066300450141
38.03768978408484
39.014267185473415
39.69787136644541
39.600213626306555
40.57679102769512
41.26039520866713
41.065079728389414
41.065079728389414
41.065079728389414
40.08850232700084
39.40489814602884
39.5025558861677
38.525978484779124
37.74471656366827
35.98687724116884
34.52201113908598
34.81498435950255
32.764171816586554
31.2993057145037
31.68993667505913
29.63912413214313
28.174258030060273
26.61173418783856
25.049210345616846
25.342183566033416
22.412451361867703
20.16632333867399
20.654612039368278
18.60379949645228
17.13893339436942
16.55298695353628
15.771725032425422
15.869382772564279
13.916227969787137
12.45136186770428
12.74433508812085
11.767757686732281
10.986495765621424
9.326314183260854
7.763790341039139
8.05676356145571
7.080186160067139
6.298924238956283
6.494239719233997
5.517662317845426
4.736400396734569
2.9785610742351416
1.513694972152285
1.8066681925688564
-0.04882887006942855
-1.513694972152285
-1.2207217517357138
-2.197299153124285
-2.9785610742351416
-4.736400396734569
-6.201266498817426
-5.908293278400855
-6.884870679789426
-7.666132600900283
-7.470817120622568
-7.470817120622568
-7.470817120622568
-7.470817120622568
-7.470817120622568
-7.470817120622568
-7.470817120622568
-7.470817120622568
-7.470817120622568
-7.470817120622568
-7.470817120622568
-7.470817120622568
-7.470817120622568
-7.470817120622568
-8.44739452201114
-9.130998702983138
-9.033340962844282
-10.009918364232853
-10.693522545204852
-11.47478446631571
-12.256046387426567
-12.060730907148852
-12.158388647287708
-12.158388647287708
-12.158388647287708
-11.181811245899137
-10.400549324788281
-11.572442206454566
-12.256046387426567
-12.060730907148852
-13.037308308537423
-13.81857022964828
-13.623254749370565
-14.599832150759136
-15.381094071869994
-13.232623788815136
-11.767757686732281
-12.158388647287708
-8.252079041733426
-5.322346837567712
-5.908293278400855
0.8300907911802854
6.005951018539712
12.45136186770428
18.60379949645228
17.236591134508277
23.291371023117417
27.68596932936599
26.709391927977418
28.857862211032273
30.22507057297627
27.97894254978256
26.61173418783856
26.90470740825513
23.974975204089418
21.728847180895706
22.21713588158999
19.18974593728542
17.041275654230564
13.720912489509422
10.595864805065995
11.279468986037996
7.275501640344854
4.345769436179141
5.0293736171511405
1.0254062714579995
-1.8066681925688564
-4.931715877012284
-8.05676356145571
-7.373159380483711
-10.400549324788281
-12.549019607843137
-12.060730907148852
-14.11154345006485
-15.576409552147707
-18.11551079575799
-20.361638818951704
-19.87335011825742
-21.92416266117342
-23.291371023117417
-22.998397802700847
-24.95155260547799
-26.416418707560844
-27.97894254978256
-29.541466392004274
-29.2484931715877
-30.22507057297627
-30.908674753948272
-30.811017013809415
-32.6665140764477
-34.22903791866941
-34.81498435950255
-35.596246280613414
-35.4009308003357
-36.37750820172427
-37.15877012283513
-36.96345464255741
-37.94003204394598
-38.62363622491798
-39.40489814602884
-40.186160067139696
-39.99084458686198
-40.96742198825055
-41.74868390936141
-41.5533684290837
-42.529945830472265
-43.21355001144427
-43.99481193255512
-44.77607385366598
-44.580758373388264
-44.580758373388264
-44.580758373388264
-44.580758373388264
-45.55733577477684
-46.240939955748836
-45.069047074082555
-44.38544289311055
-44.48310063324941
-43.50652323186084
-42.822919050888835
-42.92057679102769
-40.96742198825055
-39.5025558861677
-36.96345464255741
-34.61966887922484
-35.10795757991913
-31.201647974364842
-28.174258030060273
-28.857862211032273
-23.974975204089418
-20.263981078812847
-17.236591134508277
-14.11154345006485
-14.795147631036851
-10.79118028534371
-7.861448081177996
-8.545052262149996
-4.541084916456855
-1.6113527122911422
1.416037232013428
4.541084916456855
3.8574807354848555
6.884870679789426
9.130998702983138
8.642710002288853
9.619287403677424
10.400549324788281
11.181811245899137
11.963073167009995
11.767757686732281
11.767757686732281
11.767757686732281
11.767757686732281
10.79118028534371
10.10757610437171
9.326314183260854
8.545052262149996
8.642710002288853
7.666132600900283
6.982528419928283
7.080186160067139
6.103608758678568
5.420004577706569
5.517662317845426
5.517662317845426
5.517662317845426
4.541084916456855
3.7598229953459983
3.9551384756237127
2.9785610742351416
2.197299153124285
1.416037232013428
0.6347753109025711
0.8300907911802854
-0.04882887006942855
-0.8300907911802854
-0.6347753109025711
-2.5879301136797133
-4.052796215762569
-5.615320057984283
-7.177843900205997
-6.787212939650568
-8.838025482566568
-10.302891584649425
-9.912260624093996
-11.963073167009995
-13.427939269092851
-14.013885709925994
-14.795147631036851
-14.599832150759136
-15.674067292286564
-16.357671473258563
-16.16235599298085
-17.13893339436942
-17.920195315480278
-18.701457236591136
-19.48271915770199
-19.287403677424276
-20.263981078812847
-21.045242999923705
-20.84992751964599
-21.826504921034562
-22.510109102006563
-22.412451361867703
-22.412451361867703
-22.412451361867703
-22.412451361867703
-22.412451361867703
-22.412451361867703
-21.43587396047913
-20.654612039368278
-19.87335011825742
-19.092088197146563
-19.287403677424276
-16.357671473258563
-14.11154345006485
-14.599832150759136
-11.670099946593423
-9.42397192339971
-6.103608758678568
-2.9785610742351416
-3.662165255207141
1.1230640115968566
4.834058136873426
3.9551384756237127
8.935683222705425
12.646677347981994
12.74433508812085
13.720912489509422
13.427939269092851
11.572442206454566
10.10757610437171
10.400549324788281
8.44739452201114
6.982528419928283
6.298924238956283
5.517662317845426
5.71297779812314
6.591897459372854
7.373159380483711
7.177843900205997
10.10757610437171
12.353704127565424
16.55298695353628
20.361638818951704
19.58037689784085
24.4632639047837
28.174258030060273
27.392996108949415
29.443808651865414
30.908674753948272
28.66254673075456
27.1976806286717
27.49065384908827
26.514076447699704
25.732814526588847
25.92813000686656
23.974975204089418
22.412451361867703
21.826504921034562
21.045242999923705
21.14290074006256
19.18974593728542
17.724879835202564
18.017853055619135
17.041275654230564
16.260013733119706
15.47875181200885
14.697489890897993
14.892805371175708
12.939650568398566
11.47478446631571
11.767757686732281
10.693522545204852
10.009918364232853
9.228656443121995
8.44739452201114
8.642710002288853
7.568474860761425
6.884870679789426
6.982528419928283
6.982528419928283
6.982528419928283
6.005951018539712
5.322346837567712
5.420004577706569
6.39658197909514
7.080186160067139
6.982528419928283
6.982528419928283
6.982528419928283
7.959105821316854
8.642710002288853
8.545052262149996
8.545052262149996
8.545052262149996
8.545052262149996
8.545052262149996
8.545052262149996
7.568474860761425
6.787212939650568
6.982528419928283
6.982528419928283
6.982528419928283
6.982528419928283
6.005951018539712
5.224689097428855
6.39658197909514
7.080186160067139
6.884870679789426
8.838025482566568
10.302891584649425
10.009918364232853
13.916227969787137
16.84596017395285
19.971007858396277
23.096055542839704
22.412451361867703
28.27191577019913
32.6665140764477
31.68993667505913
36.67048142214084
40.28381780727855
44.28778515297169
48.19409475852598
47.31517509727627
52.19806210421912
55.90905622949569
55.03013656824598
59.03410391393912
61.96383611810483
64.11230640115969
66.45609216449226
65.96780346379796
67.92095826657511
69.38582436865796
68.99519340810254
70.06942854962998
70.75303273060197
71.53429465171283
72.31555657282368
72.12024109254597
71.1436636911574
70.36240177004655
70.55771725032426
67.62798504615854
65.38185702296482
62.9404135194934
60.59662775616083
61.08491645685512
58.057526512550545
55.90905622949569
56.39734493018997
52.39337758449683
49.46364538033112
47.21751735713741
44.873731593804834
45.362020294499125
42.33463035019455
40.08850232700084
40.57679102769512
36.67048142214084
33.74074921797513
30.518043793392845
27.392996108949415
28.076600289921416
25.049210345616846
22.90074006256199
23.389028763256274
19.385061417563133
16.45532921339742
14.209201190203707
11.865415426871138
12.353704127565424
9.42397192339971
7.177843900205997
7.666132600900283
4.736400396734569
2.490272373540856
1.1230640115968566
-0.43945983062485694
-0.04882887006942855
-2.0019836728465705
-3.466849774929427
-3.1738765545128556
-5.127031357289998
-6.591897459372854
-7.275501640344854
-8.05676356145571
-7.861448081177996
-8.838025482566568
-9.619287403677424
-9.42397192339971
-11.377126726176853
-12.84199282825971
-13.525597009231708
-14.306858930342566
-14.11154345006485
-16.064698252841993
-17.52956435492485
-17.236591134508277
-19.18974593728542
-20.654612039368278
-22.21713588158999
-23.779659723811704
-23.389028763256274
-25.342183566033416
-26.807049668116274
-26.514076447699704
-26.61173418783856
-26.514076447699704
-26.514076447699704
-26.514076447699704
-26.514076447699704
-24.560921644922562
-23.096055542839704
-23.48668650339513
-20.45929655909056
-18.310826276035705
-15.869382772564279
-13.525597009231708
-14.11154345006485
-11.08415350576028
-8.838025482566568
-9.326314183260854
-6.39658197909514
-4.150453955901427
-5.615320057984283
-6.298924238956283
-6.103608758678568
-10.888838025482567
-14.599832150759136
-13.81857022964828
-17.82253757534142
-20.752269779507134
-21.92416266117342
-23.58434424353399
-23.19371328297856
-23.291371023117417
-23.291371023117417
-23.291371023117417
-20.361638818951704
-18.11551079575799
-14.795147631036851
-11.767757686732281
-12.45136186770428
-8.44739452201114
-5.517662317845426
-6.201266498817426
-6.005951018539712
-6.005951018539712
-7.959105821316854
-9.42397192339971
-9.130998702983138
-11.08415350576028
-12.549019607843137
-12.256046387426567
-14.209201190203707
-15.674067292286564
-18.21316853589685
-20.45929655909056
-19.971007858396277
-22.021820401312276
-23.389028763256274
-23.096055542839704
-25.049210345616846
-26.514076447699704
-28.076600289921416
-29.63912413214313
-29.346150911726557
-32.27588311589227
-34.424353398947126
-33.93606469825284
-35.98687724116884
-37.35408560311284
-39.014267185473415
-40.479133287556266
-40.186160067139696
-41.16273746852827
-41.84634164950027
-41.74868390936141
-43.604180971999696
-45.069047074082555
-45.75265125505455
-46.533913176165406
-46.33859769588769
-48.291752498664835
-49.75661860074769
-49.365987640192266
-50.34256504158083
-51.123826962691695
-52.78400854505226
-54.346532387273975
-53.95590142671855
-55.03013656824598
-55.713740749217976
-55.51842526894026
-57.471580071717405
-58.936446173800256
-60.49897001602197
-61.96383611810483
-61.67086289768826
-62.64744029907683
-63.33104448004883
-63.13572899977112
-63.233386739909974
-63.13572899977112
-62.15915159838254
-61.475547417410546
-61.5732051575494
-59.62005035477226
-58.1551842526894
-58.44815747310597
-54.54184786755169
-51.51445792324712
-49.365987640192266
-46.92454413672083
-47.412832837415124
-42.529945830472265
-38.818951705195694
-39.600213626306555
-35.596246280613414
-32.6665140764477
-29.541466392004274
-26.416418707560844
-27.100022888532845
-24.072632944228275
-21.826504921034562
-22.314793621728846
-18.40848401617456
-15.47875181200885
-12.256046387426567
-9.130998702983138
-9.81460288395514
-6.787212939650568
-4.638742656595713
-5.127031357289998
-1.2207217517357138
1.7090104524299992
2.8809033340962844
4.541084916456855
4.150453955901427
5.224689097428855
5.908293278400855
5.810635538261997
5.810635538261997
5.810635538261997
5.810635538261997
5.810635538261997
5.810635538261997
5.810635538261997
5.810635538261997
5.810635538261997
5.810635538261997
5.810635538261997
5.810635538261997
5.810635538261997
5.810635538261997
5.810635538261997
5.810635538261997
5.810635538261997
5.810635538261997
5.810635538261997
4.834058136873426
4.052796215762569
4.248111696040284
3.2715342946517127
2.490272373540856
2.68558785381857
1.7090104524299992
0.9277485313191425
0.14648661020828566
-0.537117570763714
-0.34180209048599985
-1.3183794918745708
-2.0996414129854277
-1.9043259327077133
-2.8809033340962844
-3.662165255207141
-4.443427176317998
-5.224689097428855
-5.0293736171511405
-6.005951018539712
-6.787212939650568
-6.591897459372854
-7.568474860761425
-8.349736781872283
-9.130998702983138
-9.912260624093996
-9.71694514381628
-10.693522545204852
-11.377126726176853
-11.279468986037996
-12.256046387426567
-12.939650568398566
-13.720912489509422
-14.50217441062028
-14.404516670481422
-14.404516670481422
-14.404516670481422
-14.404516670481422
-14.404516670481422
-14.404516670481422
-12.45136186770428
-10.986495765621424
-11.279468986037996
-9.326314183260854
-7.861448081177996
-8.154421301594567
-4.248111696040284
-1.3183794918745708
2.68558785381857
6.591897459372854
5.71297779812314
10.693522545204852
14.306858930342566
13.525597009231708
18.506141756313422
22.119478141451133
25.146868085755703
28.27191577019913
27.588311589227132
30.615701533531702
32.764171816586554
32.27588311589227
35.20561532005799
37.4517433432517
36.96345464255741
37.06111238269627
36.96345464255741
34.131380178530556
31.885252155336843
32.37354085603113
29.346150911726557
27.1976806286717
27.68596932936599
27.49065384908827
27.588311589227132
29.443808651865414
30.908674753948272
30.615701533531702
34.424353398947126
37.35408560311284
41.45571068894484
45.362020294499125
44.48310063324941
48.48706797894255
51.416800183108265
50.73319600213626
51.80743114366369
52.49103532463569
50.44022278171969
48.97535667963683
49.26832990005341
47.21751735713741
45.75265125505455
46.04562447547112
44.09246967269398
42.62760357061112
40.96742198825055
39.40489814602884
39.79552910658427
38.72129396505684
38.03768978408484
38.1353475242237
36.182192721446555
34.717326619363696
33.05714503700313
31.494621194781413
31.885252155336843
29.834439612420844
28.369573510337986
28.760204470893417
25.732814526588847
23.58434424353399
20.16632333867399
17.13893339436942
17.82253757534142
12.84199282825971
9.228656443121995
10.009918364232853
6.005951018539712
3.076218814373999
-0.9277485313191425
-4.834058136873426
-3.9551384756237127
-6.982528419928283
-9.228656443121995
-8.74036774242771
-11.670099946593423
-13.916227969787137
-14.306858930342566
-15.185778591592278
-14.990463111314565
-15.967040512703136
-16.748302433813993
-16.55298695353628
-16.55298695353628
-16.55298695353628
-16.55298695353628
-16.55298695353628
-16.55298695353628
-15.576409552147707
-14.795147631036851
-14.990463111314565
-13.037308308537423
-11.572442206454566
-10.009918364232853
-8.44739452201114
-8.74036774242771
-6.787212939650568
-5.322346837567712
-5.615320057984283
-1.7090104524299992
1.1230640115968566
4.248111696040284
7.373159380483711
6.6895551995117115
10.693522545204852
13.623254749370565
12.939650568398566
16.943617914091707
19.87335011825742
22.021820401312276
24.4632639047837
23.87731746395056
26.90470740825513
29.053177691309987
28.564888990615703
29.63912413214313
30.322728313115128
30.127412832837415
30.127412832837415
30.127412832837415
29.150835431448844
28.467231250476843
28.564888990615703
27.588311589227132
26.807049668116274
25.146868085755703
23.58434424353399
23.87731746395056
20.947585259784848
18.701457236591136
19.18974593728542
17.236591134508277
15.771725032425422
13.232623788815136
10.888838025482567
11.377126726176853
10.302891584649425
9.619287403677424
9.71694514381628
8.74036774242771
8.05676356145571
7.275501640344854
6.494239719233997
6.591897459372854
5.615320057984283
4.931715877012284
5.0293736171511405
3.076218814373999
1.6113527122911422
0.04882887006942855
-1.416037232013428
-1.0254062714579995
-2.0996414129854277
-2.783245593957427
-2.68558785381857
-4.638742656595713
-6.103608758678568
-6.6895551995117115
-7.568474860761425
-7.373159380483711
-8.349736781872283
-9.033340962844282
-8.935683222705425
-9.912260624093996
-10.595864805065995
-12.353704127565424
-13.916227969787137
-13.525597009231708
-15.47875181200885
-16.943617914091707
-16.650644693675137
-18.60379949645228
-20.068665598535134
-21.63118944075685
-23.19371328297856
-22.90074006256199
-24.853894865339132
-26.318760967421987
-25.92813000686656
-27.002365148393988
-27.68596932936599
-29.443808651865414
-30.908674753948272
-30.615701533531702
-31.592278934920273
-32.37354085603113
-32.178225375753414
-32.178225375753414
-32.178225375753414
-32.178225375753414
-32.178225375753414
-32.178225375753414
-30.22507057297627
-28.760204470893417
-29.053177691309987
-26.123445487144274
-23.87731746395056
-20.55695429922942
-17.43190661478599
-18.11551079575799
-14.209201190203707
-11.181811245899137
-11.865415426871138
-7.959105821316854
-4.931715877012284
-2.783245593957427
-0.34180209048599985
-0.9277485313191425
2.0019836728465705
4.150453955901427
3.662165255207141
6.6895551995117115
8.838025482566568
8.349736781872283
8.44739452201114
8.44739452201114
5.615320057984283
3.36919203479057
3.8574807354848555
0.8300907911802854
-1.2207217517357138
-2.68558785381857
-4.248111696040284
-3.8574807354848555
-3.9551384756237127
-3.9551384756237127
-3.9551384756237127
-2.0019836728465705
-0.537117570763714
0.9277485313191425
2.490272373540856
2.0996414129854277
4.150453955901427
5.615320057984283
5.224689097428855
5.322346837567712
5.322346837567712
2.490272373540856
0.24414435034714274
0.7324330510414282
-1.2207217517357138
-2.68558785381857
-2.2949568932631417
-4.345769436179141
-5.810635538261997
-7.373159380483711
-8.935683222705425
-8.545052262149996
-10.595864805065995
-12.060730907148852
-11.670099946593423
-13.623254749370565
-15.088120851453422
-16.748302433813993
-18.310826276035705
-17.920195315480278
-19.87335011825742
-21.338216220340275
-21.045242999923705
-22.998397802700847
-24.4632639047837
-25.049210345616846
-25.92813000686656
-25.732814526588847
-26.709391927977418
-27.392996108949415
-27.1976806286717
-28.174258030060273
-28.95551995117113
-28.760204470893417
-28.760204470893417
-28.760204470893417
-28.760204470893417
-28.760204470893417
-28.760204470893417
-27.783627069504846
-27.002365148393988
-27.1976806286717
-27.1976806286717
-27.1976806286717
-26.22110322728313
-25.439841306172273
-25.63515678644999
-24.560921644922562
-23.87731746395056
-22.119478141451133
-20.55695429922942
-20.947585259784848
-17.920195315480278
-15.771725032425422
-16.260013733119706
-13.232623788815136
-11.08415350576028
-8.642710002288853
-6.298924238956283
-6.884870679789426
-2.8809033340962844
0.04882887006942855
-0.6347753109025711
1.3183794918745708
2.783245593957427
4.345769436179141
5.908293278400855
5.615320057984283
7.568474860761425
9.033340962844282
8.74036774242771
10.693522545204852
12.158388647287708
12.74433508812085
13.623254749370565
13.427939269092851
14.404516670481422
15.088120851453422
14.990463111314565
15.967040512703136
16.650644693675137
16.55298695353628
16.55298695353628
16.55298695353628
15.576409552147707
14.795147631036851
14.990463111314565
12.060730907148852
9.81460288395514
8.44739452201114
6.787212939650568
7.177843900205997
4.248111696040284
2.0019836728465705
2.490272373540856
0.537117570763714
-0.8300907911802854
-2.490272373540856
-4.052796215762569
-3.662165255207141
-4.736400396734569
-5.420004577706569
-5.224689097428855
-6.201266498817426
-6.982528419928283
-7.763790341039139
-8.545052262149996
-8.349736781872283
-9.326314183260854
-10.10757610437171
-9.912260624093996
-10.888838025482567
-11.670099946593423
-12.45136186770428
-13.232623788815136
-13.037308308537423
-14.013885709925994
-14.697489890897993
-14.599832150759136
-16.55298695353628
-18.017853055619135
-18.60379949645228
-19.385061417563133
-19.18974593728542
-20.263981078812847
-20.947585259784848
-20.752269779507134
-21.728847180895706
-22.510109102006563
-23.291371023117417
-24.072632944228275
-23.87731746395056
-24.853894865339132
-25.537499046311133
-25.439841306172273
-26.416418707560844
-27.100022888532845
-27.881284809643702
-28.66254673075456
-28.467231250476843
-28.467231250476843
-28.467231250476843
-28.467231250476843
-28.467231250476843
-28.467231250476843
-27.49065384908827
-26.709391927977418
-26.90470740825513
-25.92813000686656
-25.146868085755703
-25.342183566033416
-24.365606164644845
-23.58434424353399
-20.84992751964599
-18.60379949645228
-19.092088197146563
-16.16235599298085
-13.916227969787137
-14.404516670481422
-10.498207064927138
-7.470817120622568
-3.36919203479057
0.34180209048599985
-0.43945983062485694
3.5645075150682843
6.494239719233997
5.810635538261997
10.693522545204852
14.404516670481422
16.45532921339742
18.799114976729992
18.310826276035705
21.24055848020142
23.48668650339513
22.998397802700847
24.072632944228275
24.756237125200276
22.705424582284277
21.24055848020142
21.533531700617992
14.795147631036851
9.521629663538567
10.693522545204852
4.736400396734569
0.34180209048599985
-2.392614633401999
-5.615320057984283
-4.931715877012284
-6.982528419928283
-8.44739452201114
-8.05676356145571
-5.322346837567712
-3.076218814373999
1.1230640115968566
4.931715877012284
4.150453955901427
10.009918364232853
14.404516670481422
13.427939269092851
15.576409552147707
17.041275654230564
16.650644693675137
16.748302433813993
16.748302433813993
16.748302433813993
16.748302433813993
16.748302433813993
16.748302433813993
16.748302433813993
15.771725032425422
14.990463111314565
15.185778591592278
13.232623788815136
11.767757686732281
12.060730907148852
10.986495765621424
10.302891584649425
7.568474860761425
5.322346837567712
5.810635538261997
3.7598229953459983
2.2949568932631417
2.68558785381857
1.6113527122911422
0.9277485313191425
0.14648661020828566
-0.537117570763714
-0.43945983062485694
-1.416037232013428
-2.0996414129854277
-2.0019836728465705
-2.9785610742351416
-3.662165255207141
-4.443427176317998
-5.224689097428855
-5.0293736171511405
-6.103608758678568
-6.787212939650568
-6.591897459372854
-7.666132600900283
-8.349736781872283
-8.154421301594567
-8.252079041733426
-8.252079041733426
-7.275501640344854
-6.494239719233997
-6.6895551995117115
-3.7598229953459983
-1.513694972152285
1.7090104524299992
4.736400396734569
4.052796215762569
8.05676356145571
10.986495765621424
10.302891584649425
14.306858930342566
17.236591134508277
20.361638818951704
23.48668650339513
22.803082322423133
25.830472266727703
27.97894254978256
27.49065384908827
30.420386053253985
32.6665140764477
34.0337224383917
35.596246280613414
35.303273060196844
37.256427862973986
38.72129396505684
38.33066300450141
40.28381780727855
41.74868390936141
41.45571068894484
41.5533684290837
41.45571068894484
41.45571068894484
41.45571068894484
41.45571068894484
39.5025558861677
38.03768978408484
36.475165941863125
34.81498435950255
35.20561532005799
32.27588311589227
30.029755092698558
30.518043793392845
27.49065384908827
25.342183566033416
22.90074006256199
20.55695429922942
21.14290074006256
19.092088197146563
17.627222095063708
17.920195315480278
15.967040512703136
14.50217441062028
14.795147631036851
14.697489890897993
14.697489890897993
14.697489890897993
14.697489890897993
14.697489890897993
14.697489890897993
14.697489890897993
13.720912489509422
12.939650568398566
13.13496604867628
13.13496604867628
13.13496604867628
13.13496604867628
12.158388647287708
11.377126726176853
10.595864805065995
9.81460288395514
10.009918364232853
8.05676356145571
6.591897459372854
6.884870679789426
5.810635538261997
5.127031357289998
3.36919203479057
1.8066681925688564
2.197299153124285
0.24414435034714274
-1.1230640115968566
-0.8300907911802854
-2.783245593957427
-4.248111696040284
-6.787212939650568
-9.130998702983138
-8.642710002288853
-11.572442206454566
-13.81857022964828
-13.330281528953995
-16.260013733119706
-18.40848401617456
-19.87335011825742
-21.43587396047913
-21.14290074006256
-23.096055542839704
-24.560921644922562
-24.17029068436713
-23.291371023117417
-22.510109102006563
-19.87335011825742
-17.52956435492485
-18.11551079575799
-13.13496604867628
-9.521629663538567
-10.302891584649425
-4.345769436179141
0.04882887006942855
4.638742656595713
9.326314183260854
8.349736781872283
15.185778591592278
20.361638818951704
19.18974593728542
25.146868085755703
29.541466392004274
33.3501182574197
37.256427862973986
36.37750820172427
40.38147554741741
43.311207751583126
