ppg
1.8066681925688564
3.9551384756237127
6.39658197909514
8.74036774242771
8.154421301594567
11.181811245899137
13.330281528953995
12.84199282825971
15.869382772564279
18.017853055619135
20.361638818951704
22.705424582284277
22.21713588158999
25.146868085755703
27.392996108949415
26.90470740825513
27.881284809643702
28.66254673075456
29.443808651865414
30.22507057297627
30.029755092698558
28.174258030060273
26.61173418783856
26.90470740825513
24.95155260547799
23.48668650339513
20.947585259784848
18.60379949645228
19.092088197146563
16.16235599298085
13.916227969787137
14.404516670481422
12.45136186770428
10.986495765621424
10.302891584649425
9.521629663538567
9.71694514381628
8.642710002288853
7.959105821316854
8.05676356145571
8.05676356145571
8.05676356145571
8.05676356145571
8.05676356145571
8.05676356145571
8.05676356145571
8.05676356145571
8.05676356145571
7.080186160067139
6.298924238956283
4.638742656595713
3.076218814373999
3.36919203479057
1.416037232013428
0.04882887006942855
0.24414435034714274
-2.5879301136797133
-4.736400396734569
-7.177843900205997
-9.42397192339971
-8.935683222705425
-11.963073167009995
-14.11154345006485
-13.623254749370565
-16.55298695353628
-18.799114976729992
-20.16632333867399
-21.826504921034562
-21.43587396047913
-24.365606164644845
-26.61173418783856
-26.123445487144274
-30.029755092698558
-32.95948729686427
-36.0845349813077
-39.20958266575113
-38.525978484779124
-41.45571068894484
-43.70183871213855
-43.21355001144427
-46.14328221560998
-48.291752498664835
-49.75661860074769
-51.31914244296941
-50.928511482413974
-51.02616922255284
-50.928511482413974
-50.928511482413974
-49.073014419775696
-47.51049057755398
-44.97138933394369
-42.62760357061112
-43.11589227130541
-38.23300526436255
-34.52201113908598
-35.4009308003357
-29.443808651865414
-25.049210345616846
-20.263981078812847
-15.576409552147707
-16.650644693675137
-11.572442206454566
-7.959105821316854
-8.74036774242771
-4.736400396734569
-1.8066681925688564
1.2207217517357138
4.345769436179141
3.662165255207141
5.71297779812314
7.177843900205997
6.884870679789426
6.884870679789426
6.884870679789426
6.884870679789426
6.884870679789426
6.884870679789426
5.0293736171511405
3.466849774929427
3.8574807354848555
1.8066681925688564
0.34180209048599985
-0.14648661020828566
-0.9277485313191425
-0.8300907911802854
-2.68558785381857
-4.248111696040284
-3.8574807354848555
-3.9551384756237127
-3.9551384756237127
-4.931715877012284
-5.615320057984283
-5.420004577706569
-8.349736781872283
-10.595864805065995
-10.10757610437171
-15.869382772564279
-20.361638818951704
-25.049210345616846
-29.736781872281988
-28.66254673075456
-32.764171816586554
-35.69390402075227
-35.010299839780274
-36.0845349813077
-36.768139162279695
-34.717326619363696
-33.252460517280845
-33.545433737697415
-29.63912413214313
-26.709391927977418
-27.295338368810558
-22.412451361867703
-18.701457236591136
-17.627222095063708
-15.967040512703136
-16.357671473258563
-16.260013733119706
-16.260013733119706
-16.260013733119706
-17.13893339436942
-17.920195315480278
-17.724879835202564
-17.724879835202564
-17.724879835202564
-17.724879835202564
-17.724879835202564
-17.724879835202564
-18.701457236591136
-19.385061417563133
-21.14290074006256
-22.705424582284277
-22.314793621728846
-24.267948424505988
-25.732814526588847
-25.439841306172273
-26.416418707560844
-27.1976806286717
-27.97894254978256
-28.760204470893417
-28.564888990615703
-28.564888990615703
-28.564888990615703
-28.564888990615703
-26.61173418783856
-25.146868085755703
-21.63118944075685
-18.60379949645228
-19.287403677424276
-14.306858930342566
-10.693522545204852
-11.47478446631571
-5.517662317845426
-1.1230640115968566
3.466849774929427
8.154421301594567
7.177843900205997
14.013885709925994
19.18974593728542
18.017853055619135
24.072632944228275
28.369573510337986
33.15480277714199
37.84237430380713
36.768139162279695
39.893186846723125
42.04165712977798
41.5533684290837
42.529945830472265
43.311207751583126
42.13931486991684
41.45571068894484
41.5533684290837
38.62363622491798
36.475165941863125
36.86579690241855
34.91264209964141
33.44777599755856
30.811017013809415
28.564888990615703
29.053177691309987
27.002365148393988
25.537499046311133
25.830472266727703
24.853894865339132
24.072632944228275
22.314793621728846
20.84992751964599
21.14290074006256
19.18974593728542
17.724879835202564
18.017853055619135
16.943617914091707
16.260013733119706
15.47875181200885
14.697489890897993
14.795147631036851
12.84199282825971
11.377126726176853
11.670099946593423
10.693522545204852
9.912260624093996
8.154421301594567
6.6895551995117115
6.982528419928283
6.005951018539712
5.224689097428855
5.420004577706569
4.443427176317998
3.662165255207141
2.8809033340962844
2.0996414129854277
2.2949568932631417
0.34180209048599985
-1.0254062714579995
-0.7324330510414282
-2.68558785381857
-4.150453955901427
-6.6895551995117115
-9.033340962844282
-8.44739452201114
-11.47478446631571
-13.623254749370565
-13.13496604867628
-17.041275654230564
-20.068665598535134
-22.21713588158999
-24.560921644922562
-24.072632944228275
-26.123445487144274
-27.49065384908827
-27.1976806286717
-30.127412832837415
-32.37354085603113
-32.764171816586554
-33.64309147783627
-33.44777599755856
-34.424353398947126
-35.10795757991913
-34.91264209964141
-35.010299839780274
-35.010299839780274
-33.05714503700313
-31.592278934920273
-31.885252155336843
-29.834439612420844
-28.369573510337986
-28.760204470893417
-25.732814526588847
-23.58434424353399
-21.14290074006256
-18.799114976729992
-19.385061417563133
-16.357671473258563
-14.11154345006485
-14.599832150759136
-11.670099946593423
-9.42397192339971
-8.935683222705425
-8.154421301594567
-8.349736781872283
-7.275501640344854
-6.591897459372854
-6.787212939650568
-5.71297779812314
-5.0293736171511405
-6.103608758678568
-6.787212939650568
-6.6895551995117115
-6.6895551995117115
-6.6895551995117115
-6.6895551995117115
-8.642710002288853
-10.10757610437171
-10.693522545204852
-11.47478446631571
-11.377126726176853
-14.209201190203707
-16.45532921339742
-15.967040512703136
-18.89677271686885
-21.14290074006256
-24.4632639047837
-27.49065384908827
-26.807049668116274
-30.811017013809415
-33.74074921797513
-33.05714503700313
-37.94003204394598
-41.651026169222554
-44.580758373388264
-47.705806057831694
-47.0222018768597
-52.881666285191116
-57.27626459143969
-56.29968719005112
-63.233386739909974
-68.31158922713054
-71.92492561226825
-75.83123521782254
-74.95231555657283
-77.00312809948882
-78.46799420157168
-78.07736324101626
-76.22186617837797
-74.75700007629511
-70.26474402990769
-66.45609216449226
-67.23735408560312
-60.401312275883114
-55.22545204852369
-56.29968719005112
-49.365987640192266
-44.19012741283284
-40.57679102769512
-36.57282368200198
-37.4517433432517
-36.27985046158541
-35.596246280613414
-35.79156176089113
-34.717326619363696
-34.0337224383917
-34.131380178530556
-34.131380178530556
-34.131380178530556
-33.15480277714199
-32.37354085603113
-32.56885633630884
-31.494621194781413
-30.811017013809415
-29.053177691309987
-27.49065384908827
-27.881284809643702
-25.830472266727703
-24.365606164644845
-24.65857938506142
-20.752269779507134
-17.82253757534142
-12.74433508812085
-8.154421301594567
-9.130998702983138
-3.1738765545128556
1.1230640115968566
0.14648661020828566
6.103608758678568
10.498207064927138
14.306858930342566
18.21316853589685
17.334248874647134
21.338216220340275
24.267948424505988
23.58434424353399
27.588311589227132
30.518043793392845
32.6665140764477
35.010299839780274
34.52201113908598
35.596246280613414
36.27985046158541
36.0845349813077
37.06111238269627
37.84237430380713
37.64705882352941
37.64705882352941
37.64705882352941
36.67048142214084
35.889219501029984
36.0845349813077
35.98687724116884
35.98687724116884
35.010299839780274
34.32669565880827
34.424353398947126
32.471198596169984
31.00633249408713
31.2993057145037
29.346150911726557
27.881284809643702
25.342183566033416
22.998397802700847
23.48668650339513
20.55695429922942
18.310826276035705
18.799114976729992
14.892805371175708
11.865415426871138
8.74036774242771
5.615320057984283
6.298924238956283
3.2715342946517127
1.1230640115968566
1.6113527122911422
-1.3183794918745708
-3.466849774929427
-4.931715877012284
-6.494239719233997
-6.201266498817426
-8.154421301594567
-9.619287403677424
-9.326314183260854
-10.302891584649425
-10.986495765621424
-11.767757686732281
-12.549019607843137
-12.45136186770428
-13.427939269092851
-14.11154345006485
-13.916227969787137
-14.990463111314565
-15.674067292286564
-17.43190661478599
-18.89677271686885
-18.60379949645228
-20.55695429922942
-22.021820401312276
-21.728847180895706
-23.682001983672848
-25.146868085755703
-24.756237125200276
-24.853894865339132
-24.853894865339132
-24.853894865339132
-24.853894865339132
-24.853894865339132
-21.92416266117342
-19.678034637979707
-15.47875181200885
-11.572442206454566
-12.45136186770428
-6.494239719233997
-2.0996414129854277
-3.076218814373999
4.638742656595713
10.595864805065995
18.799114976729992
26.514076447699704
24.756237125200276
34.717326619363696
42.04165712977798
40.38147554741741
51.22148470283055
59.32707713435569
66.06546120393683
73.09681849393453
71.53429465171283
79.54222934309911
85.30403601129167
84.03448538948653
90.96818493934539
96.04638742656596
98.6831464103151
101.90585183489738
101.12458991378652
105.12855725947966
108.05828946364538
107.37468528267338
108.35126268406195
109.03486686503395
109.8161287861448
110.59739070725567
110.40207522697796
109.42549782558937
108.64423590447852
108.74189364461738
105.81216144045166
103.56603341725796
101.22224765392538
98.78080415045396
99.26909285114824
94.38620584420539
90.67521171892882
91.45647364003968
86.47592889295797
82.7649347676814
77.78439002059967
73.19447623407339
74.17105363546197
69.19050888838025
65.47951476310368
66.26077668421455
62.2568093385214
59.32707713435569
55.127794308384836
51.22148470283055
52.10040436408026
49.073014419775696
46.826886396581976
47.31517509727627
43.40886549172198
40.38147554741741
37.256427862973986
34.131380178530556
34.81498435950255
28.857862211032273
24.4632639047837
25.439841306172273
16.650644693675137
10.009918364232853
3.8574807354848555
-2.392614633401999
-0.9277485313191425
-6.005951018539712
-9.71694514381628
-8.838025482566568
-10.009918364232853
-10.693522545204852
-9.619287403677424
-8.838025482566568
-9.033340962844282
-6.103608758678568
-3.9551384756237127
-4.443427176317998
-1.416037232013428
0.6347753109025711
0.14648661020828566
0.24414435034714274
0.24414435034714274
-2.490272373540856
-4.736400396734569
-4.248111696040284
-6.201266498817426
-7.666132600900283
-7.373159380483711
-7.470817120622568
-7.470817120622568
-5.517662317845426
-4.052796215762569
-4.345769436179141
-0.43945983062485694
2.392614633401999
5.517662317845426
8.642710002288853
7.959105821316854
12.939650568398566
16.55298695353628
15.771725032425422
19.775692378118563
22.705424582284277
25.830472266727703
28.95551995117113
28.27191577019913
30.322728313115128
31.68993667505913
31.396963454642556
33.3501182574197
34.81498435950255
35.4009308003357
36.27985046158541
36.0845349813077
36.0845349813077
36.0845349813077
36.0845349813077
35.10795757991913
34.32669565880827
33.545433737697415
32.764171816586554
32.86182955672541
30.908674753948272
29.443808651865414
29.736781872281988
26.807049668116274
24.65857938506142
22.21713588158999
19.87335011825742
20.361638818951704
17.43190661478599
15.185778591592278
15.674067292286564
12.74433508812085
10.498207064927138
8.154421301594567
5.810635538261997
6.298924238956283
4.248111696040284
2.783245593957427
3.1738765545128556
0.24414435034714274
-1.9043259327077133
-3.36919203479057
-4.931715877012284
-4.541084916456855
-6.591897459372854
-8.05676356145571
-7.666132600900283
-9.619287403677424
-11.08415350576028
-11.767757686732281
-12.549019607843137
-12.353704127565424
-13.330281528953995
-14.11154345006485
-13.916227969787137
-15.869382772564279
-17.334248874647134
-18.89677271686885
-20.45929655909056
-20.16632333867399
-22.119478141451133
-23.58434424353399
-23.19371328297856
-25.24452582589456
-26.709391927977418
-28.27191577019913
-29.834439612420844
-29.443808651865414
-31.396963454642556
-32.86182955672541
-32.56885633630884
-34.52201113908598
-35.98687724116884
-36.57282368200198
-37.35408560311284
-37.15877012283513
-36.27985046158541
-35.49858854047456
-35.69390402075227
-34.61966887922484
-33.93606469825284
-31.201647974364842
-28.95551995117113
-29.443808651865414
-25.439841306172273
-22.510109102006563
-23.19371328297856
-19.18974593728542
-16.260013733119706
-12.158388647287708
-8.252079041733426
-9.130998702983138
-4.150453955901427
-0.43945983062485694
-1.3183794918745708
2.5879301136797133
5.517662317845426
8.74036774242771
11.767757686732281
11.08415350576028
15.088120851453422
18.017853055619135
17.334248874647134
20.361638818951704
22.510109102006563
24.95155260547799
27.295338368810558
26.709391927977418
27.783627069504846
28.467231250476843
28.369573510337986
29.346150911726557
30.029755092698558
29.834439612420844
29.9320973525597
29.834439612420844
29.834439612420844
29.834439612420844
29.834439612420844
27.881284809643702
26.416418707560844
24.853894865339132
23.291371023117417
23.58434424353399
21.63118944075685
20.16632333867399
20.45929655909056
17.52956435492485
15.283436331731137
11.963073167009995
8.935683222705425
9.619287403677424
5.615320057984283
2.68558785381857
3.2715342946517127
-0.537117570763714
-3.466849774929427
-6.6895551995117115
-9.81460288395514
-9.033340962844282
-13.037308308537423
-15.967040512703136
-15.283436331731137
-18.310826276035705
-20.55695429922942
-22.90074006256199
-25.24452582589456
-24.65857938506142
-26.709391927977418
-28.174258030060273
-27.783627069504846
-30.71335927367056
-32.95948729686427
-34.32669565880827
-35.98687724116884
-35.596246280613414
-40.38147554741741
-44.09246967269398
-43.311207751583126
-50.14724956130312
-55.22545204852369
-59.815365835049974
-64.50293736171511
-63.42870222018769
-66.55374990463112
-68.70222018768597
-68.21393148699168
-70.16708628976883
-71.63195239185168
-69.38582436865796
-67.92095826657511
-68.21393148699168
-63.33104448004883
-59.62005035477226
-60.401312275883114
-56.39734493018997
-53.467612726024264
-51.22148470283055
-48.877698939497975
-49.365987640192266
-47.31517509727627
-45.85030899519341
-46.14328221560998
-43.21355001144427
-40.96742198825055
-38.62363622491798
-36.27985046158541
-36.768139162279695
-31.885252155336843
-28.174258030060273
-28.95551995117113
-24.95155260547799
-22.021820401312276
-18.799114976729992
-15.674067292286564
-16.357671473258563
-12.45136186770428
-9.521629663538567
-10.10757610437171
-7.080186160067139
-4.931715877012284
-2.5879301136797133
-0.24414435034714274
-0.7324330510414282
1.2207217517357138
2.68558785381857
2.2949568932631417
3.36919203479057
4.052796215762569
3.9551384756237127
3.9551384756237127
3.9551384756237127
4.931715877012284
5.615320057984283
5.517662317845426
5.517662317845426
5.517662317845426
5.517662317845426
5.517662317845426
5.517662317845426
5.517662317845426
5.517662317845426
5.517662317845426
6.39658197909514
7.177843900205997
6.982528419928283
7.080186160067139
7.080186160067139
6.103608758678568
5.322346837567712
5.517662317845426
4.541084916456855
3.7598229953459983
2.0019836728465705
0.537117570763714
0.8300907911802854
-0.04882887006942855
-0.8300907911802854
-0.6347753109025711
-2.5879301136797133
-4.052796215762569
-5.615320057984283
-7.177843900205997
-6.884870679789426
-9.81460288395514
-11.963073167009995
-11.47478446631571
-14.50217441062028
-16.650644693675137
-19.092088197146563
-21.338216220340275
-20.84992751964599
-23.779659723811704
-26.025787747005417
-25.537499046311133
-28.467231250476843
-30.71335927367056
-33.05714503700313
-35.4009308003357
-34.81498435950255
-37.84237430380713
-39.99084458686198
-39.5025558861677
-42.43228809033341
-44.67841611352712
-45.069047074082555
-45.947966735332265
-45.75265125505455
-45.75265125505455
-45.75265125505455
-45.75265125505455
-45.75265125505455
-45.654993514915695
-42.822919050888835
-40.57679102769512
-41.065079728389414
-38.03768978408484
-35.889219501029984
-36.37750820172427
-32.37354085603113
-29.443808651865414
-25.342183566033416
-21.43587396047913
-22.314793621728846
-18.310826276035705
-15.381094071869994
-15.967040512703136
-11.08415350576028
-7.373159380483711
-4.345769436179141
-1.2207217517357138
-1.9043259327077133
1.9043259327077133
4.834058136873426
4.248111696040284
7.275501640344854
9.42397192339971
11.767757686732281
14.11154345006485
13.623254749370565
15.674067292286564
17.041275654230564
16.748302433813993
17.82253757534142
18.506141756313422
19.287403677424276
20.068665598535134
19.87335011825742
19.87335011825742
19.87335011825742
19.87335011825742
19.87335011825742
19.87335011825742
18.89677271686885
18.21316853589685
18.310826276035705
16.357671473258563
14.892805371175708
15.185778591592278
12.256046387426567
10.10757610437171
7.666132600900283
5.322346837567712
5.908293278400855
2.8809033340962844
0.6347753109025711
1.1230640115968566
-1.7090104524299992
-3.9551384756237127
-6.298924238956283
-8.642710002288853
-8.05676356145571
-9.130998702983138
-9.912260624093996
-9.71694514381628
-10.693522545204852
-11.47478446631571
-12.256046387426567
-13.037308308537423
-12.84199282825971
-14.795147631036851
-16.260013733119706
-15.869382772564279
-16.943617914091707
-17.627222095063708
-19.385061417563133
-20.947585259784848
-20.55695429922942
-22.510109102006563
-23.974975204089418
-23.682001983672848
-25.63515678644999
-27.100022888532845
-28.66254673075456
-30.22507057297627
-29.834439612420844
-33.74074921797513
-36.67048142214084
-35.98687724116884
-41.84634164950027
-46.33859769588769
-50.04959182116426
-53.95590142671855
-53.07698176546884
-54.24887464713512
-54.932478828107115
-54.7371633478294
-50.928511482413974
-47.90112153810941
-41.943999389639124
-36.57282368200198
-37.74471656366827
-26.90470740825513
-18.799114976729992
-20.654612039368278
-9.71694514381628
-1.6113527122911422
6.005951018539712
13.81857022964828
12.060730907148852
19.18974593728542
24.267948424505988
23.096055542839704
29.053177691309987
33.44777599755856
38.23300526436255
42.92057679102769
41.84634164950027
46.826886396581976
50.44022278171969
49.658960860608836
53.66292820630198
56.49500267032883
58.74113069352254
61.08491645685512
60.49897001602197
61.5732051575494
62.2568093385214
62.15915159838254
63.13572899977112
63.819333180743115
64.60059510185397
65.38185702296482
65.18654154268711
65.18654154268711
65.08888380254825
65.08888380254825
64.11230640115969
63.33104448004883
62.54978255893797
61.768520637827116
61.96383611810483
60.8896009765774
60.108339055466544
60.30365453574426
57.37392233157855
55.127794308384836
52.78400854505226
50.44022278171969
50.928511482413974
47.90112153810941
45.654993514915695
46.14328221560998
42.236972610055695
39.307240405889985
36.0845349813077
32.95948729686427
33.64309147783627
29.63912413214313
26.709391927977418
27.392996108949415
22.412451361867703
18.701457236591136
15.771725032425422
12.549019607843137
13.232623788815136
9.326314183260854
6.39658197909514
6.982528419928283
3.076218814373999
0.14648661020828566
-2.9785610742351416
-6.103608758678568
-5.420004577706569
-8.44739452201114
-10.595864805065995
-10.10757610437171
-14.013885709925994
-16.943617914091707
-19.18974593728542
-21.533531700617992
-21.045242999923705
-23.974975204089418
-26.22110322728313
-25.63515678644999
-28.66254673075456
-30.811017013809415
-31.2993057145037
-32.178225375753414
-31.9829098954757
-31.9829098954757
-31.9829098954757
-31.9829098954757
-31.00633249408713
-30.22507057297627
-27.49065384908827
-25.24452582589456
-25.732814526588847
-21.826504921034562
-18.799114976729992
-19.48271915770199
-14.599832150759136
-10.888838025482567
-6.884870679789426
-3.076218814373999
-3.8574807354848555
0.04882887006942855
2.9785610742351416
2.2949568932631417
5.322346837567712
7.470817120622568
9.912260624093996
12.256046387426567
11.670099946593423
14.697489890897993
16.84596017395285
16.357671473258563
19.287403677424276
21.533531700617992
22.90074006256199
24.560921644922562
24.17029068436713
25.146868085755703
25.92813000686656
25.732814526588847
26.709391927977418
27.49065384908827
27.295338368810558
27.295338368810558
27.295338368810558
25.342183566033416
23.87731746395056
24.17029068436713
22.21713588158999
20.752269779507134
17.236591134508277
14.209201190203707
14.892805371175708
10.888838025482567
7.959105821316854
8.642710002288853
4.638742656595713
1.7090104524299992
-0.43945983062485694
-2.783245593957427
-2.2949568932631417
-6.201266498817426
-9.130998702983138
-8.44739452201114
-10.498207064927138
-11.963073167009995
-13.525597009231708
-15.088120851453422
-14.795147631036851
-16.748302433813993
-18.21316853589685
-17.920195315480278
-19.87335011825742
-21.338216220340275
-23.87731746395056
-26.123445487144274
-25.63515678644999
-27.68596932936599
-29.053177691309987
-28.760204470893417
-30.71335927367056
-32.178225375753414
-32.86182955672541
-33.64309147783627
-33.44777599755856
-34.424353398947126
-35.10795757991913
-34.91264209964141
-35.98687724116884
-36.67048142214084
-37.4517433432517
-38.23300526436255
-38.03768978408484
-39.014267185473415
-39.69787136644541
-39.600213626306555
-39.600213626306555
-39.600213626306555
-40.479133287556266
-41.26039520866713
-41.065079728389414
-43.018234531166556
-44.48310063324941
-44.09246967269398
-47.998779278248264
-50.928511482413974
-52.19806210421912
-53.760585946440834
-53.36995498588541
-51.51445792324712
-50.04959182116426
-50.34256504158083
-45.45967803463798
-41.74868390936141
-35.889219501029984
-30.518043793392845
-31.68993667505913
-22.803082322423133
-16.16235599298085
-17.627222095063708
-10.693522545204852
-5.517662317845426
-1.9043259327077133
2.0019836728465705
1.1230640115968566
4.150453955901427
6.39658197909514
5.908293278400855
7.861448081177996
9.326314183260854
10.888838025482567
12.45136186770428
12.158388647287708
14.11154345006485
15.576409552147707
15.283436331731137
16.260013733119706
16.943617914091707
18.701457236591136
20.263981078812847
19.87335011825742
19.971007858396277
19.971007858396277
19.971007858396277
19.971007858396277
19.971007858396277
18.017853055619135
16.55298695353628
16.84596017395285
14.892805371175708
13.427939269092851
13.720912489509422
9.81460288395514
6.884870679789426
3.662165255207141
0.537117570763714
1.2207217517357138
-1.6113527122911422
-3.8574807354848555
-3.36919203479057
-6.298924238956283
-8.545052262149996
-10.888838025482567
-13.232623788815136
-12.74433508812085
-13.81857022964828
-14.50217441062028
-14.306858930342566
-15.283436331731137
-16.064698252841993
-16.84596017395285
-17.627222095063708
-17.43190661478599
-18.40848401617456
-19.18974593728542
-18.994430457007706
-19.971007858396277
-20.654612039368278
-21.43587396047913
-22.21713588158999
-22.021820401312276
-23.974975204089418
-25.439841306172273
-25.146868085755703
-26.123445487144274
-26.90470740825513
-28.66254673075456
-30.127412832837415
-29.736781872281988
-30.811017013809415
-31.494621194781413
-31.2993057145037
-32.37354085603113
-33.05714503700313
-33.838406958113985
-34.61966887922484
-34.424353398947126
-33.44777599755856
-32.764171816586554
-32.86182955672541
-31.885252155336843
-31.103990234225986
-28.467231250476843
-26.123445487144274
-26.61173418783856
-23.682001983672848
-21.43587396047913
-21.92416266117342
-18.017853055619135
-15.088120851453422
-10.888838025482567
-7.080186160067139
-7.959105821316854
-2.0019836728465705
2.2949568932631417
1.3183794918745708
5.322346837567712
8.252079041733426
12.45136186770428
16.260013733119706
15.381094071869994
18.40848401617456
20.654612039368278
20.16632333867399
22.119478141451133
23.58434424353399
25.146868085755703
26.709391927977418
26.416418707560844
26.416418707560844
26.416418707560844
26.416418707560844
26.416418707560844
26.416418707560844
26.416418707560844
26.416418707560844
26.416418707560844
24.4632639047837
22.998397802700847
23.291371023117417
22.21713588158999
21.533531700617992
19.775692378118563
18.21316853589685
18.60379949645228
15.576409552147707
13.427939269092851
13.916227969787137
11.865415426871138
10.400549324788281
8.838025482566568
7.275501640344854
7.568474860761425
5.615320057984283
4.150453955901427
4.443427176317998
1.513694972152285
-0.537117570763714
-2.0019836728465705
-3.5645075150682843
-3.2715342946517127
-4.248111696040284
-5.0293736171511405
-4.834058136873426
-5.810635538261997
-6.591897459372854
-7.373159380483711
-8.154421301594567
-7.959105821316854
-7.959105821316854
-7.959105821316854
-7.959105821316854
-7.959105821316854
-7.959105821316854
-7.959105821316854
-7.959105821316854
-7.959105821316854
-8.935683222705425
-9.619287403677424
-9.521629663538567
-10.498207064927138
-11.181811245899137
-12.939650568398566
-14.50217441062028
-14.11154345006485
-15.185778591592278
-15.869382772564279
-15.674067292286564
-17.627222095063708
-19.092088197146563
-19.775692378118563
-20.55695429922942
-20.361638818951704
-20.361638818951704
-20.361638818951704
-20.361638818951704
-18.40848401617456
-16.943617914091707
-15.381094071869994
-13.81857022964828
-14.11154345006485
-12.158388647287708
-10.693522545204852
-10.986495765621424
-10.888838025482567
-10.986495765621424
-10.009918364232853
-9.228656443121995
-9.42397192339971
-4.638742656595713
-0.9277485313191425
-1.7090104524299992
6.005951018539712
11.865415426871138
20.16632333867399
27.881284809643702
26.123445487144274
36.96345464255741
45.069047074082555
43.311207751583126
51.31914244296941
57.08094911116198
59.62005035477226
62.84275577935454
62.15915159838254
61.28023193713283
60.49897001602197
60.694285496299685
58.74113069352254
57.178606851300835
55.61608300907912
54.053559166857404
54.346532387273975
52.39337758449683
50.83085374227512
51.22148470283055
48.19409475852598
46.04562447547112
43.604180971999696
41.26039520866713
41.74868390936141
38.818951705195694
36.57282368200198
37.06111238269627
34.0337224383917
31.885252155336843
29.443808651865414
27.100022888532845
27.588311589227132
24.65857938506142
22.412451361867703
22.90074006256199
19.971007858396277
17.724879835202564
15.381094071869994
13.037308308537423
13.525597009231708
10.498207064927138
8.349736781872283
8.838025482566568
4.834058136873426
1.9043259327077133
-0.14648661020828566
-2.5879301136797133
-2.0019836728465705
-4.052796215762569
-5.517662317845426
-5.224689097428855
-7.177843900205997
-8.642710002288853
-10.205233844510566
-11.767757686732281
-11.377126726176853
-13.427939269092851
-14.892805371175708
-14.50217441062028
-15.576409552147707
-16.260013733119706
-18.017853055619135
-19.48271915770199
-19.18974593728542
-20.16632333867399
-20.947585259784848
-20.752269779507134
-20.752269779507134
-20.752269779507134
-20.752269779507134
-20.752269779507134
-20.752269779507134
-19.775692378118563
-19.092088197146563
-19.18974593728542
-17.236591134508277
-15.771725032425422
-13.232623788815136
-10.888838025482567
-11.47478446631571
-7.470817120622568
-4.541084916456855
-5.224689097428855
-1.2207217517357138
1.6113527122911422
4.736400396734569
7.861448081177996
7.177843900205997
11.181811245899137
14.11154345006485
13.427939269092851
16.45532921339742
18.60379949645228
21.92416266117342
25.049210345616846
24.365606164644845
27.295338368810558
29.541466392004274
29.053177691309987
31.9829098954757
34.22903791866941
36.57282368200198
38.91660944533455
38.33066300450141
40.38147554741741
41.84634164950027
41.45571068894484
43.40886549172198
44.873731593804834
45.45967803463798
46.33859769588769
46.14328221560998
46.14328221560998
46.14328221560998
46.14328221560998
45.16670481422141
44.38544289311055
42.62760357061112
41.065079728389414
41.358052948805984
38.42832074464027
36.182192721446555
36.67048142214084
33.74074921797513
31.494621194781413
29.150835431448844
26.807049668116274
27.295338368810558
24.267948424505988
22.119478141451133
22.60776684214542
19.58037689784085
17.43190661478599
14.013885709925994
10.986495765621424
11.670099946593423
8.642710002288853
6.39658197909514
6.884870679789426
2.9785610742351416
0.04882887006942855
-2.0996414129854277
-4.443427176317998
-3.9551384756237127
-6.884870679789426
-9.130998702983138
-8.642710002288853
-11.572442206454566
-13.81857022964828
-15.185778591592278
-16.748302433813993
-16.45532921339742
-19.385061417563133
-21.533531700617992
-21.045242999923705
-24.072632944228275
-26.22110322728313
-28.564888990615703
-30.908674753948272
-30.420386053253985
-32.37354085603113
-33.838406958113985
-33.545433737697415
-36.475165941863125
-38.62363622491798
-40.08850232700084
-41.651026169222554
-41.26039520866713
-42.236972610055695
-43.018234531166556
-42.822919050888835
-43.79949645227741
-44.48310063324941
-43.40886549172198
-42.62760357061112
-42.822919050888835
-40.86976424811169
-39.40489814602884
-39.69787136644541
-36.768139162279695
-34.52201113908598
-31.201647974364842
-28.076600289921416
-28.760204470893417
-27.68596932936599
-26.90470740825513
-27.100022888532845
-27.97894254978256
-28.760204470893417
-30.420386053253985
-31.9829098954757
-31.592278934920273
-30.71335927367056
-29.9320973525597
-30.127412832837415
-27.1976806286717
-24.95155260547799
-20.654612039368278
-16.84596017395285
-17.724879835202564
-10.79118028534371
-5.71297779812314
-6.787212939650568
-1.8066681925688564
1.8066681925688564
2.8809033340962844
4.541084916456855
4.150453955901427
3.2715342946517127
2.490272373540856
2.68558785381857
0.7324330510414282
-0.6347753109025711
-2.197299153124285
-3.7598229953459983
-3.466849774929427
-6.39658197909514
-8.545052262149996
-8.05676356145571
-11.08415350576028
-13.232623788815136
-15.576409552147707
-17.920195315480278
-17.43190661478599
-20.361638818951704
-22.60776684214542
-22.119478141451133
-24.072632944228275
-25.537499046311133
-27.100022888532845
-28.66254673075456
-28.369573510337986
-30.322728313115128
-31.787594415197987
-31.396963454642556
-33.44777599755856
-34.81498435950255
-36.475165941863125
-37.94003204394598
-37.64705882352941
-38.62363622491798
-39.307240405889985
-39.20958266575113
-41.16273746852827
-42.529945830472265
-43.21355001144427
-43.99481193255512
-43.79949645227741
-44.77607385366598
-45.45967803463798
-45.362020294499125
-46.33859769588769
-47.0222018768597
-47.80346379797055
-48.584725719081405
-48.38941023880369
-48.38941023880369
-48.38941023880369
-48.38941023880369
-47.412832837415124
-46.63157091630426
-45.85030899519341
-45.069047074082555
-45.16670481422141
-43.21355001144427
-41.74868390936141
-42.04165712977798
-39.11192492561227
-36.86579690241855
-34.52201113908598
-32.178225375753414
-32.6665140764477
-27.783627069504846
-24.072632944228275
-24.853894865339132
-18.994430457007706
-14.50217441062028
-9.81460288395514
-5.127031357289998
-6.103608758678568
-0.14648661020828566
4.150453955901427
3.1738765545128556
9.130998702983138
13.525597009231708
16.357671473258563
19.48271915770199
18.799114976729992
22.803082322423133
25.732814526588847
25.049210345616846
27.100022888532845
28.564888990615703
30.127412832837415
31.68993667505913
31.2993057145037
31.396963454642556
31.2993057145037
31.2993057145037
31.2993057145037
31.2993057145037
29.346150911726557
27.881284809643702
28.174258030060273
27.1976806286717
26.416418707560844
26.61173418783856
23.682001983672848
21.43587396047913
20.068665598535134
18.40848401617456
18.799114976729992
17.724879835202564
17.041275654230564
17.13893339436942
15.185778591592278
13.720912489509422
13.13496604867628
12.256046387426567
12.45136186770428
11.47478446631571
10.693522545204852
10.888838025482567
10.888838025482567
10.888838025482567
10.888838025482567
10.888838025482567
10.888838025482567
9.912260624093996
9.130998702983138
9.326314183260854
9.228656443121995
9.228656443121995
8.349736781872283
7.568474860761425
7.763790341039139
5.810635538261997
4.345769436179141
4.638742656595713
2.68558785381857
1.2207217517357138
-1.2207217517357138
-3.5645075150682843
-3.076218814373999
-6.005951018539712
-8.252079041733426
-7.763790341039139
-10.693522545204852
-12.939650568398566
-15.283436331731137
-17.627222095063708
-17.041275654230564
-21.045242999923705
-23.974975204089418
-23.291371023117417
-26.318760967421987
-28.467231250476843
-29.9320973525597
-31.494621194781413
-31.103990234225986
-32.178225375753414
-32.86182955672541
-32.6665140764477
-31.787594415197987
-31.00633249408713
-30.22507057297627
-29.443808651865414
-29.541466392004274
-26.61173418783856
-24.4632639047837
-24.95155260547799
-21.92416266117342
-19.678034637979707
-16.357671473258563
-13.330281528953995
-14.013885709925994
-10.986495765621424
-8.74036774242771
-9.228656443121995
-6.298924238956283
-4.052796215762569
-2.68558785381857
-1.0254062714579995
-1.416037232013428
-2.2949568932631417
-3.076218814373999
-2.8809033340962844
-5.810635538261997
-7.959105821316854
-11.279468986037996
-14.404516670481422
-13.720912489509422
-13.81857022964828
-13.81857022964828
-13.81857022964828
-12.84199282825971
-12.060730907148852
-8.44739452201114
-5.420004577706569
-6.103608758678568
-0.24414435034714274
4.052796215762569
3.076218814373999
8.05676356145571
11.767757686732281
11.865415426871138
12.84199282825971
12.646677347981994
11.670099946593423
10.986495765621424
11.08415350576028
9.130998702983138
7.666132600900283
6.103608758678568
4.541084916456855
4.834058136873426
2.8809033340962844
1.416037232013428
1.7090104524299992
-0.14648661020828566
-1.6113527122911422
-3.1738765545128556
-4.736400396734569
-4.443427176317998
-5.420004577706569
-6.103608758678568
-6.005951018539712
-6.982528419928283
-7.666132600900283
-8.545052262149996
-9.228656443121995
-9.130998702983138
-10.10757610437171
-10.79118028534371
-10.693522545204852
-11.670099946593423
-12.353704127565424
-12.158388647287708
-12.256046387426567
-12.256046387426567
-13.13496604867628
-13.916227969787137
-13.720912489509422
-14.697489890897993
-15.47875181200885
-16.260013733119706
-17.041275654230564
-16.84596017395285
-17.82253757534142
-18.60379949645228
-18.40848401617456
-19.385061417563133
-20.068665598535134
-19.971007858396277
-19.971007858396277
-19.971007858396277
-18.994430457007706
-18.21316853589685
-18.40848401617456
-16.45532921339742
-14.990463111314565
-13.427939269092851
-11.865415426871138
-12.158388647287708
-8.252079041733426
-5.322346837567712
-6.005951018539712
-2.0019836728465705
0.8300907911802854
4.931715877012284
8.838025482566568
7.959105821316854
11.963073167009995
14.892805371175708
14.209201190203707
18.21316853589685
21.14290074006256
24.267948424505988
27.392996108949415
26.709391927977418
29.736781872281988
31.885252155336843
31.396963454642556
34.32669565880827
36.57282368200198
37.94003204394598
39.5025558861677
39.20958266575113
41.16273746852827
42.62760357061112
42.236972610055695
42.33463035019455
42.33463035019455
42.236972610055695
42.236972610055695
42.236972610055695
42.236972610055695
42.236972610055695
42.236972610055695
40.28381780727855
38.818951705195694
36.27985046158541
33.93606469825284
34.424353398947126
31.494621194781413
29.2484931715877
29.736781872281988
26.709391927977418
24.560921644922562
22.119478141451133
19.775692378118563
20.263981078812847
18.310826276035705
16.84596017395285
17.13893339436942
15.185778591592278
13.720912489509422
13.037308308537423
12.256046387426567
12.353704127565424
11.377126726176853
10.693522545204852
10.79118028534371
10.79118028534371
10.79118028534371
9.81460288395514
9.033340962844282
9.228656443121995
8.252079041733426
7.470817120622568
7.666132600900283
5.71297779812314
4.248111696040284
3.662165255207141
2.783245593957427
2.9785610742351416
2.0019836728465705
1.2207217517357138
1.416037232013428
0.43945983062485694
-0.24414435034714274
-0.04882887006942855
-0.04882887006942855
-0.04882887006942855
0.7324330510414282
1.513694972152285
1.3183794918745708
1.416037232013428
1.416037232013428
1.416037232013428
1.416037232013428
1.416037232013428
1.416037232013428
1.416037232013428
1.416037232013428
2.2949568932631417
3.076218814373999
3.8574807354848555
4.638742656595713
4.443427176317998
7.373159380483711
9.619287403677424
9.130998702983138
13.037308308537423
15.967040512703136
19.092088197146563
22.21713588158999
21.533531700617992
25.537499046311133
28.467231250476843
27.783627069504846
31.68993667505913
34.61966887922484
36.86579690241855
39.20958266575113
38.62363622491798
39.69787136644541
40.38147554741741
40.28381780727855
40.28381780727855
40.28381780727855
41.16273746852827
41.943999389639124
41.74868390936141
38.91660944533455
36.67048142214084
37.15877012283513
32.27588311589227
28.564888990615703
24.560921644922562
20.654612039368278
21.533531700617992
18.506141756313422
16.260013733119706
16.748302433813993
15.674067292286564
14.990463111314565
16.064698252841993
16.748302433813993
16.650644693675137
18.60379949645228
20.068665598535134
19.678034637979707
20.752269779507134
21.43587396047913
20.361638818951704
19.58037689784085
19.775692378118563
15.869382772564279
12.939650568398566
13.623254749370565
9.619287403677424
6.6895551995117115
3.466849774929427
0.43945983062485694
1.1230640115968566
-0.8300907911802854
-2.2949568932631417
-2.0019836728465705
-4.931715877012284
-7.177843900205997
-9.521629663538567
-11.865415426871138
-11.377126726176853
-13.330281528953995
-14.795147631036851
-14.50217441062028
-16.45532921339742
-17.920195315480278
-19.48271915770199
-21.045242999923705
-20.654612039368278
-21.728847180895706
-22.412451361867703
-22.314793621728846
-23.291371023117417
-23.974975204089418
-24.756237125200276
-25.537499046311133
-25.342183566033416
-26.318760967421987
-27.100022888532845
-26.90470740825513
-28.857862211032273
-30.322728313115128
-32.86182955672541
-35.10795757991913
-34.61966887922484
-36.57282368200198
-38.03768978408484
-37.74471656366827
-38.72129396505684
-39.40489814602884
-39.307240405889985
-39.307240405889985
-39.307240405889985
-38.33066300450141
-37.549401083390556
-37.74471656366827
-35.79156176089113
-34.22903791866941
-30.71335927367056
-27.68596932936599
-28.369573510337986
-25.342183566033416
-23.19371328297856
-23.58434424353399
-20.654612039368278
-18.40848401617456
-16.064698252841993
-13.720912489509422
-14.209201190203707
-12.158388647287708
-10.693522545204852
-11.08415350576028
-8.154421301594567
-5.908293278400855
-5.420004577706569
-4.541084916456855
-4.736400396734569
-3.7598229953459983
-3.076218814373999
-3.1738765545128556
-3.1738765545128556
-3.1738765545128556
-4.150453955901427
-4.834058136873426
-4.736400396734569
-5.71297779812314
-6.39658197909514
-6.298924238956283
-8.154421301594567
-9.71694514381628
-10.302891584649425
-11.08415350576028
-10.888838025482567
-12.84199282825971
-14.306858930342566
-14.013885709925994
-14.990463111314565
-15.771725032425422
-17.52956435492485
-18.994430457007706
-18.701457236591136
-19.678034637979707
-20.45929655909056
-20.263981078812847
-21.24055848020142
-21.92416266117342
-22.705424582284277
-23.48668650339513
-23.291371023117417
-24.365606164644845
-25.049210345616846
-24.853894865339132
-24.95155260547799
-24.853894865339132
-24.853894865339132
-24.853894865339132
-24.853894865339132
-24.853894865339132
-24.853894865339132
-24.853894865339132
-25.830472266727703
-26.514076447699704
-26.318760967421987
-26.416418707560844
-26.318760967421987
-27.295338368810558
-28.076600289921416
-27.881284809643702
-27.881284809643702
-27.881284809643702
-28.857862211032273
-29.541466392004274
-29.346150911726557
-29.443808651865414
-29.443808651865414
-29.346150911726557
-29.346150911726557
-29.346150911726557
-29.346150911726557
-29.346150911726557
-29.346150911726557
-29.346150911726557
-29.346150911726557
-29.346150911726557
-29.346150911726557
-29.346150911726557
-27.392996108949415
-25.92813000686656
-26.22110322728313
-23.291371023117417
-21.045242999923705
-21.533531700617992
-17.627222095063708
-14.599832150759136
-11.47478446631571
-8.349736781872283
-9.033340962844282
-4.150453955901427
-0.43945983062485694
-1.2207217517357138
1.7090104524299992
3.8574807354848555
7.177843900205997
10.302891584649425
9.619287403677424
12.646677347981994
14.795147631036851
14.306858930342566
16.357671473258563
17.82253757534142
18.40848401617456
19.18974593728542
18.994430457007706
19.971007858396277
20.752269779507134
20.55695429922942
21.533531700617992
22.314793621728846
21.14290074006256
20.45929655909056
20.55695429922942
17.724879835202564
15.47875181200885
15.967040512703136
11.08415350576028
7.373159380483711
2.490272373540856
-2.0996414129854277
-1.0254062714579995
-3.1738765545128556
-4.638742656595713
-4.248111696040284
-4.345769436179141
-4.345769436179141
-0.537117570763714
2.392614633401999
1.7090104524299992
7.568474860761425
11.963073167009995
10.986495765621424
16.943617914091707
21.338216220340275
22.21713588158999
23.974975204089418
23.58434424353399
23.682001983672848
23.58434424353399
23.58434424353399
23.58434424353399
23.58434424353399
23.58434424353399
23.58434424353399
23.58434424353399
23.58434424353399
23.58434424353399
23.58434424353399
23.58434424353399
23.58434424353399
23.58434424353399
23.48668650339513
23.48668650339513
22.60776684214542
21.826504921034562
21.92416266117342
20.947585259784848
20.263981078812847
20.361638818951704
20.361638818951704
20.361638818951704
18.40848401617456
16.943617914091707
17.236591134508277
16.260013733119706
15.47875181200885
13.720912489509422
12.256046387426567
12.549019607843137
10.595864805065995
9.130998702983138
9.42397192339971
7.470817120622568
6.005951018539712
5.322346837567712
4.541084916456855
4.736400396734569
4.638742656595713
4.638742656595713
4.638742656595713
6.591897459372854
8.05676356145571
10.595864805065995
12.84199282825971
12.353704127565424
16.260013733119706
19.18974593728542
18.60379949645228
22.510109102006563
25.439841306172273
28.66254673075456
31.68993667505913
31.00633249408713
34.0337224383917
36.182192721446555
35.69390402075227
38.62363622491798
40.86976424811169
43.21355001144427
45.55733577477684
44.97138933394369
47.0222018768597
48.48706797894255
48.09643701838712
49.17067215991455
49.85427634088655
50.635538261997404
51.416800183108265
51.22148470283055
50.24490730144198
49.46364538033112
49.658960860608836
47.705806057831694
46.240939955748836
43.604180971999696
41.358052948805984
41.84634164950027
38.818951705195694
36.67048142214084
37.06111238269627
34.131380178530556
31.885252155336843
28.564888990615703
25.439841306172273
26.123445487144274
23.096055542839704
20.947585259784848
21.43587396047913
17.52956435492485
14.50217441062028
12.353704127565424
9.912260624093996
10.498207064927138
8.44739452201114
6.982528419928283
7.275501640344854
5.322346837567712
3.8574807354848555
3.1738765545128556
2.392614633401999
2.5879301136797133
1.6113527122911422
0.8300907911802854
1.0254062714579995
0.04882887006942855
-0.6347753109025711
-1.416037232013428
-2.197299153124285
-2.0019836728465705
-2.9785610742351416
-3.7598229953459983
-3.5645075150682843
-4.541084916456855
-5.322346837567712
-7.080186160067139
-8.545052262149996
-8.252079041733426
-9.228656443121995
-10.009918364232853
-9.81460288395514
-10.79118028534371
-11.572442206454566
-12.353704127565424
-13.13496604867628
-12.939650568398566
-12.939650568398566
-12.939650568398566
-12.939650568398566
-11.963073167009995
-11.181811245899137
-10.400549324788281
-9.619287403677424
-9.81460288395514
-7.861448081177996
-6.39658197909514
-6.6895551995117115
-3.7598229953459983
-1.6113527122911422
1.7090104524299992
4.736400396734569
4.052796215762569
8.05676356145571
10.986495765621424
10.302891584649425
13.330281528953995
15.47875181200885
18.799114976729992
21.92416266117342
21.24055848020142
25.146868085755703
28.076600289921416
27.392996108949415
30.420386053253985
32.6665140764477
35.010299839780274
37.35408560311284
36.768139162279695
38.818951705195694
40.28381780727855
39.893186846723125
40.96742198825055
41.651026169222554
41.45571068894484
41.45571068894484
41.45571068894484
40.479133287556266
39.69787136644541
39.893186846723125
37.94003204394598
36.475165941863125
34.81498435950255
33.252460517280845
33.64309147783627
29.736781872281988
26.709391927977418
27.392996108949415
21.533531700617992
17.041275654230564
13.330281528953995
9.326314183260854
10.205233844510566
7.177843900205997
4.931715877012284
5.420004577706569
4.443427176317998
3.662165255207141
4.834058136873426
5.517662317845426
5.322346837567712
7.275501640344854
8.74036774242771
8.44739452201114
9.42397192339971
10.205233844510566
8.05676356145571
6.6895551995117115
6.982528419928283
2.0996414129854277
-1.513694972152285
-0.6347753109025711
-4.638742656595713
-7.568474860761425
-10.79118028534371
-13.81857022964828
-13.13496604867628
-15.185778591592278
-16.650644693675137
-16.357671473258563
-18.310826276035705
-19.775692378118563
-20.361638818951704
-21.24055848020142
-21.045242999923705
-21.045242999923705
-21.045242999923705
-21.045242999923705
-20.068665598535134
-19.287403677424276
-17.52956435492485
-16.064698252841993
-16.357671473258563
-15.381094071869994
-14.599832150759136
-14.795147631036851
-12.84199282825971
-11.377126726176853
-8.838025482566568
-6.494239719233997
-6.982528419928283
-5.0293736171511405
-3.5645075150682843
-3.8574807354848555
-0.9277485313191425
1.2207217517357138
4.541084916456855
7.568474860761425
6.884870679789426
9.912260624093996
12.158388647287708
11.670099946593423
15.576409552147707
18.506141756313422
20.752269779507134
23.096055542839704
22.510109102006563
25.537499046311133
27.68596932936599
27.1976806286717
29.2484931715877
30.71335927367056
31.2993057145037
32.08056763561456
31.885252155336843
32.86182955672541
33.64309147783627
33.44777599755856
33.44777599755856
33.44777599755856
32.471198596169984
31.68993667505913
31.885252155336843
30.908674753948272
30.127412832837415
30.322728313115128
28.369573510337986
26.807049668116274
25.24452582589456
23.682001983672848
24.072632944228275
22.998397802700847
22.21713588158999
22.412451361867703
20.45929655909056
18.994430457007706
18.310826276035705
17.52956435492485
17.724879835202564
16.748302433813993
15.967040512703136
16.16235599298085
16.064698252841993
16.064698252841993
14.209201190203707
12.646677347981994
13.037308308537423
11.963073167009995
11.279468986037996
11.377126726176853
8.44739452201114
6.298924238956283
3.8574807354848555
1.513694972152285
2.0996414129854277
-0.8300907911802854
-2.9785610742351416
-2.490272373540856
-5.517662317845426
-7.666132600900283
-10.10757610437171
-12.353704127565424
-11.865415426871138
-14.892805371175708
-17.041275654230564
-16.55298695353628
-18.60379949645228
-19.971007858396277
-20.654612039368278
-21.43587396047913
-21.24055848020142
-23.19371328297856
-24.65857938506142
-24.365606164644845
-25.342183566033416
-26.123445487144274
-26.90470740825513
-27.588311589227132
-27.49065384908827
-29.346150911726557
-30.811017013809415
-30.518043793392845
-31.494621194781413
-32.27588311589227
-33.05714503700313
-33.838406958113985
-33.64309147783627
-34.61966887922484
-35.303273060196844
-35.10795757991913
-34.22903791866941
-33.44777599755856
-31.68993667505913
-30.127412832837415
-30.518043793392845
-27.588311589227132
-25.342183566033416
-25.830472266727703
-22.803082322423133
-20.654612039368278
-17.334248874647134
-14.209201190203707
-14.892805371175708
-11.865415426871138
-9.619287403677424
-10.10757610437171
-8.154421301594567
-6.6895551995117115
-5.127031357289998
-3.5645075150682843
-3.8574807354848555
-1.9043259327077133
-0.43945983062485694
-0.7324330510414282
0.14648661020828566
0.9277485313191425
0.7324330510414282
0.8300907911802854
0.8300907911802854
0.8300907911802854
0.8300907911802854
0.8300907911802854
-0.04882887006942855
-0.8300907911802854
-0.6347753109025711
-0.6347753109025711
-0.6347753109025711
-1.6113527122911422
-2.392614633401999
-2.197299153124285
-4.150453955901427
-5.615320057984283
-7.177843900205997
-8.74036774242771
-8.44739452201114
-12.353704127565424
-15.283436331731137
-14.599832150759136
-20.45929655909056
-24.853894865339132
-29.63912413214313
-34.32669565880827
-33.252460517280845
-35.4009308003357
-36.768139162279695
-36.475165941863125
-34.61966887922484
-33.05714503700313
-29.63912413214313
-26.514076447699704
-27.1976806286717
-20.361638818951704
-15.185778591592278
-16.357671473258563
-9.42397192339971
-4.248111696040284
-1.6113527122911422
1.513694972152285
0.8300907911802854
1.0254062714579995
0.9277485313191425
0.9277485313191425
1.9043259327077133
2.68558785381857
2.490272373540856
2.490272373540856
2.490272373540856
3.466849774929427
4.248111696040284
4.052796215762569
4.052796215762569
4.052796215762569
4.052796215762569
4.052796215762569
4.052796215762569
4.052796215762569
4.052796215762569
4.052796215762569
4.052796215762569
4.052796215762569
4.052796215762569
4.052796215762569
4.052796215762569
3.076218814373999
2.392614633401999
2.490272373540856
2.490272373540856
2.490272373540856
2.490272373540856
2.490272373540856
2.490272373540856
2.490272373540856
2.490272373540856
2.490272373540856
4.443427176317998
5.908293278400855
7.470817120622568
9.033340962844282
8.642710002288853
11.572442206454566
13.81857022964828
13.330281528953995
16.260013733119706
18.506141756313422
19.87335011825742
21.533531700617992
21.14290074006256
24.072632944228275
26.22110322728313
25.732814526588847
26.807049668116274
27.49065384908827
27.392996108949415
27.392996108949415
27.392996108949415
26.416418707560844
25.63515678644999
25.830472266727703
23.87731746395056
22.412451361867703
19.87335011825742
17.52956435492485
18.017853055619135
15.088120851453422
12.84199282825971
13.330281528953995
9.42397192339971
6.494239719233997
4.248111696040284
1.9043259327077133
2.392614633401999
0.34180209048599985
-1.0254062714579995
-0.6347753109025711
-1.7090104524299992
-2.392614633401999
-4.150453955901427
-5.71297779812314
-5.322346837567712
-5.420004577706569
-5.420004577706569
-5.420004577706569
-6.39658197909514
-7.080186160067139
-7.861448081177996
-8.642710002288853
-8.44739452201114
-9.521629663538567
-10.205233844510566
-10.009918364232853
-10.10757610437171
-10.10757610437171
-10.10757610437171
-10.10757610437171
-10.10757610437171
-10.009918364232853
-10.009918364232853
-10.009918364232853
-9.130998702983138
-8.349736781872283
-8.545052262149996
-8.44739452201114
-8.44739452201114
-8.44739452201114
-8.44739452201114
-8.44739452201114
-8.44739452201114
-8.44739452201114
-8.44739452201114
-8.44739452201114
-8.44739452201114
-9.42397192339971
-10.10757610437171
-10.009918364232853
-10.009918364232853
-10.009918364232853
-10.009918364232853
-10.009918364232853
-10.009918364232853
-9.033340962844282
-8.252079041733426
-8.44739452201114
-5.517662317845426
-3.36919203479057
0.04882887006942855
2.9785610742351416
2.2949568932631417
8.154421301594567
12.549019607843137
11.572442206454566
17.52956435492485
21.92416266117342
26.709391927977418
31.396963454642556
30.322728313115128
37.256427862973986
42.33463035019455
41.16273746852827
46.240939955748836
49.85427634088655
53.760585946440834
57.66689555199512
56.7879758907454
59.815365835049974
61.96383611810483
61.475547417410546
62.54978255893797
63.233386739909974
64.01464866102083
64.79591058213168
64.60059510185397
64.60059510185397
64.60059510185397
64.50293736171511
63.526359960326545
62.84275577935454
61.08491645685512
59.522392614633404
59.815365835049974
57.86221103227283
56.29968719005112
56.59266041046769
54.639505607690545
53.17463950560769
50.635538261997404
48.291752498664835
48.78004119935912
44.873731593804834
41.84634164950027
42.529945830472265
39.5025558861677
37.256427862973986
33.93606469825284
30.811017013809415
31.494621194781413
26.61173418783856
22.90074006256199
23.682001983672848
16.84596017395285
11.670099946593423
7.080186160067139
2.392614633401999
3.466849774929427
-0.537117570763714
-3.466849774929427
-2.783245593957427
-3.8574807354848555
-4.638742656595713
-4.443427176317998
-4.443427176317998
-4.443427176317998
-1.6113527122911422
0.537117570763714
0.04882887006942855
2.0019836728465705
3.466849774929427
3.1738765545128556
3.2715342946517127
3.2715342946517127
0.34180209048599985
-1.7090104524299992
-1.2207217517357138
-3.2715342946517127
-4.736400396734569
-7.275501640344854
-9.619287403677424
-9.033340962844282
-10.10757610437171
-10.888838025482567
-10.693522545204852
-11.670099946593423
-12.353704127565424
-12.256046387426567
-12.256046387426567
-12.256046387426567
-11.279468986037996
-10.498207064927138
-10.693522545204852
-6.884870679789426
-3.8574807354848555
0.14648661020828566
3.9551384756237127
3.1738765545128556
10.986495765621424
16.84596017395285
15.576409552147707
23.48668650339513
29.346150911726557
35.69390402075227
41.84634164950027
40.479133287556266
46.533913176165406
50.83085374227512
49.85427634088655
54.83482108796826
58.54581521324483
60.49897001602197
62.9404135194934
62.35446707866026
64.40527962157626
65.77248798352025
65.47951476310368
66.45609216449226
67.13969634546426
67.92095826657511
68.70222018768597
68.50690470740825
68.50690470740825
68.50690470740825
68.50690470740825
68.50690470740825
68.4092469672694
66.55374990463112
64.9912260624094
65.28419928282597
62.35446707866026
60.108339055466544
60.59662775616083
56.690318150606544
53.66292820630198
50.53788052185855
47.412832837415124
48.09643701838712
44.09246967269398
41.16273746852827
41.74868390936141
37.74471656366827
34.81498435950255
33.545433737697415
31.885252155336843
32.27588311589227
30.22507057297627
28.760204470893417
29.150835431448844
28.076600289921416
27.295338368810558
26.514076447699704
25.732814526588847
25.92813000686656
24.95155260547799
24.17029068436713
24.365606164644845
22.412451361867703
20.84992751964599
19.287403677424276
17.724879835202564
18.11551079575799
14.209201190203707
11.181811245899137
11.865415426871138
8.838025482566568
6.6895551995117115
4.248111696040284
1.9043259327077133
2.490272373540856
-0.43945983062485694
-2.5879301136797133
-2.0996414129854277
-5.127031357289998
-7.275501640344854
-9.71694514381628
-11.963073167009995
-11.47478446631571
-14.50217441062028
-16.650644693675137
-16.16235599298085
-19.092088197146563
-21.338216220340275
-22.705424582284277
-24.365606164644845
-23.974975204089418
-26.90470740825513
-29.150835431448844
-28.564888990615703
-29.63912413214313
-30.322728313115128
-31.103990234225986
-31.885252155336843
-31.68993667505913
-31.787594415197987
-31.787594415197987
-31.787594415197987
-29.834439612420844
-28.369573510337986
-25.830472266727703
-23.48668650339513
-23.974975204089418
-20.068665598535134
-17.041275654230564
-17.724879835202564
-14.697489890897993
-12.549019607843137
-10.10757610437171
-7.763790341039139
-8.349736781872283
-6.298924238956283
-4.834058136873426
-5.127031357289998
-4.150453955901427
-3.36919203479057
-3.5645075150682843
-3.5645075150682843
-3.5645075150682843
-4.443427176317998
-5.224689097428855
-5.0293736171511405
-6.982528419928283
-8.44739452201114
-10.009918364232853
-11.572442206454566
-11.279468986037996
-13.232623788815136
-14.697489890897993
-14.404516670481422
-16.357671473258563
-17.82253757534142
-20.361638818951704
-22.60776684214542
-22.119478141451133
-24.17029068436713
-25.63515678644999
-25.24452582589456
-28.174258030060273
-30.420386053253985
-32.764171816586554
-35.10795757991913
-34.52201113908598
-36.57282368200198
-38.03768978408484
-37.64705882352941
-40.57679102769512
-42.822919050888835
-44.19012741283284
-45.75265125505455
-45.362020294499125
-50.24490730144198
-53.95590142671855
-53.07698176546884
-59.91302357518883
-65.08888380254825
-70.55771725032426
-76.02655069810025
-74.75700007629511
-77.88204776073853
-80.03051804379339
-79.54222934309911
-80.61646448462653
-81.30006866559853
-78.17502098115511
-76.02655069810025
-76.41718165865568
-71.53429465171283
-67.82330052643626
-68.60456244754711
-63.6240177004654
-60.01068131532769
-58.8387884336614
-57.178606851300835
-57.56923781185626
-57.471580071717405
-57.471580071717405
-57.37392233157855
-57.37392233157855
-57.37392233157855
-57.37392233157855
-57.37392233157855
-57.27626459143969
-57.27626459143969
-57.27626459143969
-57.27626459143969
-56.29968719005112
-55.51842526894026
-54.7371633478294
-53.95590142671855
-54.053559166857404
-51.123826962691695
-48.97535667963683
-49.365987640192266
-46.43625543602655
-44.19012741283284
-39.893186846723125
-36.0845349813077
-36.86579690241855
-31.885252155336843
-28.27191577019913
-29.053177691309987
-24.072632944228275
-20.45929655909056
-15.47875181200885
-10.888838025482567
-11.865415426871138
-6.884870679789426
-3.1738765545128556
-4.052796215762569
0.8300907911802854
4.541084916456855
7.470817120622568
10.693522545204852
9.912260624093996
12.939650568398566
15.185778591592278
14.697489890897993
16.650644693675137
18.11551079575799
18.799114976729992
19.58037689784085
19.385061417563133
20.361638818951704
21.14290074006256
20.947585259784848
20.947585259784848
20.947585259784848
19.971007858396277
19.287403677424276
19.385061417563133
19.385061417563133
19.385061417563133
19.385061417563133
18.40848401617456
17.627222095063708
17.82253757534142
17.724879835202564
17.724879835202564
16.84596017395285
16.064698252841993
16.16235599298085
15.185778591592278
14.50217441062028
12.74433508812085
11.181811245899137
11.572442206454566
10.498207064927138
9.81460288395514
9.912260624093996
7.959105821316854
6.494239719233997
5.908293278400855
5.0293736171511405
5.224689097428855
5.224689097428855
5.224689097428855
5.224689097428855
5.224689097428855
5.224689097428855
6.103608758678568
6.884870679789426
6.6895551995117115
6.787212939650568
6.787212939650568
6.787212939650568
6.787212939650568
6.787212939650568
6.6895551995117115
6.6895551995117115
6.6895551995117115
6.6895551995117115
6.6895551995117115
6.6895551995117115
5.810635538261997
5.0293736171511405
4.248111696040284
3.466849774929427
3.662165255207141
2.5879301136797133
1.9043259327077133
2.0996414129854277
2.0019836728465705
2.0019836728465705
2.9785610742351416
3.7598229953459983
3.5645075150682843
5.517662317845426
6.982528419928283
6.6895551995117115
10.498207064927138
13.525597009231708
16.650644693675137
19.775692378118563
19.092088197146563
22.021820401312276
24.267948424505988
23.779659723811704
26.709391927977418
28.95551995117113
30.322728313115128
31.885252155336843
31.592278934920273
32.56885633630884
33.252460517280845
33.15480277714199
34.131380178530556
34.81498435950255
35.596246280613414
36.37750820172427
36.182192721446555
36.182192721446555
36.182192721446555
36.182192721446555
36.182192721446555
36.182192721446555
36.182192721446555
36.182192721446555
36.0845349813077
35.20561532005799
34.424353398947126
34.52201113908598
33.545433737697415
32.86182955672541
31.103990234225986
29.541466392004274
29.834439612420844
26.90470740825513
24.65857938506142
25.146868085755703
21.24055848020142
18.310826276035705
14.11154345006485
10.302891584649425
11.181811245899137
6.201266498817426
2.490272373540856
3.36919203479057
-1.513694972152285
-5.224689097428855
-8.252079041733426
-11.377126726176853
-10.693522545204852
-13.623254749370565
-15.869382772564279
-15.381094071869994
-17.334248874647134
-18.799114976729992
-19.48271915770199
-20.263981078812847
-20.068665598535134
-22.021820401312276
-23.48668650339513
-23.19371328297856
-27.97894254978256
-31.68993667505913
-34.717326619363696
-37.84237430380713
-37.06111238269627
-39.11192492561227
-40.57679102769512
-40.28381780727855
-40.28381780727855
-40.28381780727855
-38.33066300450141
-36.86579690241855
-37.15877012283513
-34.22903791866941
-31.9829098954757
-32.471198596169984
-29.541466392004274
-27.295338368810558
-27.783627069504846
-27.68596932936599
-27.68596932936599
-27.68596932936599
-27.68596932936599
-27.68596932936599
-27.68596932936599
-27.588311589227132
-26.709391927977418
-25.92813000686656
-26.123445487144274
-23.19371328297856
-20.947585259784848
-21.43587396047913
-18.40848401617456
-16.260013733119706
-12.939650568398566
-9.81460288395514
-10.498207064927138
-6.494239719233997
-3.5645075150682843
-4.248111696040284
-0.24414435034714274
2.5879301136797133
5.71297779812314
8.838025482566568
8.154421301594567
11.181811245899137
13.330281528953995
12.84199282825971
15.869382772564279
18.017853055619135
19.48271915770199
21.045242999923705
20.654612039368278
21.728847180895706
22.412451361867703
22.21713588158999
23.19371328297856
23.974975204089418
22.803082322423133
22.119478141451133
22.314793621728846
21.24055848020142
20.55695429922942
20.654612039368278
18.701457236591136
17.236591134508277
15.674067292286564
14.11154345006485
14.404516670481422
12.45136186770428
10.986495765621424
11.279468986037996
9.326314183260854
7.861448081177996
6.298924238956283
4.736400396734569
5.0293736171511405
4.052796215762569
3.2715342946517127
3.466849774929427
1.513694972152285
0.04882887006942855
-0.537117570763714
-1.3183794918745708
-1.1230640115968566
-2.0996414129854277
-2.8809033340962844
-2.68558785381857
-3.662165255207141
-4.443427176317998
-4.248111696040284
-4.248111696040284
-4.248111696040284
-5.224689097428855
-6.005951018539712
-5.810635538261997
-6.787212939650568
-7.568474860761425
-8.349736781872283
-9.130998702983138
-8.935683222705425
-10.888838025482567
-12.353704127565424
-11.963073167009995
-14.013885709925994
-15.47875181200885
-16.064698252841993
-16.84596017395285
-16.748302433813993
-17.724879835202564
-18.40848401617456
-18.21316853589685
-18.310826276035705
-18.310826276035705
-18.21316853589685
-18.21316853589685
-18.21316853589685
-18.21316853589685
-18.21316853589685
-18.21316853589685
-16.357671473258563
-14.795147631036851
-13.232623788815136
-11.670099946593423
-12.060730907148852
-9.033340962844282
-6.884870679789426
-7.373159380483711
-4.345769436179141
-2.197299153124285
1.0254062714579995
4.150453955901427
3.466849774929427
7.373159380483711
10.400549324788281
9.71694514381628
14.599832150759136
18.310826276035705
21.24055848020142
24.4632639047837
23.682001983672848
26.709391927977418
28.95551995117113
28.467231250476843
31.396963454642556
33.545433737697415
35.010299839780274
36.57282368200198
36.182192721446555
37.256427862973986
37.94003204394598
37.74471656366827
36.86579690241855
36.0845349813077
34.32669565880827
32.764171816586554
33.15480277714199
31.103990234225986
29.63912413214313
29.9320973525597
27.002365148393988
24.756237125200276
22.412451361867703
20.068665598535134
20.55695429922942
18.60379949645228
17.041275654230564
17.43190661478599
14.50217441062028
12.256046387426567
10.79118028534371
9.228656443121995
9.619287403677424
6.591897459372854
4.443427176317998
4.931715877012284
1.9043259327077133
-0.14648661020828566
-2.5879301136797133
-4.834058136873426
-4.345769436179141
-7.373159380483711
-9.521629663538567
-9.033340962844282
-11.963073167009995
-14.209201190203707
-16.55298695353628
-18.89677271686885
-18.40848401617456
-20.361638818951704
-21.826504921034562
-21.533531700617992
-24.4632639047837
-26.709391927977418
-28.076600289921416
-29.63912413214313
-29.2484931715877
-34.131380178530556
-37.84237430380713
-36.96345464255741
-43.79949645227741
-48.97535667963683
-53.56527046616312
-58.25284199282826
-57.178606851300835
-60.30365453574426
-62.45212481879911
-61.86617837796597
-61.08491645685512
-60.30365453574426
-57.56923781185626
-55.22545204852369
-55.713740749217976
-49.85427634088655
-45.45967803463798
-46.43625543602655
-40.479133287556266
-36.0845349813077
-33.15480277714199
-30.029755092698558
-30.71335927367056
-28.564888990615703
-27.1976806286717
-27.49065384908827
-24.560921644922562
-22.314793621728846
-18.994430457007706
-15.869382772564279
-16.55298695353628
-11.670099946593423
-7.959105821316854
-8.74036774242771
-3.7598229953459983
-0.14648661020828566
2.783245593957427
5.908293278400855
5.224689097428855
9.228656443121995
12.158388647287708
11.47478446631571
13.525597009231708
14.990463111314565
16.55298695353628
18.11551079575799
17.724879835202564
17.82253757534142
17.82253757534142
17.82253757534142
16.84596017395285
16.064698252841993
15.283436331731137
14.50217441062028
14.697489890897993
13.720912489509422
12.939650568398566
13.13496604867628
11.181811245899137
9.71694514381628
8.05676356145571
6.494239719233997
6.884870679789426
4.931715877012284
3.36919203479057
3.7598229953459983
2.68558785381857
2.0019836728465705
0.24414435034714274
-1.2207217517357138
-0.8300907911802854
-1.9043259327077133
-2.5879301136797133
-2.392614633401999
-4.345769436179141
-5.810635538261997
-6.494239719233997
-7.275501640344854
-7.080186160067139
-9.033340962844282
-10.498207064927138
-10.205233844510566
-12.158388647287708
-13.623254749370565
-14.306858930342566
-15.088120851453422
-14.892805371175708
-16.84596017395285
-18.310826276035705
-18.017853055619135
-18.994430457007706
-19.678034637979707
-19.58037689784085
-19.58037689784085
-19.58037689784085
-19.58037689784085
-19.58037689784085
-19.58037689784085
-18.60379949645228
-17.82253757534142
-18.017853055619135
-17.920195315480278
-17.920195315480278
-17.920195315480278
-17.920195315480278
-17.920195315480278
-17.920195315480278
-17.920195315480278
-18.89677271686885
-19.58037689784085
-19.48271915770199
-19.48271915770199
-19.48271915770199
-19.48271915770199
-19.48271915770199
-19.48271915770199
-19.48271915770199
-19.385061417563133
-19.385061417563133
-18.506141756313422
-17.724879835202564
-17.920195315480278
-15.967040512703136
-14.404516670481422
-13.81857022964828
-13.037308308537423
-13.13496604867628
-10.302891584649425
-8.05676356145571
-8.545052262149996
-5.517662317845426
-3.36919203479057
-0.9277485313191425
1.2207217517357138
0.7324330510414282
2.783245593957427
4.248111696040284
3.8574807354848555
5.908293278400855
7.373159380483711
8.935683222705425
10.498207064927138
10.10757610437171
10.205233844510566
10.205233844510566
10.205233844510566
10.205233844510566
10.205233844510566
8.252079041733426
6.787212939650568
7.080186160067139
5.127031357289998
3.662165255207141
3.9551384756237127
2.0019836728465705
0.537117570763714
-1.9043259327077133
-4.248111696040284
-3.662165255207141
-5.71297779812314
-7.177843900205997
-6.884870679789426
-9.81460288395514
-11.963073167009995
-12.45136186770428
-13.330281528953995
-13.13496604867628
-15.088120851453422
-16.55298695353628
-16.16235599298085
-17.236591134508277
-17.920195315480278
-17.724879835202564
-17.82253757534142
-17.82253757534142
-17.82253757534142
-17.82253757534142
-17.724879835202564
-18.701457236591136
-19.48271915770199
-20.263981078812847
-21.045242999923705
-20.84992751964599
-22.803082322423133
-24.267948424505988
-23.87731746395056
-24.95155260547799
-25.63515678644999
-27.392996108949415
-28.857862211032273
-28.564888990615703
-29.541466392004274
-30.322728313115128
-30.127412832837415
-31.103990234225986
-31.787594415197987
-31.68993667505913
-31.68993667505913
-31.68993667505913
-33.545433737697415
-35.010299839780274
-34.717326619363696
-39.5025558861677
-43.21355001144427
-46.240939955748836
-49.365987640192266
-48.584725719081405
-50.635538261997404
-52.10040436408026
-51.80743114366369
-49.951934081025406
-48.38941023880369
-43.89715419241627
-40.186160067139696
-40.96742198825055
-33.15480277714199
-27.1976806286717
-28.564888990615703
-19.678034637979707
-13.037308308537423
-6.787212939650568
-0.537117570763714
-2.0019836728465705
3.076218814373999
6.6895551995117115
5.908293278400855
9.81460288395514
12.74433508812085
15.967040512703136
19.092088197146563
18.40848401617456
20.45929655909056
21.826504921034562
21.533531700617992
23.48668650339513
24.95155260547799
25.63515678644999
26.416418707560844
26.22110322728313
27.1976806286717
27.881284809643702
27.783627069504846
28.760204470893417
29.443808651865414
29.2484931715877
29.346150911726557
29.2484931715877
30.22507057297627
31.00633249408713
30.811017013809415
30.811017013809415
30.811017013809415
29.834439612420844
29.053177691309987
29.2484931715877
29.2484931715877
29.2484931715877
29.150835431448844
28.27191577019913
27.49065384908827
27.588311589227132
27.588311589227132
27.588311589227132
26.61173418783856
25.830472266727703
26.025787747005417
26.025787747005417
26.025787747005417
25.049210345616846
24.267948424505988
24.4632639047837
23.389028763256274
22.705424582284277
22.803082322423133
21.826504921034562
21.14290074006256
21.24055848020142
21.24055848020142
21.24055848020142
20.263981078812847
19.48271915770199
19.678034637979707
19.58037689784085
19.58037689784085
19.58037689784085
19.58037689784085
19.58037689784085
19.58037689784085
19.58037689784085
19.58037689784085
19.58037689784085
19.58037689784085
18.60379949645228
17.82253757534142
18.017853055619135
17.041275654230564
16.260013733119706
16.45532921339742
14.50217441062028
13.037308308537423
11.377126726176853
9.81460288395514
10.205233844510566
8.252079041733426
6.787212939650568
7.080186160067139
5.127031357289998
3.662165255207141
2.9785610742351416
2.197299153124285
2.392614633401999
2.2949568932631417
2.2949568932631417
2.2949568932631417
3.2715342946517127
4.052796215762569
5.71297779812314
7.275501640344854
6.884870679789426
9.912260624093996
12.060730907148852
11.572442206454566
13.623254749370565
15.088120851453422
17.627222095063708
19.87335011825742
19.385061417563133
21.338216220340275
22.803082322423133
22.510109102006563
25.439841306172273
27.68596932936599
28.076600289921416
28.95551995117113
28.760204470893417
30.71335927367056
32.178225375753414
31.787594415197987
32.86182955672541
33.545433737697415
33.3501182574197
33.3501182574197
33.3501182574197
33.3501182574197
33.3501182574197
33.3501182574197
32.37354085603113
31.592278934920273
29.834439612420844
28.369573510337986
28.66254673075456
27.588311589227132
26.90470740825513
27.100022888532845
25.049210345616846
23.58434424353399
22.021820401312276
20.45929655909056
20.752269779507134
18.799114976729992
17.334248874647134
17.627222095063708
15.674067292286564
14.209201190203707
13.525597009231708
12.74433508812085
12.939650568398566
11.963073167009995
11.181811245899137
11.377126726176853
10.302891584649425
9.619287403677424
8.838025482566568
8.05676356145571
8.154421301594567
8.154421301594567
8.154421301594567
8.154421301594567
7.177843900205997
6.494239719233997
6.591897459372854
6.591897459372854
6.591897459372854
6.591897459372854
6.591897459372854
6.591897459372854
5.615320057984283
4.834058136873426
4.052796215762569
3.2715342946517127
3.466849774929427
1.513694972152285
0.04882887006942855
0.34180209048599985
-1.513694972152285
-2.9785610742351416
-4.541084916456855
-6.103608758678568
-5.71297779812314
-10.595864805065995
-14.306858930342566
-13.427939269092851
-19.385061417563133
-23.779659723811704
-28.564888990615703
-33.15480277714199
-32.178225375753414
-33.3501182574197
-34.0337224383917
-33.838406958113985
-31.9829098954757
-30.420386053253985
-26.025787747005417
-22.21713588158999
-22.998397802700847
-14.209201190203707
-7.568474860761425
-9.033340962844282
-0.14648661020828566
6.39658197909514
11.572442206454566
17.13893339436942
15.869382772564279
18.994430457007706
21.14290074006256
20.654612039368278
23.58434424353399
25.830472266727703
27.1976806286717
28.857862211032273
28.467231250476843
29.443808651865414
30.22507057297627
30.029755092698558
30.029755092698558
30.029755092698558
29.053177691309987
28.369573510337986
28.467231250476843
26.514076447699704
25.049210345616846
25.342183566033416
23.389028763256274
21.92416266117342
20.263981078812847
18.701457236591136
19.092088197146563
16.16235599298085
13.916227969787137
14.404516670481422
11.377126726176853
9.228656443121995
6.884870679789426
4.541084916456855
5.0293736171511405
2.0019836728465705
-0.04882887006942855
0.34180209048599985
-1.6113527122911422
-3.076218814373999
-5.615320057984283
-7.861448081177996
-7.373159380483711
-9.42397192339971
-10.888838025482567
-10.498207064927138
-12.549019607843137
-14.013885709925994
-15.576409552147707
-17.13893339436942
-16.748302433813993
-18.701457236591136
-20.16632333867399
-19.87335011825742
-22.803082322423133
-24.95155260547799
-26.416418707560844
-27.97894254978256
-27.588311589227132
-29.63912413214313
-31.103990234225986
-30.71335927367056
-31.787594415197987
-32.471198596169984
-34.22903791866941
-35.69390402075227
-35.4009308003357
-36.37750820172427
-37.06111238269627
-36.96345464255741
-36.96345464255741
-36.96345464255741
-37.84237430380713
-38.62363622491798
-38.42832074464027
-38.42832074464027
-38.42832074464027
-38.42832074464027
-39.40489814602884
-40.08850232700084
-38.91660944533455
-38.23300526436255
-38.42832074464027
-37.35408560311284
-36.67048142214084
-36.768139162279695
-33.838406958113985
-31.68993667505913
-29.2484931715877
-26.90470740825513
-27.392996108949415
-23.48668650339513
-20.55695429922942
-21.14290074006256
-17.236591134508277
-14.306858930342566
-11.08415350576028
-7.959105821316854
-8.642710002288853
-4.736400396734569
-1.8066681925688564
-2.392614633401999
0.537117570763714
2.68558785381857
4.150453955901427
5.71297779812314
5.322346837567712
8.252079041733426
10.498207064927138
10.009918364232853
11.08415350576028
11.767757686732281
12.549019607843137
13.330281528953995
13.13496604867628
13.232623788815136
13.232623788815136
13.232623788815136
12.256046387426567
11.47478446631571
10.693522545204852
9.912260624093996
10.10757610437171
8.154421301594567
6.6895551995117115
6.982528419928283
4.052796215762569
1.8066681925688564
-0.43945983062485694
-2.783245593957427
-2.2949568932631417
-6.201266498817426
-9.130998702983138
-8.44739452201114
-12.45136186770428
-15.381094071869994
-17.627222095063708
-19.971007858396277
-19.385061417563133
-23.389028763256274
-26.318760967421987
-25.63515678644999
-28.66254673075456
-30.811017013809415
-32.178225375753414
-33.838406958113985
-33.44777599755856
-34.424353398947126
-35.20561532005799
-35.010299839780274
-36.96345464255741
-38.42832074464027
-38.03768978408484
-38.1353475242237
-38.1353475242237
-38.1353475242237
-38.03768978408484
-38.03768978408484
-38.03768978408484
-38.03768978408484
-37.06111238269627
-36.27985046158541
-36.475165941863125
-35.49858854047456
-34.717326619363696
-34.91264209964141
-33.838406958113985
-33.15480277714199
-32.37354085603113
-31.592278934920273
-31.68993667505913
-31.68993667505913
-31.68993667505913
-31.68993667505913
-30.71335927367056
-29.9320973525597
-29.150835431448844
-28.369573510337986
-28.467231250476843
-30.322728313115128
-31.885252155336843
-31.494621194781413
-33.44777599755856
-34.91264209964141
-36.475165941863125
-38.03768978408484
-37.74471656366827
-35.889219501029984
-34.32669565880827
-34.61966887922484
-28.857862211032273
-24.365606164644845
-17.724879835202564
-11.572442206454566
-12.939650568398566
-2.0996414129854277
5.908293278400855
4.052796215762569
15.967040512703136
24.756237125200276
31.396963454642556
38.42832074464027
36.86579690241855
43.89715419241627
48.97535667963683
47.90112153810941
52.881666285191116
56.49500267032883
59.522392614633404
62.64744029907683
61.86617837796597
62.061493858243686
61.96383611810483
61.96383611810483
60.987258716716255
60.2059967956054
57.56923781185626
55.22545204852369
55.713740749217976
51.80743114366369
48.78004119935912
49.46364538033112
45.45967803463798
42.529945830472265
39.307240405889985
36.182192721446555
36.86579690241855
32.95948729686427
29.9320973525597
30.615701533531702
27.588311589227132
25.342183566033416
22.998397802700847
20.654612039368278
21.14290074006256
19.092088197146563
17.627222095063708
18.017853055619135
16.943617914091707
16.260013733119706
16.357671473258563
16.357671473258563
16.357671473258563
16.357671473258563
16.357671473258563
16.357671473258563
16.357671473258563
16.357671473258563
16.357671473258563
16.260013733119706
16.260013733119706
15.381094071869994
14.599832150759136
14.795147631036851
12.84199282825971
11.279468986037996
10.693522545204852
9.912260624093996
10.009918364232853
8.05676356145571
6.591897459372854
6.982528419928283
5.908293278400855
5.224689097428855
4.443427176317998
3.662165255207141
3.7598229953459983
3.7598229953459983
3.7598229953459983
3.7598229953459983
4.736400396734569
5.420004577706569
6.201266498817426
6.982528419928283
6.884870679789426
8.74036774242771
10.302891584649425
9.912260624093996
12.84199282825971
15.088120851453422
18.40848401617456
21.43587396047913
20.752269779507134
26.61173418783856
31.103990234225986
30.029755092698558
36.96345464255741
42.13931486991684
47.60814831769284
53.07698176546884
51.80743114366369
58.74113069352254
63.91699092088197
62.745098039215684
69.67879758907453
74.75700007629511
78.37033646143283
82.27664606698711
81.39772640573739
85.40169375143053
88.33142595559625
87.64782177462425
89.60097657740138
91.06584267948425
90.67521171892882
90.77286945906768
90.67521171892882
89.69863431754024
88.91737239642939
89.1126878767071
86.1829556725414
83.93682764934768
81.49538414587624
79.15159838254368
79.63988708323797
75.73357747768368
72.70618753337911
73.3897917143511
69.38582436865796
66.45609216449226
63.233386739909974
60.108339055466544
60.79194323643854
56.7879758907454
53.85824368657969
54.44419012741283
51.416800183108265
49.17067215991455
45.85030899519341
42.822919050888835
43.40886549172198
39.5025558861677
36.475165941863125
37.15877012283513
33.15480277714199
30.22507057297627
27.100022888532845
23.974975204089418
24.65857938506142
20.654612039368278
17.724879835202564
18.310826276035705
14.404516670481422
11.47478446631571
9.228656443121995
6.884870679789426
7.373159380483711
4.345769436179141
2.197299153124285
2.68558785381857
1.6113527122911422
0.9277485313191425
0.04882887006942855
-0.6347753109025711
-0.43945983062485694
0.43945983062485694
1.1230640115968566
1.0254062714579995
1.0254062714579995
1.0254062714579995
1.0254062714579995
1.0254062714579995
1.0254062714579995
0.04882887006942855
-0.6347753109025711
-0.43945983062485694
-2.392614633401999
-3.8574807354848555
-5.420004577706569
-6.982528419928283
-6.591897459372854
-8.642710002288853
-10.10757610437171
-9.71694514381628
-11.767757686732281
-13.232623788815136
-12.84199282825971
-12.939650568398566
-12.939650568398566
-15.771725032425422
-18.017853055619135
-17.52956435492485
-20.45929655909056
-22.705424582284277
-23.096055542839704
-23.974975204089418
-23.779659723811704
-20.947585259784848
-18.701457236591136
-19.18974593728542
-13.330281528953995
-8.935683222705425
-2.2949568932631417
3.8574807354848555
2.392614633401999
12.256046387426567
19.678034637979707
18.017853055619135
26.025787747005417
31.885252155336843
33.44777599755856
35.889219501029984
35.303273060196844
34.52201113908598
33.74074921797513
33.838406958113985
31.00633249408713
28.760204470893417
26.318760967421987
23.974975204089418
24.560921644922562
21.533531700617992
19.287403677424276
19.775692378118563
16.84596017395285
14.599832150759136
11.279468986037996
8.252079041733426
8.838025482566568
5.908293278400855
3.662165255207141
4.150453955901427
1.2207217517357138
-0.9277485313191425
-3.2715342946517127
-5.615320057984283
-5.127031357289998
-8.05676356145571
-10.302891584649425
-9.81460288395514
-13.720912489509422
-16.650644693675137
-18.89677271686885
-21.24055848020142
-20.654612039368278
-22.705424582284277
-24.17029068436713
-23.87731746395056
-26.807049668116274
-28.95551995117113
-30.420386053253985
-31.9829098954757
-31.592278934920273
-33.545433737697415
-35.010299839780274
-34.717326619363696
-36.67048142214084
-38.1353475242237
-39.69787136644541
-41.26039520866713
-40.86976424811169
-42.822919050888835
-44.28778515297169
-43.99481193255512
-45.947966735332265
-47.412832837415124
-48.97535667963683
-50.53788052185855
-50.14724956130312
-52.10040436408026
-53.56527046616312
-53.17463950560769
-55.22545204852369
-56.59266041046769
-57.27626459143969
-58.057526512550545
-57.86221103227283
-58.8387884336614
-59.522392614633404
-59.32707713435569
-58.44815747310597
-57.66689555199512
-53.95590142671855
-50.928511482413974
-51.61211566338598
-44.77607385366598
-39.600213626306555
-40.67444876783398
-30.908674753948272
-23.48668650339513
-14.697489890897993
-6.103608758678568
-8.05676356145571
2.783245593957427
10.888838025482567
9.130998702983138
17.13893339436942
22.998397802700847
27.392996108949415
32.178225375753414
31.103990234225986
33.15480277714199
34.61966887922484
34.32669565880827
34.32669565880827
34.32669565880827
33.3501182574197
32.56885633630884
32.764171816586554
29.834439612420844
27.588311589227132
28.076600289921416
24.17029068436713
21.24055848020142
17.13893339436942
13.232623788815136
14.11154345006485
10.10757610437171
7.177843900205997
7.763790341039139
3.8574807354848555
0.9277485313191425
-2.197299153124285
-5.322346837567712
-4.638742656595713
-7.666132600900283
-9.81460288395514
-9.326314183260854
-10.400549324788281
-11.08415350576028
-11.865415426871138
-12.646677347981994
-12.45136186770428
-13.427939269092851
-14.209201190203707
-14.013885709925994
-13.13496604867628
-12.353704127565424
-12.549019607843137
-12.45136186770428
-12.45136186770428
-11.572442206454566
-10.79118028534371
-10.986495765621424
-9.912260624093996
-9.228656443121995
-9.326314183260854
-9.326314183260854
-9.326314183260854
-9.326314183260854
-9.326314183260854
-9.326314183260854
-9.326314183260854
-9.326314183260854
-9.326314183260854
-9.326314183260854
-9.326314183260854
-11.181811245899137
-12.74433508812085
-12.353704127565424
-14.306858930342566
-15.771725032425422
-18.310826276035705
-20.654612039368278
-20.16632333867399
-24.072632944228275
-27.002365148393988
-26.318760967421987
-30.322728313115128
-33.15480277714199
-35.4009308003357
-37.74471656366827
-37.256427862973986
-40.186160067139696
-42.43228809033341
-41.84634164950027
-42.92057679102769
-43.604180971999696
-42.529945830472265
-41.74868390936141
-41.943999389639124
-40.96742198825055
-40.186160067139696
-40.38147554741741
-39.307240405889985
-38.62363622491798
-36.86579690241855
-35.303273060196844
-35.596246280613414
-35.49858854047456
-35.49858854047456
-35.49858854047456
-39.307240405889985
-42.33463035019455
-43.50652323186084
-45.16670481422141
-44.77607385366598
-43.89715419241627
-43.11589227130541
-43.21355001144427
-40.38147554741741
-38.1353475242237
-31.885252155336843
-26.61173418783856
-27.783627069504846
-18.89677271686885
-12.256046387426567
-13.720912489509422
-4.834058136873426
1.7090104524299992
5.0293736171511405
9.033340962844282
8.154421301594567
9.326314183260854
10.009918364232853
9.81460288395514
8.935683222705425
8.154421301594567
6.39658197909514
4.931715877012284
5.224689097428855
1.3183794918745708
-1.513694972152285
-0.8300907911802854
-4.834058136873426
-7.763790341039139
-12.84199282825971
-17.43190661478599
-16.45532921339742
-21.43587396047913
-25.049210345616846
-24.267948424505988
-29.150835431448844
-32.86182955672541
-35.889219501029984
-39.014267185473415
-38.23300526436255
-40.28381780727855
-41.74868390936141
-41.45571068894484
-42.43228809033341
-43.11589227130541
-43.018234531166556
-43.018234531166556
-43.018234531166556
-41.065079728389414
-39.600213626306555
-39.893186846723125
-36.96345464255741
-34.717326619363696
-33.252460517280845
-31.68993667505913
-31.9829098954757
-31.00633249408713
-30.22507057297627
-30.420386053253985
-30.322728313115128
-30.322728313115128
-31.2993057145037
-31.9829098954757
-31.885252155336843
-34.717326619363696
-36.96345464255741
-36.475165941863125
-39.40489814602884
-41.5533684290837
-43.018234531166556
-44.580758373388264
-44.19012741283284
-46.14328221560998
-47.60814831769284
-47.31517509727627
-46.43625543602655
-45.654993514915695
-42.92057679102769
-40.67444876783398
-41.16273746852827
-36.27985046158541
-32.56885633630884
-33.3501182574197
-27.392996108949415
-22.998397802700847
-17.334248874647134
-11.865415426871138
-13.037308308537423
-6.103608758678568
-0.9277485313191425
-2.0996414129854277
3.7598229953459983
8.154421301594567
12.939650568398566
17.627222095063708
16.55298695353628
20.55695429922942
23.48668650339513
22.803082322423133
26.807049668116274
29.736781872281988
31.885252155336843
34.32669565880827
33.74074921797513
34.81498435950255
35.49858854047456
35.4009308003357
36.37750820172427
37.06111238269627
35.889219501029984
35.20561532005799
35.4009308003357
34.32669565880827
33.64309147783627
33.74074921797513
30.811017013809415
28.66254673075456
26.22110322728313
23.87731746395056
24.365606164644845
20.45929655909056
17.52956435492485
18.11551079575799
14.209201190203707
11.279468986037996
8.05676356145571
4.931715877012284
5.615320057984283
2.5879301136797133
0.43945983062485694
0.9277485313191425
-1.9043259327077133
-4.150453955901427
-5.615320057984283
-7.177843900205997
-6.787212939650568
-7.861448081177996
-8.545052262149996
-8.349736781872283
-9.42397192339971
-10.10757610437171
-9.912260624093996
-10.009918364232853
-10.009918364232853
-10.888838025482567
-11.670099946593423
-11.47478446631571
-12.45136186770428
-13.232623788815136
-14.013885709925994
-14.795147631036851
-14.599832150759136
-16.55298695353628
-18.017853055619135
-17.724879835202564
-18.701457236591136
-19.385061417563133
-20.16632333867399
-20.947585259784848
-20.752269779507134
-21.826504921034562
-22.510109102006563
-22.314793621728846
-22.412451361867703
-22.314793621728846
-21.43587396047913
-20.654612039368278
-20.84992751964599
-18.89677271686885
-17.334248874647134
-17.724879835202564
-12.84199282825971
-9.130998702983138
-3.2715342946517127
2.0019836728465705
0.8300907911802854
9.71694514381628
16.260013733119706
14.795147631036851
25.63515678644999
33.74074921797513
43.40886549172198
52.6863508049134
50.53788052185855
61.5732051575494
69.58113984893568
67.7256427862974
75.73357747768368
81.5930418860151
86.96421759365225
92.43305104142824
91.1635004196231
91.45647364003968
91.35881589990082
91.35881589990082
87.45250629434653
84.42511635004196
79.3469138628214
74.75700007629511
75.73357747768368
72.60852979324025
70.4600595101854
70.85069047074083
68.89753566796368
67.33501182574197
68.60456244754711
69.28816662851911
69.0928511482414
72.90150301365682
75.83123521782254
75.14763103685054
77.19844357976653
78.6633096818494
77.39375906004425
76.61249713893339
76.8078126192111
72.90150301365682
69.87411306935225
70.55771725032426
66.55374990463112
63.6240177004654
60.401312275883114
57.27626459143969
57.95986877241169
53.95590142671855
51.02616922255284
51.61211566338598
47.705806057831694
44.67841611352712
41.5533684290837
38.42832074464027
39.11192492561227
36.0845349813077
33.838406958113985
34.32669565880827
29.443808651865414
25.732814526588847
22.705424582284277
19.58037689784085
20.263981078812847
17.236591134508277
15.088120851453422
15.576409552147707
11.572442206454566
8.642710002288853
6.39658197909514
4.052796215762569
4.541084916456855
1.6113527122911422
-0.537117570763714
-0.04882887006942855
-2.9785610742351416
-5.224689097428855
-8.545052262149996
-11.572442206454566
-10.888838025482567
-14.892805371175708
-17.82253757534142
-17.13893339436942
-21.14290074006256
-24.072632944228275
-28.174258030060273
-31.9829098954757
-31.103990234225986
-36.0845349813077
-39.69787136644541
-38.91660944533455
-41.943999389639124
-44.09246967269398
-45.55733577477684
-47.11985961699855
-46.72922865644312
-47.80346379797055
-48.48706797894255
-48.291752498664835
-48.291752498664835
-48.291752498664835
-45.45967803463798
-43.21355001144427
-43.70183871213855
-40.67444876783398
-38.42832074464027
-38.91660944533455
-35.010299839780274
-31.9829098954757
-29.834439612420844
-27.392996108949415
-27.97894254978256
-23.974975204089418
-21.045242999923705
-21.728847180895706
-17.724879835202564
-14.795147631036851
-11.572442206454566
-8.44739452201114
-9.228656443121995
-5.224689097428855
-2.2949568932631417
-2.8809033340962844
0.9277485313191425
3.8574807354848555
6.103608758678568
8.44739452201114
7.959105821316854
10.888838025482567
13.13496604867628
12.646677347981994
13.720912489509422
14.404516670481422
14.209201190203707
14.306858930342566
14.209201190203707
13.330281528953995
12.549019607843137
12.74433508812085
11.670099946593423
10.986495765621424
9.228656443121995
7.666132600900283
8.05676356145571
6.005951018539712
4.541084916456855
4.931715877012284
2.8809033340962844
1.416037232013428
-1.0254062714579995
-3.2715342946517127
-2.783245593957427
-5.71297779812314
-7.959105821316854
-7.470817120622568
-10.400549324788281
-12.646677347981994
-14.990463111314565
-17.334248874647134
-16.84596017395285
-20.752269779507134
-23.682001983672848
-22.998397802700847
-26.025787747005417
-28.174258030060273
-30.615701533531702
-32.86182955672541
-32.37354085603113
-34.424353398947126
-35.79156176089113
-35.49858854047456
-38.42832074464027
-40.67444876783398
-42.04165712977798
-43.604180971999696
-43.21355001144427
-45.26436255436027
-46.63157091630426
-46.33859769588769
-49.26832990005341
-51.416800183108265
-53.760585946440834
-56.1043717097734
-55.61608300907912
-57.56923781185626
-59.03410391393912
-58.74113069352254
-59.71770809491112
-60.401312275883114
-60.2059967956054
-60.2059967956054
-60.2059967956054
-59.22941939421683
-58.44815747310597
-58.643472953383686
-55.713740749217976
-53.467612726024264
-51.123826962691695
-48.78004119935912
-49.26832990005341
-45.26436255436027
-42.33463035019455
-43.018234531166556
-38.03768978408484
-34.32669565880827
-31.2993057145037
-28.174258030060273
-28.857862211032273
-23.974975204089418
-20.263981078812847
-21.045242999923705
-17.041275654230564
-14.11154345006485
-10.986495765621424
-7.861448081177996
-8.545052262149996
-8.349736781872283
-8.349736781872283
-8.349736781872283
-12.158388647287708
-15.185778591592278
-18.310826276035705
-21.43587396047913
-20.752269779507134
-22.803082322423133
-24.267948424505988
-23.87731746395056
-23.974975204089418
-23.974975204089418
-22.021820401312276
-20.55695429922942
-20.84992751964599
-15.967040512703136
-12.256046387426567
-13.13496604867628
-9.130998702983138
-6.201266498817426
-5.908293278400855
-5.0293736171511405
-5.224689097428855
-7.080186160067139
-8.545052262149996
-8.154421301594567
-9.228656443121995
-9.912260624093996
-9.81460288395514
-9.81460288395514
-9.81460288395514
-9.81460288395514
-9.81460288395514
-9.81460288395514
-8.838025482566568
-8.05676356145571
-7.275501640344854
-6.494239719233997
-6.6895551995117115
-5.71297779812314
-4.931715877012284
-5.127031357289998
-5.127031357289998
-5.127031357289998
-6.982528419928283
-8.44739452201114
-8.154421301594567
-10.10757610437171
-11.572442206454566
-11.279468986037996
-12.256046387426567
-13.037308308537423
-14.795147631036851
-16.260013733119706
-15.967040512703136
-16.943617914091707
-17.627222095063708
-17.52956435492485
-17.52956435492485
-17.52956435492485
-16.55298695353628
-15.771725032425422
-15.967040512703136
-14.013885709925994
-12.549019607843137
-12.84199282825971
-9.912260624093996
-7.666132600900283
-4.345769436179141
-1.3183794918745708
-2.0019836728465705
2.8809033340962844
6.494239719233997
5.71297779812314
10.693522545204852
14.306858930342566
19.18974593728542
23.87731746395056
22.803082322423133
27.783627069504846
31.494621194781413
30.615701533531702
35.596246280613414
39.20958266575113
42.236972610055695
45.362020294499125
44.67841611352712
47.705806057831694
49.85427634088655
49.365987640192266
52.295719844357976
54.54184786755169
56.88563363088426
59.13176165407798
58.643472953383686
60.59662775616083
62.061493858243686
61.768520637827116
63.72167544060426
65.18654154268711
65.77248798352025
66.55374990463112
66.3584344243534
66.3584344243534
66.3584344243534
66.3584344243534
64.40527962157626
62.84275577935454
60.30365453574426
58.057526512550545
58.54581521324483
54.54184786755169
51.61211566338598
52.19806210421912
47.31517509727627
43.604180971999696
39.600213626306555
35.69390402075227
36.57282368200198
30.615701533531702
26.22110322728313
27.1976806286717
21.24055848020142
16.84596017395285
12.060730907148852
7.373159380483711
8.44739452201114
3.466849774929427
-0.14648661020828566
0.537117570763714
-5.224689097428855
-9.619287403677424
-12.45136186770428
-15.674067292286564
-14.990463111314565
-18.89677271686885
-21.826504921034562
-21.24055848020142
-23.291371023117417
-24.65857938506142
-26.318760967421987
-27.783627069504846
-27.49065384908827
-28.467231250476843
-29.2484931715877
-29.053177691309987
-30.029755092698558
-30.71335927367056
-31.494621194781413
-32.27588311589227
-32.08056763561456
-33.05714503700313
-33.838406958113985
-33.64309147783627
-33.64309147783627
-33.64309147783627
-33.64309147783627
-33.64309147783627
-33.64309147783627
-33.64309147783627
-33.64309147783627
-33.545433737697415
-32.6665140764477
-31.885252155336843
-29.150835431448844
-26.90470740825513
-27.392996108949415
-24.365606164644845
-22.21713588158999
-22.705424582284277
-16.84596017395285
-12.353704127565424
-5.71297779812314
0.34180209048599985
-0.9277485313191425
6.884870679789426
12.74433508812085
11.47478446631571
20.361638818951704
27.002365148393988
34.0337224383917
41.065079728389414
39.5025558861677
45.55733577477684
49.951934081025406
48.97535667963683
53.95590142671855
57.56923781185626
58.643472953383686
60.30365453574426
59.91302357518883
60.8896009765774
61.5732051575494
61.475547417410546
60.49897001602197
59.71770809491112
56.983291371023114
54.7371633478294
55.22545204852369
49.365987640192266
44.873731593804834
45.85030899519341
37.06111238269627
30.420386053253985
23.291371023117417
16.260013733119706
17.82253757534142
10.79118028534371
5.615320057984283
6.787212939650568
2.68558785381857
-0.04882887006942855
-0.43945983062485694
-1.3183794918745708
-1.1230640115968566
0.6347753109025711
2.197299153124285
1.8066681925688564
2.8809033340962844
3.5645075150682843
2.490272373540856
1.8066681925688564
1.9043259327077133
-1.8066681925688564
-4.834058136873426
-4.150453955901427
-6.201266498817426
-7.666132600900283
-9.228656443121995
-10.79118028534371
-10.400549324788281
-12.45136186770428
-13.916227969787137
-13.525597009231708
-13.623254749370565
-13.623254749370565
-14.50217441062028
-15.283436331731137
-15.088120851453422
-15.185778591592278
-15.088120851453422
-15.088120851453422
-14.209201190203707
-13.427939269092851
-13.623254749370565
-13.525597009231708
-13.525597009231708
-13.525597009231708
-13.525597009231708
-13.525597009231708
-12.549019607843137
-11.865415426871138
-11.963073167009995
-11.963073167009995
-11.963073167009995
-11.963073167009995
-11.963073167009995
-11.963073167009995
-10.986495765621424
-10.205233844510566
-7.568474860761425
-5.224689097428855
-5.810635538261997
-2.783245593957427
-0.537117570763714
-1.0254062714579995
2.783245593957427
5.71297779812314
8.838025482566568
11.963073167009995
11.279468986037996
15.283436331731137
18.21316853589685
17.52956435492485
21.43587396047913
24.4632639047837
27.588311589227132
30.71335927367056
29.9320973525597
32.95948729686427
35.20561532005799
34.717326619363696
38.62363622491798
41.5533684290837
43.70183871213855
46.04562447547112
45.55733577477684
46.63157091630426
47.31517509727627
47.11985961699855
47.11985961699855
47.11985961699855
46.14328221560998
45.362020294499125
45.55733577477684
42.62760357061112
40.38147554741741
40.86976424811169
37.84237430380713
35.69390402075227
32.37354085603113
29.2484931715877
29.9320973525597
24.95155260547799
21.338216220340275
22.119478141451133
18.11551079575799
15.185778591592278
11.08415350576028
7.177843900205997
8.05676356145571
3.076218814373999
-0.537117570763714
0.24414435034714274
-3.662165255207141
-6.591897459372854
-9.81460288395514
-12.939650568398566
-12.158388647287708
-15.185778591592278
-17.43190661478599
-16.943617914091707
-19.87335011825742
-22.119478141451133
-25.439841306172273
-28.467231250476843
-27.783627069504846
-31.68993667505913
-34.61966887922484
-34.0337224383917
-37.94003204394598
-40.86976424811169
-44.97138933394369
-48.877698939497975
-47.998779278248264
-52.881666285191116
-56.59266041046769
-55.713740749217976
-60.694285496299685
-64.3076218814374
-67.33501182574197
-70.4600595101854
-69.67879758907453
-73.68276493476768
-76.61249713893339
-75.9288929579614
-77.00312809948882
-77.68673228046082
-77.4914168001831
-77.4914168001831
-77.4914168001831
-76.51483939879454
-75.73357747768368
-75.83123521782254
-73.87808041504539
-72.41321431296254
-69.87411306935225
-67.53032730601969
-68.01861600671397
-64.9912260624094
-62.745098039215684
-63.233386739909974
-60.2059967956054
-58.057526512550545
-54.639505607690545
-51.61211566338598
-52.295719844357976
-48.291752498664835
-45.26436255436027
-45.947966735332265
-42.92057679102769
-40.67444876783398
-37.35408560311284
-34.32669565880827
-34.91264209964141
-31.885252155336843
-29.736781872281988
-30.22507057297627
-27.1976806286717
-25.049210345616846
-22.60776684214542
-20.263981078812847
-20.752269779507134
-17.82253757534142
-15.576409552147707
-16.064698252841993
-14.013885709925994
-12.549019607843137
-10.986495765621424
-9.42397192339971
-9.81460288395514
-8.74036774242771
-8.05676356145571
-8.154421301594567
-8.154421301594567
-8.154421301594567
-9.130998702983138
-9.81460288395514
-9.71694514381628
-13.525597009231708
-16.45532921339742
-15.869382772564279
-22.60776684214542
-27.783627069504846
-32.37354085603113
-37.06111238269627
-35.98687724116884
-40.08850232700084
-42.92057679102769
-42.33463035019455
-43.40886549172198
-44.09246967269398
-42.04165712977798
-40.57679102769512
-40.86976424811169
-36.96345464255741
-33.93606469825284
-34.61966887922484
-30.615701533531702
-27.68596932936599
-27.392996108949415
-26.514076447699704
-26.709391927977418
-28.564888990615703
-30.029755092698558
-29.63912413214313
-30.71335927367056
-31.396963454642556
-33.15480277714199
-34.717326619363696
-34.32669565880827
-36.27985046158541
-37.74471656366827
-37.4517433432517
-39.40489814602884
-40.86976424811169
-42.43228809033341
-43.99481193255512
-43.604180971999696
-43.70183871213855
-43.604180971999696
-43.604180971999696
-44.580758373388264
-45.26436255436027
-44.19012741283284
-43.40886549172198
-43.604180971999696
-42.529945830472265
-41.84634164950027
-41.943999389639124
-40.96742198825055
-40.186160067139696
-39.40489814602884
-38.62363622491798
-38.818951705195694
-36.86579690241855
-35.303273060196844
-35.69390402075227
-32.6665140764477
-30.518043793392845
-28.076600289921416
-25.732814526588847
-26.318760967421987
-22.314793621728846
-19.385061417563133
-20.068665598535134
-14.11154345006485
-9.71694514381628
-4.052796215762569
1.3183794918745708
0.14648661020828566
7.080186160067139
12.158388647287708
11.08415350576028
18.89677271686885
24.853894865339132
29.2484931715877
33.93606469825284
32.86182955672541
37.94003204394598
41.5533684290837
40.67444876783398
43.70183871213855
45.947966735332265
46.33859769588769
47.21751735713741
47.0222018768597
46.04562447547112
45.26436255436027
45.45967803463798
44.48310063324941
43.70183871213855
41.943999389639124
40.38147554741741
40.772106507972836
38.72129396505684
37.256427862973986
37.549401083390556
35.596246280613414
34.131380178530556
32.471198596169984
30.908674753948272
31.2993057145037
30.22507057297627
29.541466392004274
29.63912413214313
29.63912413214313
29.63912413214313
28.66254673075456
27.881284809643702
28.076600289921416
28.95551995117113
29.736781872281988
29.541466392004274
28.564888990615703
27.881284809643702
27.97894254978256
27.97894254978256
27.97894254978256
27.97894254978256
27.881284809643702
27.881284809643702
27.002365148393988
26.22110322728313
26.318760967421987
26.318760967421987
26.318760967421987
25.342183566033416
24.560921644922562
24.756237125200276
24.756237125200276
24.756237125200276
22.803082322423133
21.338216220340275
21.63118944075685
19.678034637979707
18.11551079575799
18.506141756313422
16.45532921339742
14.990463111314565
12.45136186770428
10.205233844510566
10.693522545204852
9.619287403677424
8.935683222705425
9.033340962844282
7.080186160067139
5.615320057984283
5.908293278400855
5.908293278400855
5.908293278400855
6.787212939650568
7.568474860761425
7.373159380483711
9.326314183260854
10.79118028534371
12.45136186770428
13.916227969787137
13.623254749370565
16.55298695353628
18.799114976729992
18.21316853589685
21.24055848020142
23.389028763256274
25.830472266727703
28.076600289921416
27.588311589227132
29.63912413214313
31.00633249408713
30.71335927367056
33.64309147783627
35.889219501029984
36.27985046158541
37.15877012283513
36.96345464255741
38.91660944533455
40.38147554741741
39.99084458686198
40.08850232700084
39.99084458686198
39.99084458686198
39.99084458686198
39.99084458686198
39.014267185473415
38.23300526436255
38.42832074464027
37.4517433432517
36.67048142214084
34.91264209964141
33.3501182574197
33.74074921797513
31.68993667505913
30.22507057297627
30.518043793392845
28.564888990615703
27.100022888532845
26.416418707560844
25.63515678644999
25.830472266727703
20.947585259784848
17.236591134508277
18.11551079575799
9.326314183260854
2.68558785381857
-3.36919203479057
-9.71694514381628
-8.252079041733426
-14.306858930342566
-18.701457236591136
-17.724879835202564
-20.752269779507134
-22.998397802700847
-23.389028763256274
-24.267948424505988
-24.072632944228275
-21.24055848020142
-18.994430457007706
-19.48271915770199
-17.43190661478599
-15.967040512703136
-16.357671473258563
-16.260013733119706
-16.260013733119706
-18.11551079575799
-19.58037689784085
-19.287403677424276
-21.24055848020142
-22.705424582284277
-23.389028763256274
-24.17029068436713
-23.974975204089418
-24.95155260547799
-25.732814526588847
-25.537499046311133
-26.514076447699704
-27.1976806286717
-27.100022888532845
-27.100022888532845
-27.100022888532845
-27.100022888532845
-27.002365148393988
-27.002365148393988
-27.002365148393988
-27.002365148393988
-25.146868085755703
-23.58434424353399
-23.974975204089418
-21.92416266117342
-20.45929655909056
-20.752269779507134
-17.82253757534142
-15.674067292286564
-11.377126726176853
-7.470817120622568
-8.349736781872283
-4.345769436179141
-1.416037232013428
-2.0996414129854277
2.783245593957427
6.39658197909514
10.400549324788281
14.306858930342566
13.427939269092851
17.43190661478599
20.361638818951704
19.678034637979707
23.682001983672848
26.61173418783856
28.760204470893417
31.103990234225986
30.615701533531702
32.56885633630884
34.0337224383917
33.74074921797513
34.717326619363696
35.49858854047456
36.27985046158541
36.96345464255741
36.86579690241855
35.889219501029984
35.10795757991913
35.303273060196844
32.37354085603113
30.127412832837415
27.783627069504846
25.439841306172273
25.92813000686656
22.021820401312276
18.994430457007706
19.678034637979707
14.795147631036851
11.08415350576028
8.05676356145571
4.931715877012284
5.615320057984283
2.5879301136797133
0.43945983062485694
0.9277485313191425
-1.0254062714579995
-2.490272373540856
-4.052796215762569
-5.615320057984283
-5.322346837567712
-8.252079041733426
-10.400549324788281
-9.912260624093996
-12.939650568398566
-15.088120851453422
-18.40848401617456
-21.533531700617992
-20.84992751964599
-24.756237125200276
-27.68596932936599
-27.002365148393988
-30.029755092698558
-32.27588311589227
-34.61966887922484
-36.96345464255741
-36.37750820172427
-38.42832074464027
-39.893186846723125
-39.5025558861677
-41.45571068894484
-42.92057679102769
-42.62760357061112
-42.62760357061112
-42.62760357061112
-41.651026169222554
-40.86976424811169
-41.065079728389414
-40.08850232700084
-39.307240405889985
-38.525978484779124
-37.74471656366827
-37.84237430380713
-36.86579690241855
-36.0845349813077
-36.27985046158541
-35.303273060196844
-34.52201113908598
-32.764171816586554
-31.201647974364842
-31.592278934920273
-27.68596932936599
-24.65857938506142
-25.342183566033416
-19.48271915770199
-15.088120851453422
-7.470817120622568
-0.537117570763714
-2.0996414129854277
7.763790341039139
15.088120851453422
23.974975204089418
32.471198596169984
30.518043793392845
39.600213626306555
46.14328221560998
44.67841611352712
52.588693064774546
58.44815747310597
57.178606851300835
63.13572899977112
67.53032730601969
69.38582436865796
71.8272678721294
71.24132143129626
73.29213397421225
74.65934233615626
74.36636911573969
74.36636911573969
74.36636911573969
74.36636911573969
74.26871137560083
74.26871137560083
74.26871137560083
74.26871137560083
73.29213397421225
72.5108720531014
72.60852979324025
71.63195239185168
70.85069047074083
71.04600595101854
68.11627374685283
65.8701457236591
66.26077668421455
64.3076218814374
62.745098039215684
59.22941939421683
56.20202944991226
56.88563363088426
51.90508888380255
48.19409475852598
44.28778515297169
40.38147554741741
41.16273746852827
36.182192721446555
32.56885633630884
33.3501182574197
24.560921644922562
17.920195315480278
9.81460288395514
2.0996414129854277
3.7598229953459983
-6.005951018539712
-13.330281528953995
-11.767757686732281
-18.799114976729992
-23.87731746395056
-26.514076447699704
-29.736781872281988
-29.053177691309987
-31.103990234225986
-32.56885633630884
-32.178225375753414
-31.2993057145037
-30.518043793392845
-29.736781872281988
-28.95551995117113
-29.150835431448844
-30.029755092698558
-30.811017013809415
-30.615701533531702
-32.56885633630884
-34.0337224383917
-35.596246280613414
-37.15877012283513
-36.768139162279695
-37.74471656366827
-38.525978484779124
-38.33066300450141
-39.307240405889985
-39.99084458686198
-40.772106507972836
-41.5533684290837
-41.358052948805984
-40.479133287556266
-39.69787136644541
-39.893186846723125
-38.818951705195694
-38.1353475242237
-36.37750820172427
-34.81498435950255
-35.10795757991913
-32.178225375753414
-29.9320973525597
-30.420386053253985
-25.537499046311133
-21.826504921034562
-18.89677271686885
-15.674067292286564
-16.357671473258563
-10.498207064927138
-6.103608758678568
-7.080186160067139
-2.0996414129854277
1.513694972152285
4.541084916456855
7.666132600900283
6.982528419928283
10.888838025482567
13.81857022964828
13.232623788815136
15.283436331731137
16.748302433813993
17.334248874647134
18.11551079575799
17.920195315480278
18.017853055619135
18.017853055619135
18.017853055619135
16.064698252841993
14.599832150759136
12.939650568398566
11.377126726176853
11.767757686732281
9.81460288395514
8.252079041733426
8.642710002288853
5.71297779812314
3.466849774929427
1.1230640115968566
-1.1230640115968566
-0.6347753109025711
-2.68558785381857
-4.150453955901427
-3.7598229953459983
-6.6895551995117115
-8.935683222705425
-10.302891584649425
-11.963073167009995
-11.572442206454566
-13.525597009231708
-14.990463111314565
-14.697489890897993
-15.674067292286564
-16.45532921339742
-18.21316853589685
-19.678034637979707
-19.385061417563133
-20.361638818951704
-21.045242999923705
-20.947585259784848
-21.92416266117342
-22.60776684214542
-24.365606164644845
-25.92813000686656
-25.537499046311133
-27.49065384908827
-28.95551995117113
-28.66254673075456
-30.615701533531702
-32.08056763561456
-33.64309147783627
-35.20561532005799
-34.81498435950255
-36.768139162279695
-38.23300526436255
-37.94003204394598
-39.893186846723125
-41.358052948805984
-42.92057679102769
-44.48310063324941
-44.09246967269398
-46.04562447547112
-47.51049057755398
-47.21751735713741
-47.21751735713741
-47.21751735713741
-47.21751735713741
-47.21751735713741
-47.21751735713741
-45.26436255436027
-43.79949645227741
-44.09246967269398
-40.186160067139696
-37.15877012283513
-32.08056763561456
-27.49065384908827
-28.564888990615703
-21.63118944075685
-16.45532921339742
-17.627222095063708
-8.74036774242771
-2.0996414129854277
5.908293278400855
13.623254749370565
11.865415426871138
21.826504921034562
29.150835431448844
27.49065384908827
36.475165941863125
43.018234531166556
49.17067215991455
55.420767528801406
54.053559166857404
60.108339055466544
64.40527962157626
63.42870222018769
66.55374990463112
68.70222018768597
68.11627374685283
68.21393148699168
68.21393148699168
67.23735408560312
66.45609216449226
66.65140764476998
63.72167544060426
61.475547417410546
57.178606851300835
53.27229724574655
54.15121690699626
50.14724956130312
47.21751735713741
47.80346379797055
42.92057679102769
39.20958266575113
36.182192721446555
32.95948729686427
33.74074921797513
30.71335927367056
28.467231250476843
28.95551995117113
26.90470740825513
25.439841306172273
24.853894865339132
23.974975204089418
24.17029068436713
23.19371328297856
22.412451361867703
22.60776684214542
21.533531700617992
20.84992751964599
19.092088197146563
17.52956435492485
17.920195315480278
14.013885709925994
10.986495765621424
11.670099946593423
4.834058136873426
-0.24414435034714274
-8.642710002288853
-16.260013733119706
-14.599832150759136
-23.58434424353399
-30.127412832837415
-28.66254673075456
-33.74074921797513
-37.35408560311284
-36.57282368200198
-36.768139162279695
-36.67048142214084
-33.838406958113985
-31.592278934920273
-32.08056763561456
-26.22110322728313
-21.826504921034562
-17.041275654230564
-12.353704127565424
-13.427939269092851
-10.302891584649425
-8.05676356145571
-8.545052262149996
-8.44739452201114
-8.545052262149996
-6.591897459372854
-5.127031357289998
-5.420004577706569
-3.466849774929427
-2.0019836728465705
-2.2949568932631417
1.513694972152285
4.443427176317998
9.521629663538567
14.11154345006485
13.13496604867628
19.971007858396277
25.146868085755703
23.974975204089418
31.885252155336843
37.74471656366827
44.09246967269398
50.24490730144198
48.877698939497975
55.81139848935683
60.987258716716255
59.815365835049974
65.77248798352025
70.16708628976883
72.99916075379568
76.12420843823911
75.44060425726711
77.4914168001831
78.85862516212711
78.56565194171054
78.56565194171054
78.56565194171054
77.58907454032196
76.8078126192111
76.90547035934996
74.95231555657283
73.48744945448996
73.78042267490653
71.72961013199054
70.26474402990769
68.70222018768597
67.0420386053254
67.43266956588083
64.40527962157626
62.2568093385214
62.64744029907683
60.694285496299685
59.13176165407798
56.59266041046769
54.24887464713512
54.83482108796826
52.78400854505226
51.31914244296941
51.61211566338598
47.705806057831694
44.67841611352712
42.529945830472265
40.08850232700084
40.57679102769512
35.69390402075227
31.9829098954757
32.86182955672541
28.760204470893417
25.830472266727703
22.705424582284277
19.58037689784085
20.263981078812847
17.236591134508277
14.990463111314565
15.47875181200885
12.549019607843137
10.302891584649425
7.959105821316854
5.615320057984283
6.103608758678568
4.150453955901427
2.68558785381857
2.9785610742351416
0.04882887006942855
-2.0996414129854277
-5.420004577706569
-8.44739452201114
-7.763790341039139
-12.74433508812085
-16.357671473258563
-15.576409552147707
-21.43587396047913
-25.92813000686656
-29.63912413214313
-33.64309147783627
-32.6665140764477
-37.64705882352941
-41.358052948805984
-40.479133287556266
-45.45967803463798
-49.073014419775696
-51.123826962691695
-53.56527046616312
-52.97932402532997
-54.053559166857404
-54.7371633478294
-54.54184786755169
-53.66292820630198
-52.881666285191116
-51.123826962691695
-49.56130312046998
-49.85427634088655
-46.92454413672083
-44.67841611352712
-45.16670481422141
-41.26039520866713
-38.23300526436255
-35.10795757991913
-31.9829098954757
-32.6665140764477
-28.66254673075456
-25.732814526588847
-26.318760967421987
-22.412451361867703
-19.48271915770199
-17.236591134508277
-14.892805371175708
-15.381094071869994
-12.353704127565424
-10.205233844510566
-10.693522545204852
-8.642710002288853
-7.177843900205997
-5.615320057984283
-4.052796215762569
-4.345769436179141
-3.36919203479057
-2.5879301136797133
-2.783245593957427
-2.783245593957427
-2.783245593957427
-4.638742656595713
-6.103608758678568
-5.810635538261997
-7.763790341039139
-9.228656443121995
-8.935683222705425
-11.865415426871138
-14.11154345006485
-16.45532921339742
-18.799114976729992
-18.21316853589685
-21.24055848020142
-23.389028763256274
-22.90074006256199
-25.92813000686656
-28.076600289921416
-29.443808651865414
-31.103990234225986
-30.71335927367056
-33.64309147783627
-35.889219501029984
-35.303273060196844
-37.35408560311284
-38.818951705195694
-41.358052948805984
-43.604180971999696
-43.11589227130541
-45.069047074082555
-46.533913176165406
-46.240939955748836
-48.19409475852598
-49.658960860608836
-51.22148470283055
-52.6863508049134
-52.39337758449683
-54.346532387273975
-55.81139848935683
-55.420767528801406
-59.32707713435569
-62.2568093385214
-68.21393148699168
-73.58510719462882
-72.41321431296254
-77.39375906004425
-81.00709544518196
-80.2258335240711
-83.15556572823682
-85.40169375143053
-84.81574731059739
-84.91340505073624
-84.91340505073624
-81.98367284657053
-79.73754482337682
-80.2258335240711
-75.34294651712825
-71.63195239185168
-67.62798504615854
-63.72167544060426
-64.50293736171511
-61.475547417410546
-59.22941939421683
-59.71770809491112
-56.690318150606544
-54.54184786755169
-50.24490730144198
-46.33859769588769
-47.21751735713741
-40.28381780727855
-35.20561532005799
-36.27985046158541
-27.392996108949415
-20.752269779507134
-12.74433508812085
-4.931715877012284
-6.6895551995117115
2.197299153124285
8.838025482566568
7.373159380483711
16.260013733119706
22.803082322423133
28.076600289921416
33.545433737697415
32.37354085603113
37.35408560311284
40.96742198825055
40.186160067139696
42.236972610055695
43.70183871213855
44.28778515297169
45.069047074082555
44.873731593804834
45.947966735332265
46.63157091630426
46.43625543602655
46.43625543602655
46.43625543602655
45.45967803463798
44.67841611352712
44.873731593804834
43.89715419241627
43.11589227130541
43.311207751583126
42.236972610055695
41.5533684290837
39.79552910658427
38.23300526436255
38.525978484779124
36.57282368200198
35.10795757991913
35.4009308003357
33.3501182574197
31.885252155336843
30.322728313115128
28.760204470893417
29.053177691309987
26.123445487144274
23.87731746395056
24.365606164644845
21.43587396047913
19.18974593728542
16.84596017395285
14.50217441062028
14.990463111314565
11.08415350576028
8.154421301594567
8.74036774242771
5.71297779812314
3.5645075150682843
0.24414435034714274
-2.783245593957427
-2.0996414129854277
-5.127031357289998
-7.275501640344854
-6.787212939650568
-9.71694514381628
-11.963073167009995
-14.306858930342566
-16.650644693675137
-16.16235599298085
-19.092088197146563
-21.338216220340275
-20.84992751964599
-22.803082322423133
-24.267948424505988
-25.830472266727703
-27.392996108949415
-27.002365148393988
-28.076600289921416
-28.760204470893417
-28.66254673075456
-29.63912413214313
-30.322728313115128
-29.150835431448844
-28.467231250476843
-28.66254673075456
-25.732814526588847
-23.48668650339513
-23.974975204089418
-20.068665598535134
-17.13893339436942
-12.939650568398566
-9.130998702983138
-9.912260624093996
-4.052796215762569
0.24414435034714274
-0.6347753109025711
5.224689097428855
9.619287403677424
14.404516670481422
19.092088197146563
18.017853055619135
22.021820401312276
24.95155260547799
24.365606164644845
28.27191577019913
31.201647974364842
33.44777599755856
35.79156176089113
35.20561532005799
37.256427862973986
38.72129396505684
38.33066300450141
40.28381780727855
41.74868390936141
43.311207751583126
44.873731593804834
44.580758373388264
45.55733577477684
46.240939955748836
46.04562447547112
46.14328221560998
46.04562447547112
44.19012741283284
42.62760357061112
43.018234531166556
39.99084458686198
37.84237430380713
38.33066300450141
33.3501182574197
29.736781872281988
25.732814526588847
21.826504921034562
22.705424582284277
16.748302433813993
12.353704127565424
13.330281528953995
7.373159380483711
2.9785610742351416
-1.7090104524299992
-6.39658197909514
-5.322346837567712
-10.302891584649425
-14.013885709925994
-13.13496604867628
-17.13893339436942
-20.068665598535134
-22.314793621728846
-24.65857938506142
-24.17029068436713
-26.123445487144274
-27.588311589227132
-27.295338368810558
-29.2484931715877
-30.71335927367056
-32.27588311589227
-33.838406958113985
-33.44777599755856
-34.52201113908598
-35.20561532005799
-35.010299839780274
-35.98687724116884
-36.768139162279695
-37.549401083390556
-38.23300526436255
-38.1353475242237
-39.11192492561227
-39.79552910658427
-39.600213626306555
-43.40886549172198
-46.43625543602655
-51.416800183108265
-56.006713969634546
-55.03013656824598
-60.01068131532769
-63.6240177004654
-62.84275577935454
-63.91699092088197
-64.60059510185397
-60.59662775616083
-57.66689555199512
-58.25284199282826
-51.416800183108265
-46.240939955748836
-47.412832837415124
-37.549401083390556
-30.22507057297627
-22.314793621728846
-14.50217441062028
-16.16235599298085
-10.10757610437171
-5.71297779812314
-6.6895551995117115
-2.68558785381857
0.14648661020828566
1.416037232013428
3.076218814373999
2.68558785381857
4.736400396734569
6.201266498817426
5.810635538261997
6.884870679789426
7.568474860761425
8.349736781872283
9.130998702983138
8.935683222705425
10.009918364232853
10.693522545204852
10.498207064927138
11.47478446631571
12.256046387426567
12.060730907148852
12.158388647287708
12.060730907148852
12.060730907148852
12.060730907148852
12.060730907148852
11.181811245899137
10.400549324788281
8.642710002288853
7.080186160067139
7.470817120622568
4.541084916456855
2.2949568932631417
2.783245593957427
-0.04882887006942855
-2.2949568932631417
-4.638742656595713
-6.982528419928283
-6.494239719233997
-9.42397192339971
-11.670099946593423
-11.181811245899137
-13.13496604867628
-14.599832150759136
-17.13893339436942
-19.48271915770199
-18.89677271686885
-19.971007858396277
-20.752269779507134
-20.55695429922942
-21.533531700617992
-22.21713588158999
-22.119478141451133
-22.119478141451133
-22.119478141451133
-22.119478141451133
-22.119478141451133
-22.119478141451133
-22.119478141451133
-22.119478141451133
-22.021820401312276
-22.021820401312276
-22.021820401312276
-22.021820401312276
-22.021820401312276
-22.021820401312276
-22.998397802700847
-23.682001983672848
-23.58434424353399
-23.58434424353399
-23.58434424353399
-24.4632639047837
-25.24452582589456
-25.049210345616846
-25.049210345616846
-25.049210345616846
-24.072632944228275
-23.389028763256274
-23.48668650339513
-22.510109102006563
-21.826504921034562
-21.92416266117342
-19.971007858396277
-18.506141756313422
-14.990463111314565
-11.963073167009995
-12.646677347981994
-8.642710002288853
-5.71297779812314
-6.39658197909514
-1.416037232013428
2.0996414129854277
7.959105821316854
13.330281528953995
12.158388647287708
18.11551079575799
22.510109102006563
21.533531700617992
28.467231250476843
33.64309147783627
39.11192492561227
44.580758373388264
43.311207751583126
49.365987640192266
53.66292820630198
52.6863508049134
57.66689555199512
61.37788967727169
64.3076218814374
67.43266956588083
66.74906538490883
69.77645532921339
71.92492561226825
71.43663691157397
73.3897917143511
74.85465781643397
74.46402685587854
74.5616845960174
74.46402685587854
74.46402685587854
74.46402685587854
74.46402685587854
72.5108720531014
70.94834821087969
69.38582436865796
67.82330052643626
68.11627374685283
65.18654154268711
62.9404135194934
63.42870222018769
60.401312275883114
58.1551842526894
55.81139848935683
53.467612726024264
53.95590142671855
50.928511482413974
48.68238345922026
49.17067215991455
46.240939955748836
43.99481193255512
42.529945830472265
40.96742198825055
41.26039520866713
39.307240405889985
37.84237430380713
38.1353475242237
37.06111238269627
36.37750820172427
34.61966887922484
33.05714503700313
33.3501182574197
31.396963454642556
29.9320973525597
30.22507057297627
27.295338368810558
25.049210345616846
22.705424582284277
20.361638818951704
20.84992751964599
17.82253757534142
15.674067292286564
16.16235599298085
14.11154345006485
12.646677347981994
11.08415350576028
9.521629663538567
9.81460288395514
7.861448081177996
6.39658197909514
6.6895551995117115
5.71297779812314
4.931715877012284
3.1738765545128556
1.7090104524299992
2.0019836728465705
0.04882887006942855
-1.3183794918745708
-1.0254062714579995
-4.931715877012284
-7.861448081177996
-12.939650568398566
-17.52956435492485
-16.45532921339742
-22.412451361867703
-26.807049668116274
-25.830472266727703
