ppg
-28.27191577019913
-28.564888990615703
-25.63515678644999
-23.389028763256274
-23.87731746395056
-19.971007858396277
-17.041275654230564
-12.84199282825971
-9.033340962844282
-9.912260624093996
-4.931715877012284
-1.2207217517357138
-2.0996414129854277
3.7598229953459983
8.154421301594567
12.939650568398566
17.627222095063708
16.55298695353628
21.533531700617992
25.24452582589456
24.365606164644845
28.369573510337986
31.2993057145037
33.44777599755856
35.889219501029984
35.303273060196844
37.35408560311284
38.818951705195694
38.42832074464027
39.5025558861677
40.186160067139696
39.014267185473415
38.33066300450141
38.42832074464027
37.4517433432517
36.768139162279695
36.86579690241855
34.91264209964141
33.44777599755856
31.787594415197987
30.22507057297627
30.615701533531702
28.564888990615703
27.100022888532845
27.49065384908827
25.439841306172273
23.974975204089418
22.412451361867703
20.84992751964599
21.14290074006256
20.16632333867399
19.385061417563133
19.58037689784085
18.506141756313422
17.82253757534142
18.017853055619135
17.920195315480278
17.920195315480278
15.967040512703136
14.50217441062028
14.892805371175708
12.84199282825971
11.377126726176853
9.81460288395514
8.252079041733426
8.545052262149996
5.615320057984283
3.466849774929427
3.9551384756237127
1.9043259327077133
0.43945983062485694
-2.0019836728465705
-4.345769436179141
-3.7598229953459983
-5.810635538261997
-7.275501640344854
-6.982528419928283
-8.935683222705425
-10.400549324788281
-11.963073167009995
-13.525597009231708
-13.13496604867628
-15.185778591592278
-16.650644693675137
-16.260013733119706
-18.310826276035705
-19.678034637979707
-21.338216220340275
-22.90074006256199
-22.510109102006563
-24.4632639047837
-25.92813000686656
-25.63515678644999
-26.61173418783856
-27.295338368810558
-28.174258030060273
-28.857862211032273
-28.760204470893417
-26.807049668116274
-25.342183566033416
-25.63515678644999
-23.682001983672848
-22.21713588158999
-17.724879835202564
-13.916227969787137
-14.795147631036851
-8.838025482566568
-4.443427176317998
-5.420004577706569
0.43945983062485694
4.834058136873426
10.498207064927138
15.967040512703136
14.697489890897993
20.752269779507134
25.146868085755703
24.17029068436713
29.150835431448844
32.764171816586554
35.79156176089113
38.91660944533455
38.23300526436255
42.13931486991684
45.069047074082555
44.38544289311055
46.43625543602655
47.90112153810941
48.48706797894255
49.26832990005341
49.073014419775696
48.19409475852598
47.412832837415124
47.60814831769284
43.70183871213855
40.67444876783398
32.764171816586554
25.92813000686656
27.49065384908827
18.506141756313422
11.865415426871138
13.330281528953995
7.275501640344854
2.8809033340962844
1.0254062714579995
-1.3183794918745708
-0.8300907911802854
-1.9043259327077133
-2.5879301136797133
-2.392614633401999
-0.537117570763714
0.8300907911802854
2.392614633401999
3.9551384756237127
3.662165255207141
2.783245593957427
2.0019836728465705
2.197299153124285
-1.6113527122911422
-4.541084916456855
-6.787212939650568
-9.130998702983138
-8.545052262149996
-10.595864805065995
-12.060730907148852
-11.767757686732281
-12.74433508812085
-13.525597009231708
-15.185778591592278
-16.748302433813993
-16.357671473258563
-17.43190661478599
-18.11551079575799
-18.017853055619135
-19.971007858396277
-21.43587396047913
-22.998397802700847
-24.560921644922562
-24.17029068436713
-27.100022888532845
-29.346150911726557
-28.760204470893417
-30.811017013809415
-32.27588311589227
-34.81498435950255
-37.06111238269627
-36.57282368200198
-37.64705882352941
-38.33066300450141
-38.1353475242237
-39.11192492561227
-39.893186846723125
-38.72129396505684
-38.03768978408484
-38.1353475242237
-36.182192721446555
-34.717326619363696
-35.010299839780274
-32.08056763561456
-29.834439612420844
-26.514076447699704
-23.389028763256274
-24.072632944228275
-21.045242999923705
-18.89677271686885
-19.385061417563133
-15.381094071869994
-12.45136186770428
-10.302891584649425
-7.861448081177996
-8.44739452201114
-5.420004577706569
-3.1738765545128556
-3.662165255207141
-0.7324330510414282
1.416037232013428
2.783245593957427
4.345769436179141
4.052796215762569
5.0293736171511405
5.810635538261997
5.615320057984283
6.591897459372854
7.373159380483711
6.201266498817426
5.517662317845426
5.71297779812314
5.615320057984283
5.615320057984283
5.615320057984283
4.638742656595713
3.9551384756237127
2.197299153124285
0.6347753109025711
1.0254062714579995
0.04882887006942855
-0.6347753109025711
-0.537117570763714
-0.537117570763714
-0.537117570763714
-0.537117570763714
-0.537117570763714
-0.537117570763714
-0.537117570763714
-0.537117570763714
-0.537117570763714
0.34180209048599985
1.1230640115968566
0.9277485313191425
0.9277485313191425
0.9277485313191425
0.9277485313191425
0.9277485313191425
0.9277485313191425
0.04882887006942855
-0.6347753109025711
-2.392614633401999
-3.9551384756237127
-3.5645075150682843
-6.494239719233997
-8.74036774242771
-8.252079041733426
-10.205233844510566
-11.670099946593423
-13.330281528953995
-14.795147631036851
-14.50217441062028
-16.45532921339742
-17.920195315480278
-17.627222095063708
-19.58037689784085
-21.045242999923705
-21.63118944075685
-22.510109102006563
-22.314793621728846
-23.291371023117417
-23.974975204089418
-23.87731746395056
-24.853894865339132
-25.537499046311133
-26.318760967421987
-27.100022888532845
-26.90470740825513
-26.90470740825513
-26.90470740825513
-26.90470740825513
-26.90470740825513
-26.90470740825513
-25.92813000686656
-25.146868085755703
-25.342183566033416
-22.412451361867703
-20.16632333867399
-20.654612039368278
-16.748302433813993
-13.81857022964828
-9.71694514381628
-5.810635538261997
-6.6895551995117115
-2.68558785381857
0.14648661020828566
-0.34180209048599985
2.490272373540856
4.736400396734569
7.080186160067139
9.42397192339971
8.935683222705425
11.865415426871138
14.11154345006485
13.623254749370565
16.55298695353628
18.799114976729992
22.119478141451133
25.146868085755703
24.4632639047837
27.49065384908827
29.63912413214313
29.150835431448844
32.08056763561456
34.32669565880827
35.69390402075227
37.256427862973986
36.96345464255741
38.91660944533455
40.38147554741741
39.99084458686198
40.08850232700084
40.08850232700084
39.11192492561227
38.33066300450141
38.525978484779124
37.4517433432517
36.768139162279695
36.86579690241855
33.93606469825284
31.787594415197987
27.49065384908827
23.58434424353399
24.4632639047837
18.506141756313422
14.11154345006485
15.088120851453422
12.939650568398566
11.572442206454566
11.865415426871138
11.767757686732281
11.767757686732281
14.599832150759136
16.84596017395285
16.357671473258563
20.263981078812847
23.19371328297856
26.416418707560844
29.443808651865414
28.760204470893417
29.9320973525597
30.615701533531702
30.420386053253985
28.564888990615703
27.002365148393988
26.416418707560844
25.537499046311133
25.732814526588847
24.756237125200276
23.974975204089418
24.17029068436713
24.072632944228275
24.17029068436713
23.19371328297856
22.412451361867703
22.60776684214542
22.510109102006563
22.510109102006563
22.510109102006563
21.533531700617992
20.84992751964599
19.971007858396277
19.18974593728542
19.385061417563133
19.385061417563133
19.385061417563133
19.385061417563133
19.287403677424276
19.287403677424276
21.24055848020142
22.705424582284277
22.412451361867703
24.365606164644845
25.830472266727703
25.439841306172273
28.369573510337986
30.615701533531702
33.93606469825284
36.96345464255741
36.27985046158541
39.307240405889985
41.45571068894484
40.96742198825055
43.89715419241627
46.14328221560998
47.51049057755398
49.073014419775696
48.78004119935912
50.73319600213626
52.19806210421912
51.80743114366369
53.760585946440834
55.22545204852369
55.81139848935683
56.690318150606544
56.49500267032883
56.49500267032883
56.49500267032883
56.39734493018997
55.420767528801406
54.7371633478294
53.85824368657969
53.07698176546884
53.27229724574655
51.31914244296941
49.75661860074769
50.14724956130312
47.11985961699855
44.97138933394369
43.50652323186084
41.84634164950027
42.236972610055695
39.307240405889985
37.06111238269627
37.549401083390556
35.49858854047456
34.0337224383917
30.518043793392845
27.49065384908827
28.174258030060273
25.146868085755703
22.90074006256199
23.389028763256274
19.48271915770199
16.55298695353628
13.330281528953995
10.205233844510566
10.888838025482567
6.982528419928283
3.9551384756237127
4.638742656595713
0.6347753109025711
-2.197299153124285
-6.298924238956283
-10.10757610437171
-9.228656443121995
-13.232623788815136
-16.16235599298085
-15.576409552147707
-19.48271915770199
-22.412451361867703
-24.65857938506142
-27.002365148393988
-26.514076447699704
-30.420386053253985
-33.3501182574197
-32.6665140764477
-35.69390402075227
-37.84237430380713
-41.16273746852827
-44.19012741283284
-43.50652323186084
-46.533913176165406
-48.68238345922026
-48.19409475852598
-50.24490730144198
-51.709773403524835
-52.295719844357976
-53.07698176546884
-52.881666285191116
-52.881666285191116
-52.881666285191116
-52.881666285191116
-50.928511482413974
-49.46364538033112
-46.92454413672083
-44.580758373388264
-45.069047074082555
-41.16273746852827
-38.1353475242237
-38.818951705195694
-34.81498435950255
-31.885252155336843
-27.783627069504846
-23.87731746395056
-24.756237125200276
-19.775692378118563
-16.064698252841993
-16.943617914091707
-10.986495765621424
-6.591897459372854
-2.783245593957427
1.0254062714579995
0.14648661020828566
4.248111696040284
7.177843900205997
6.494239719233997
9.521629663538567
11.670099946593423
13.13496604867628
14.697489890897993
14.306858930342566
15.381094071869994
16.064698252841993
15.869382772564279
15.967040512703136
15.967040512703136
15.967040512703136
15.967040512703136
15.869382772564279
14.013885709925994
12.549019607843137
12.84199282825971
10.888838025482567
9.42397192339971
6.884870679789426
4.541084916456855
5.0293736171511405
2.0996414129854277
-0.04882887006942855
0.34180209048599985
-3.466849774929427
-6.39658197909514
-8.642710002288853
-10.986495765621424
-10.498207064927138
-14.404516670481422
-17.334248874647134
-16.650644693675137
-24.4632639047837
-30.322728313115128
-38.62363622491798
-46.33859769588769
-44.580758373388264
-54.44419012741283
-61.768520637827116
-60.108339055466544
-67.13969634546426
-72.31555657282368
-73.97573815518425
-76.41718165865568
-75.83123521782254
-75.04997329671168
-74.17105363546197
-74.36636911573969
-70.4600595101854
-67.53032730601969
-64.3076218814374
-61.182574196993976
-61.86617837796597
-60.694285496299685
-60.01068131532769
-60.108339055466544
-60.987258716716255
-61.768520637827116
-62.54978255893797
-63.33104448004883
-63.13572899977112
-64.11230640115969
-64.79591058213168
-64.60059510185397
-65.57717250324254
-66.26077668421455
-65.18654154268711
-64.40527962157626
-64.60059510185397
-62.54978255893797
-61.08491645685512
-61.37788967727169
-58.44815747310597
-56.20202944991226
-51.90508888380255
-48.09643701838712
-48.877698939497975
-43.018234531166556
-38.525978484779124
-39.5025558861677
-32.56885633630884
-27.49065384908827
-22.90074006256199
-18.11551079575799
-19.18974593728542
-12.256046387426567
-7.080186160067139
-8.252079041733426
-1.3183794918745708
3.7598229953459983
9.228656443121995
14.697489890897993
13.525597009231708
20.45929655909056
25.537499046311133
24.4632639047837
30.420386053253985
34.81498435950255
38.62363622491798
42.529945830472265
41.651026169222554
44.67841611352712
46.826886396581976
46.33859769588769
48.291752498664835
49.75661860074769
50.44022278171969
51.22148470283055
51.02616922255284
50.04959182116426
49.26832990005341
49.46364538033112
49.365987640192266
49.365987640192266
48.38941023880369
47.705806057831694
47.80346379797055
45.85030899519341
44.38544289311055
44.67841611352712
43.604180971999696
42.92057679102769
41.16273746852827
39.600213626306555
39.893186846723125
37.94003204394598
36.475165941863125
36.768139162279695
34.717326619363696
33.252460517280845
30.71335927367056
28.467231250476843
28.95551995117113
25.92813000686656
23.682001983672848
24.17029068436713
21.24055848020142
18.994430457007706
15.674067292286564
12.646677347981994
13.330281528953995
10.302891584649425
8.05676356145571
8.545052262149996
5.615320057984283
3.36919203479057
1.9043259327077133
0.34180209048599985
0.7324330510414282
-0.24414435034714274
-0.9277485313191425
-0.8300907911802854
-1.8066681925688564
-2.490272373540856
-3.2715342946517127
-4.052796215762569
-3.9551384756237127
-4.931715877012284
-5.615320057984283
-5.517662317845426
-6.494239719233997
-7.177843900205997
-7.959105821316854
-8.74036774242771
-8.545052262149996
-8.642710002288853
-8.642710002288853
-8.642710002288853
-5.71297779812314
-3.466849774929427
-0.14648661020828566
2.783245593957427
2.0996414129854277
8.935683222705425
14.11154345006485
12.939650568398566
21.826504921034562
28.467231250476843
35.49858854047456
42.529945830472265
40.96742198825055
48.97535667963683
54.7371633478294
53.467612726024264
59.42473487449455
63.819333180743115
67.62798504615854
71.53429465171283
70.65537499046312
72.70618753337911
74.17105363546197
73.78042267490653
73.78042267490653
73.78042267490653
72.80384527351796
72.02258335240711
72.21789883268482
69.28816662851911
67.0420386053254
67.53032730601969
63.526359960326545
60.59662775616083
57.37392233157855
54.24887464713512
54.932478828107115
50.928511482413974
47.998779278248264
48.68238345922026
44.67841611352712
41.74868390936141
38.525978484779124
35.4009308003357
36.0845349813077
33.05714503700313
30.811017013809415
31.2993057145037
27.392996108949415
24.4632639047837
22.21713588158999
19.87335011825742
20.361638818951704
16.45532921339742
13.427939269092851
14.11154345006485
11.08415350576028
8.935683222705425
6.494239719233997
4.150453955901427
4.736400396734569
0.7324330510414282
-2.0996414129854277
-1.416037232013428
-6.298924238956283
-10.009918364232853
-16.84596017395285
-22.998397802700847
-21.63118944075685
-28.564888990615703
-33.64309147783627
-32.56885633630884
-36.57282368200198
-39.5025558861677
-39.79552910658427
-40.67444876783398
-40.479133287556266
-39.5025558861677
-38.818951705195694
-38.91660944533455
-35.10795757991913
-32.08056763561456
-29.834439612420844
-27.49065384908827
-27.97894254978256
-25.92813000686656
-24.4632639047837
-24.853894865339132
-24.756237125200276
-24.756237125200276
-23.779659723811704
-22.998397802700847
-23.19371328297856
-20.263981078812847
-18.017853055619135
-18.506141756313422
-14.599832150759136
-11.670099946593423
-6.591897459372854
-2.0019836728465705
-2.9785610742351416
3.8574807354848555
8.935683222705425
7.861448081177996
14.795147631036851
19.87335011825742
25.439841306172273
30.908674753948272
29.63912413214313
35.596246280613414
39.99084458686198
39.014267185473415
43.99481193255512
47.60814831769284
50.635538261997404
53.760585946440834
53.07698176546884
54.15121690699626
54.83482108796826
54.639505607690545
53.760585946440834
52.97932402532997
51.22148470283055
49.658960860608836
49.951934081025406
47.0222018768597
44.77607385366598
45.26436255436027
42.33463035019455
40.08850232700084
37.74471656366827
35.303273060196844
35.889219501029984
32.86182955672541
30.615701533531702
31.103990234225986
28.174258030060273
25.92813000686656
23.58434424353399
21.24055848020142
21.728847180895706
19.678034637979707
18.21316853589685
18.506141756313422
15.576409552147707
13.427939269092851
11.963073167009995
10.400549324788281
10.693522545204852
8.74036774242771
7.275501640344854
7.568474860761425
5.615320057984283
4.150453955901427
2.5879301136797133
1.0254062714579995
1.3183794918745708
-0.537117570763714
-2.0019836728465705
-1.7090104524299992
-4.638742656595713
-6.884870679789426
-8.252079041733426
-9.81460288395514
-9.521629663538567
-11.47478446631571
-12.939650568398566
-12.646677347981994
-14.599832150759136
-16.064698252841993
-17.627222095063708
-19.18974593728542
-18.799114976729992
-19.87335011825742
-20.55695429922942
-20.45929655909056
-21.43587396047913
-22.119478141451133
-21.92416266117342
-22.021820401312276
-21.92416266117342
-21.045242999923705
-20.263981078812847
-20.45929655909056
-18.506141756313422
-16.943617914091707
-13.525597009231708
-10.400549324788281
-11.08415350576028
-6.201266498817426
-2.490272373540856
-3.36919203479057
2.490272373540856
6.884870679789426
10.693522545204852
14.599832150759136
13.720912489509422
19.678034637979707
24.072632944228275
23.096055542839704
27.100022888532845
30.029755092698558
32.27588311589227
34.61966887922484
34.0337224383917
35.10795757991913
35.79156176089113
35.69390402075227
37.549401083390556
39.014267185473415
39.69787136644541
40.479133287556266
40.28381780727855
41.26039520866713
41.943999389639124
41.84634164950027
41.84634164950027
41.84634164950027
41.74868390936141
41.74868390936141
41.74868390936141
40.772106507972836
40.08850232700084
40.186160067139696
37.256427862973986
35.010299839780274
31.68993667505913
28.66254673075456
29.2484931715877
24.365606164644845
20.654612039368278
21.533531700617992
17.43190661478599
14.50217441062028
11.377126726176853
8.252079041733426
8.935683222705425
5.908293278400855
3.7598229953459983
4.248111696040284
1.2207217517357138
-0.8300907911802854
-4.150453955901427
-7.275501640344854
-6.591897459372854
-11.47478446631571
-15.185778591592278
-14.404516670481422
-19.287403677424276
-22.998397802700847
-27.881284809643702
-32.471198596169984
-31.494621194781413
-37.4517433432517
-41.84634164950027
-40.86976424811169
-44.873731593804834
-47.705806057831694
-51.90508888380255
-55.713740749217976
-54.83482108796826
-57.86221103227283
-60.01068131532769
-59.522392614633404
-65.38185702296482
-69.77645532921339
-76.41718165865568
-82.56961928740368
-81.10475318532082
-88.13611047531853
-93.2143129625391
-92.04242008087282
-95.06981002517739
-97.21828030823224
-95.75341420614939
-95.16746776531625
-95.2651255054551
-91.35881589990082
-88.33142595559625
-89.01503013656824
-81.20241092545967
-75.2452887769894
-66.94438086518655
-59.22941939421683
-60.987258716716255
-53.85824368657969
-48.68238345922026
-49.85427634088655
-45.75265125505455
-42.822919050888835
-37.74471656366827
-33.15480277714199
-34.131380178530556
-27.1976806286717
-22.021820401312276
-23.19371328297856
-17.236591134508277
-12.84199282825971
-8.05676356145571
-3.36919203479057
-4.443427176317998
-0.34180209048599985
2.490272373540856
1.8066681925688564
3.8574807354848555
5.322346837567712
5.908293278400855
6.787212939650568
6.591897459372854
6.591897459372854
6.591897459372854
6.591897459372854
4.736400396734569
3.1738765545128556
1.6113527122911422
0.04882887006942855
0.43945983062485694
-2.392614633401999
-4.638742656595713
-4.150453955901427
-8.05676356145571
-10.986495765621424
-13.232623788815136
-15.576409552147707
-15.088120851453422
-18.994430457007706
-21.92416266117342
-21.24055848020142
-24.267948424505988
-26.416418707560844
-29.834439612420844
-32.86182955672541
-32.178225375753414
-36.0845349813077
-39.014267185473415
-38.42832074464027
-41.358052948805984
-43.604180971999696
-45.947966735332265
-48.291752498664835
-47.705806057831694
-50.635538261997404
-52.881666285191116
-52.39337758449683
-55.32310978866255
-57.471580071717405
-59.815365835049974
-62.15915159838254
-61.67086289768826
-64.60059510185397
-66.74906538490883
-66.26077668421455
-69.19050888838025
-71.43663691157397
-72.80384527351796
-74.36636911573969
-73.97573815518425
-75.9288929579614
-77.39375906004425
-77.00312809948882
-77.10078583962768
-77.10078583962768
-77.00312809948882
-77.00312809948882
-77.00312809948882
-76.02655069810025
-75.2452887769894
-75.34294651712825
-74.36636911573969
-73.58510719462882
-72.80384527351796
-72.02258335240711
-72.12024109254597
-70.16708628976883
-68.70222018768597
-68.99519340810254
-66.06546120393683
-63.819333180743115
-60.401312275883114
-57.37392233157855
-58.057526512550545
-53.07698176546884
-49.365987640192266
-50.14724956130312
-42.33463035019455
-36.37750820172427
-29.150835431448844
-22.119478141451133
-23.682001983672848
-13.81857022964828
-6.39658197909514
-8.05676356145571
1.7090104524299992
9.130998702983138
17.041275654230564
24.756237125200276
23.096055542839704
31.103990234225986
36.86579690241855
35.596246280613414
41.5533684290837
45.947966735332265
48.78004119935912
52.002746623941405
51.22148470283055
53.27229724574655
54.7371633478294
54.44419012741283
54.44419012741283
54.44419012741283
53.467612726024264
52.6863508049134
52.881666285191116
49.951934081025406
47.705806057831694
48.19409475852598
45.16670481422141
42.92057679102769
40.57679102769512
38.23300526436255
38.72129396505684
34.81498435950255
31.787594415197987
32.471198596169984
28.467231250476843
25.537499046311133
22.412451361867703
19.287403677424276
19.971007858396277
15.967040512703136
13.037308308537423
13.623254749370565
9.71694514381628
6.787212939650568
4.541084916456855
2.197299153124285
2.68558785381857
-1.1230640115968566
-4.052796215762569
-3.466849774929427
-6.39658197909514
-8.642710002288853
-10.986495765621424
-13.330281528953995
-12.84199282825971
-15.771725032425422
-18.017853055619135
-17.52956435492485
-20.45929655909056
-22.60776684214542
-24.072632944228275
-25.63515678644999
-25.24452582589456
-27.295338368810558
-28.760204470893417
-28.369573510337986
-29.443808651865414
-30.127412832837415
-29.9320973525597
-30.029755092698558
-29.9320973525597
-30.908674753948272
-31.68993667505913
-31.494621194781413
-33.44777599755856
-34.91264209964141
-39.307240405889985
-43.11589227130541
-42.236972610055695
-44.28778515297169
-45.75265125505455
-45.362020294499125
-44.48310063324941
-43.70183871213855
-39.11192492561227
-35.4009308003357
-36.182192721446555
-26.416418707560844
-18.994430457007706
-20.654612039368278
-7.861448081177996
1.6113527122911422
11.865415426871138
22.021820401312276
19.775692378118563
28.857862211032273
35.4009308003357
33.93606469825284
39.014267185473415
42.62760357061112
44.67841611352712
47.0222018768597
46.533913176165406
47.60814831769284
48.291752498664835
48.09643701838712
47.11985961699855
46.43625543602655
43.70183871213855
41.45571068894484
41.943999389639124
37.94003204394598
35.010299839780274
35.596246280613414
30.71335927367056
27.002365148393988
22.119478141451133
17.43190661478599
18.506141756313422
13.427939269092851
9.81460288395514
10.595864805065995
6.591897459372854
3.662165255207141
0.537117570763714
-2.490272373540856
-1.8066681925688564
-4.834058136873426
-6.982528419928283
-6.494239719233997
-9.521629663538567
-11.670099946593423
-12.158388647287708
-13.037308308537423
-12.84199282825971
-14.795147631036851
-16.260013733119706
-15.869382772564279
-15.967040512703136
-15.967040512703136
-15.967040512703136
-15.967040512703136
-15.967040512703136
-15.967040512703136
-15.967040512703136
-15.967040512703136
-14.990463111314565
-14.209201190203707
-14.404516670481422
-14.306858930342566
-14.306858930342566
-13.330281528953995
-12.646677347981994
-12.74433508812085
-10.888838025482567
-9.326314183260854
-8.74036774242771
-7.959105821316854
-8.05676356145571
-7.080186160067139
-6.39658197909514
-6.494239719233997
-6.494239719233997
-6.494239719233997
-6.494239719233997
-6.494239719233997
-6.494239719233997
-6.494239719233997
-6.494239719233997
-6.494239719233997
-5.517662317845426
-4.736400396734569
-2.9785610742351416
-1.513694972152285
-1.8066681925688564
2.0019836728465705
4.931715877012284
4.248111696040284
10.10757610437171
14.50217441062028
22.119478141451133
29.053177691309987
27.49065384908827
37.35408560311284
44.67841611352712
43.11589227130541
52.97932402532997
60.30365453574426
67.23735408560312
74.26871137560083
72.70618753337911
79.63988708323797
84.81574731059739
83.6438544289311
88.62439917601282
92.23773556115053
93.31197070267795
94.97215228503853
94.5815213244831
93.60494392309452
92.82368200198367
93.01899748226138
91.06584267948425
89.50331883726253
85.0110627908751
81.20241092545967
82.0813305867094
76.12420843823911
71.63195239185168
72.60852979324025
65.6748302433814
60.49897001602197
55.90905622949569
51.22148470283055
52.19806210421912
46.240939955748836
41.84634164950027
42.822919050888835
36.86579690241855
32.37354085603113
29.541466392004274
26.416418707560844
27.100022888532845
24.072632944228275
21.826504921034562
22.314793621728846
18.40848401617456
15.47875181200885
12.256046387426567
9.130998702983138
9.81460288395514
6.787212939650568
4.638742656595713
5.127031357289998
1.2207217517357138
-1.7090104524299992
-4.834058136873426
-7.959105821316854
-7.275501640344854
-10.302891584649425
-12.45136186770428
-11.963073167009995
-14.892805371175708
-17.13893339436942
-18.506141756313422
-20.16632333867399
-19.775692378118563
-20.84992751964599
-21.533531700617992
-21.338216220340275
-21.338216220340275
-21.338216220340275
-21.338216220340275
-21.338216220340275
-21.338216220340275
-21.338216220340275
-21.338216220340275
-21.338216220340275
-20.361638818951704
-19.58037689784085
-19.775692378118563
-19.775692378118563
-19.775692378118563
-18.799114976729992
-18.017853055619135
-16.260013733119706
-14.795147631036851
-15.088120851453422
-12.158388647287708
-9.912260624093996
-10.400549324788281
-6.494239719233997
-3.5645075150682843
-4.150453955901427
-1.2207217517357138
0.9277485313191425
-0.43945983062485694
-1.0254062714579995
-0.9277485313191425
-0.9277485313191425
-0.9277485313191425
0.8300907911802854
2.392614633401999
2.0019836728465705
6.884870679789426
10.595864805065995
9.71694514381628
15.674067292286564
20.068665598535134
19.092088197146563
26.90470740825513
32.764171816586554
38.1353475242237
43.604180971999696
42.43228809033341
45.55733577477684
47.705806057831694
47.21751735713741
45.362020294499125
43.89715419241627
42.236972610055695
40.67444876783398
41.065079728389414
38.03768978408484
35.889219501029984
36.27985046158541
34.32669565880827
32.86182955672541
31.201647974364842
29.63912413214313
30.029755092698558
27.97894254978256
26.514076447699704
24.95155260547799
23.389028763256274
23.682001983672848
22.705424582284277
21.92416266117342
22.119478141451133
20.16632333867399
18.701457236591136
17.041275654230564
15.47875181200885
15.869382772564279
13.81857022964828
12.353704127565424
12.74433508812085
9.71694514381628
7.568474860761425
6.103608758678568
4.541084916456855
4.931715877012284
2.8809033340962844
1.416037232013428
1.7090104524299992
-0.14648661020828566
-1.6113527122911422
-4.150453955901427
-6.39658197909514
-5.908293278400855
-9.81460288395514
-12.84199282825971
-12.158388647287708
-16.064698252841993
-18.994430457007706
-23.19371328297856
-27.002365148393988
-26.123445487144274
-32.08056763561456
-36.475165941863125
-35.49858854047456
-40.479133287556266
-44.09246967269398
-47.11985961699855
-50.24490730144198
-49.46364538033112
-53.467612726024264
-56.39734493018997
-55.713740749217976
-58.74113069352254
-60.8896009765774
-61.28023193713283
-62.15915159838254
-61.96383611810483
-60.987258716716255
-60.2059967956054
-60.401312275883114
-58.44815747310597
-56.88563363088426
-53.36995498588541
-50.34256504158083
-51.02616922255284
-46.04562447547112
-42.43228809033341
-43.21355001144427
-37.256427862973986
-32.86182955672541
-29.053177691309987
-25.049210345616846
-25.92813000686656
-20.947585259784848
-17.334248874647134
-18.11551079575799
-14.11154345006485
-11.181811245899137
-8.935683222705425
-6.591897459372854
-7.080186160067139
-5.127031357289998
-3.662165255207141
-3.9551384756237127
-2.8809033340962844
-2.197299153124285
-1.416037232013428
-0.6347753109025711
-0.8300907911802854
-0.7324330510414282
-0.7324330510414282
-0.7324330510414282
-0.7324330510414282
-0.7324330510414282
-1.7090104524299992
-2.490272373540856
-2.2949568932631417
-4.248111696040284
-5.71297779812314
-5.420004577706569
-6.39658197909514
-7.080186160067139
-9.81460288395514
-12.060730907148852
-11.572442206454566
-13.623254749370565
-15.088120851453422
-14.697489890897993
-17.627222095063708
-19.87335011825742
-21.24055848020142
-22.90074006256199
-22.510109102006563
-24.4632639047837
-25.92813000686656
-25.63515678644999
-27.588311589227132
-29.053177691309987
-31.592278934920273
-33.838406958113985
-33.3501182574197
-36.27985046158541
-38.525978484779124
-38.03768978408484
-39.99084458686198
-41.45571068894484
-43.99481193255512
-46.240939955748836
-45.75265125505455
-48.68238345922026
-50.928511482413974
-50.34256504158083
-52.39337758449683
-53.85824368657969
-54.44419012741283
-55.22545204852369
-55.03013656824598
-56.983291371023114
-58.44815747310597
-58.057526512550545
-59.13176165407798
-59.815365835049974
-59.62005035477226
-59.62005035477226
-59.62005035477226
-59.62005035477226
-59.62005035477226
-59.522392614633404
-57.66689555199512
-56.1043717097734
-51.709773403524835
-47.90112153810941
-48.68238345922026
-42.72526131074998
-38.33066300450141
-39.307240405889985
-32.37354085603113
-27.1976806286717
-20.752269779507134
-14.50217441062028
-15.869382772564279
-7.959105821316854
-2.0996414129854277
-3.36919203479057
3.466849774929427
8.642710002288853
11.279468986037996
14.50217441062028
13.81857022964828
13.916227969787137
13.916227969787137
13.916227969787137
13.916227969787137
13.916227969787137
15.771725032425422
17.334248874647134
16.943617914091707
18.89677271686885
20.361638818951704
20.068665598535134
22.998397802700847
25.24452582589456
29.443808651865414
33.252460517280845
32.471198596169984
35.49858854047456
37.64705882352941
37.15877012283513
38.23300526436255
38.91660944533455
36.86579690241855
35.4009308003357
35.69390402075227
33.64309147783627
32.178225375753414
32.56885633630884
29.541466392004274
27.392996108949415
24.95155260547799
22.60776684214542
23.096055542839704
21.14290074006256
19.678034637979707
19.971007858396277
17.041275654230564
14.795147631036851
13.427939269092851
11.767757686732281
12.158388647287708
10.10757610437171
8.642710002288853
9.033340962844282
7.959105821316854
7.275501640344854
5.517662317845426
3.9551384756237127
4.345769436179141
2.2949568932631417
0.8300907911802854
1.1230640115968566
-0.7324330510414282
-2.197299153124285
-3.7598229953459983
-5.322346837567712
-4.931715877012284
-6.982528419928283
-8.44739452201114
-8.05676356145571
-10.10757610437171
-11.572442206454566
-13.13496604867628
-14.697489890897993
-14.306858930342566
-16.260013733119706
-17.724879835202564
-17.43190661478599
-18.506141756313422
-19.18974593728542
-18.017853055619135
-17.334248874647134
-17.52956435492485
-14.599832150759136
-12.353704127565424
-12.84199282825971
-8.935683222705425
-6.005951018539712
-1.9043259327077133
1.9043259327077133
1.0254062714579995
6.982528419928283
11.377126726176853
10.400549324788281
15.381094071869994
18.994430457007706
22.021820401312276
25.146868085755703
24.4632639047837
28.467231250476843
31.396963454642556
30.71335927367056
34.61966887922484
37.549401083390556
40.772106507972836
43.79949645227741
43.11589227130541
47.11985961699855
50.04959182116426
49.365987640192266
53.27229724574655
56.20202944991226
58.44815747310597
60.79194323643854
60.2059967956054
61.28023193713283
61.96383611810483
61.768520637827116
60.8896009765774
60.108339055466544
57.37392233157855
55.127794308384836
55.61608300907912
51.61211566338598
48.68238345922026
49.26832990005341
45.362020294499125
42.33463035019455
39.20958266575113
36.0845349813077
36.768139162279695
32.764171816586554
29.834439612420844
30.420386053253985
25.537499046311133
21.826504921034562
18.799114976729992
15.674067292286564
16.357671473258563
12.353704127565424
9.42397192339971
10.10757610437171
8.05676356145571
6.591897459372854
4.052796215762569
1.7090104524299992
2.2949568932631417
0.24414435034714274
-1.1230640115968566
-0.8300907911802854
-1.8066681925688564
-2.5879301136797133
-2.392614633401999
-2.392614633401999
-2.392614633401999
-2.392614633401999
-2.392614633401999
-2.392614633401999
-2.392614633401999
-2.392614633401999
-1.513694972152285
-0.7324330510414282
-0.9277485313191425
-0.8300907911802854
-0.8300907911802854
-0.8300907911802854
0.04882887006942855
0.7324330510414282
1.513694972152285
2.2949568932631417
2.0996414129854277
3.1738765545128556
3.8574807354848555
3.662165255207141
3.7598229953459983
3.7598229953459983
3.7598229953459983
3.7598229953459983
3.7598229953459983
3.7598229953459983
3.7598229953459983
3.7598229953459983
5.615320057984283
7.080186160067139
8.642710002288853
10.205233844510566
9.912260624093996
12.84199282825971
14.990463111314565
14.50217441062028
18.506141756313422
21.43587396047913
24.560921644922562
27.68596932936599
27.002365148393988
29.9320973525597
32.178225375753414
31.68993667505913
33.64309147783627
35.10795757991913
35.79156176089113
36.57282368200198
36.37750820172427
36.37750820172427
36.37750820172427
36.37750820172427
35.4009308003357
34.61966887922484
30.029755092698558
26.22110322728313
27.100022888532845
19.287403677424276
13.330281528953995
14.697489890897993
5.810635538261997
-0.7324330510414282
-5.0293736171511405
-9.81460288395514
-8.74036774242771
-12.74433508812085
-15.674067292286564
-15.088120851453422
-16.16235599298085
-16.84596017395285
-14.795147631036851
-13.330281528953995
-13.623254749370565
-12.646677347981994
-11.865415426871138
-12.060730907148852
-12.939650568398566
-13.720912489509422
-18.310826276035705
-22.021820401312276
-21.24055848020142
-24.267948424505988
-26.416418707560844
-25.92813000686656
-29.834439612420844
-32.764171816586554
-35.010299839780274
-37.35408560311284
-36.768139162279695
-38.818951705195694
-40.28381780727855
-39.893186846723125
-41.943999389639124
-43.311207751583126
-44.97138933394369
-46.43625543602655
-46.14328221560998
-47.11985961699855
-47.80346379797055
-47.705806057831694
-48.68238345922026
-49.365987640192266
-49.17067215991455
-49.17067215991455
-49.17067215991455
-49.17067215991455
-49.17067215991455
-49.17067215991455
-49.073014419775696
-49.073014419775696
-49.073014419775696
-49.073014419775696
-49.073014419775696
-49.073014419775696
-48.97535667963683
-48.97535667963683
-47.998779278248264
-47.31517509727627
-46.43625543602655
-45.654993514915695
-45.85030899519341
-42.92057679102769
-40.67444876783398
-41.16273746852827
-36.27985046158541
-32.56885633630884
-26.709391927977418
-21.338216220340275
-22.510109102006563
-15.576409552147707
-10.400549324788281
-11.572442206454566
-5.517662317845426
-1.1230640115968566
3.466849774929427
8.154421301594567
7.177843900205997
12.158388647287708
15.771725032425422
14.990463111314565
18.017853055619135
20.16632333867399
21.63118944075685
23.19371328297856
22.803082322423133
22.90074006256199
22.90074006256199
22.90074006256199
22.90074006256199
22.90074006256199
21.92416266117342
21.14290074006256
21.338216220340275
19.385061417563133
17.920195315480278
18.21316853589685
15.283436331731137
13.037308308537423
10.693522545204852
8.349736781872283
8.838025482566568
5.908293278400855
3.662165255207141
4.150453955901427
0.24414435034714274
-2.5879301136797133
-4.834058136873426
-7.177843900205997
-6.6895551995117115
-10.595864805065995
-13.525597009231708
-12.939650568398566
-14.990463111314565
-16.357671473258563
-18.89677271686885
-21.24055848020142
-20.752269779507134
-22.705424582284277
-24.17029068436713
-23.87731746395056
-24.853894865339132
-25.537499046311133
-27.295338368810558
-28.857862211032273
-28.467231250476843
-29.541466392004274
-30.22507057297627
-30.029755092698558
-31.9829098954757
-33.44777599755856
-35.98687724116884
-38.23300526436255
-37.74471656366827
-39.79552910658427
-41.16273746852827
-40.86976424811169
-42.822919050888835
-44.28778515297169
-45.85030899519341
-47.412832837415124
-47.0222018768597
-48.09643701838712
-48.78004119935912
-48.584725719081405
-50.53788052185855
-52.002746623941405
-51.61211566338598
-51.709773403524835
-51.709773403524835
-52.588693064774546
-53.36995498588541
-53.17463950560769
-52.19806210421912
-51.416800183108265
-50.635538261997404
-49.85427634088655
-50.04959182116426
-48.09643701838712
-46.533913176165406
-46.826886396581976
-42.92057679102769
-39.99084458686198
-36.86579690241855
-33.74074921797513
-34.32669565880827
-30.420386053253985
-27.49065384908827
-28.076600289921416
-23.19371328297856
-19.48271915770199
-15.47875181200885
-11.572442206454566
-12.45136186770428
-7.470817120622568
-3.8574807354848555
-4.638742656595713
0.24414435034714274
3.8574807354848555
7.861448081177996
11.767757686732281
10.888838025482567
13.916227969787137
16.064698252841993
15.576409552147707
17.627222095063708
19.092088197146563
19.678034637979707
20.45929655909056
20.361638818951704
19.385061417563133
18.60379949645228
18.799114976729992
17.82253757534142
17.041275654230564
13.427939269092851
10.400549324788281
11.08415350576028
4.248111696040284
-0.8300907911802854
0.24414435034714274
-5.71297779812314
-10.10757610437171
-10.986495765621424
-12.74433508812085
-12.353704127565424
-12.45136186770428
-12.353704127565424
-12.353704127565424
-10.498207064927138
-8.935683222705425
-5.517662317845426
-2.392614633401999
-3.076218814373999
-1.0254062714579995
0.34180209048599985
0.04882887006942855
0.04882887006942855
0.04882887006942855
-2.68558785381857
-4.931715877012284
-4.443427176317998
-6.494239719233997
-7.959105821316854
-7.568474860761425
-9.619287403677424
-11.08415350576028
-11.670099946593423
-12.45136186770428
-12.353704127565424
-12.353704127565424
-12.353704127565424
-12.353704127565424
-13.232623788815136
-14.013885709925994
-14.795147631036851
-15.576409552147707
-15.381094071869994
-16.357671473258563
-17.13893339436942
-16.943617914091707
-17.920195315480278
-18.701457236591136
-19.48271915770199
-20.263981078812847
-20.068665598535134
-20.068665598535134
-20.068665598535134
-20.068665598535134
-18.11551079575799
-16.650644693675137
-14.11154345006485
-11.767757686732281
-12.353704127565424
-7.373159380483711
-3.7598229953459983
-4.541084916456855
1.2207217517357138
5.71297779812314
11.377126726176853
16.748302433813993
15.576409552147707
22.510109102006563
27.68596932936599
26.514076447699704
32.471198596169984
36.86579690241855
42.529945830472265
47.998779278248264
46.72922865644312
51.80743114366369
55.420767528801406
54.54184786755169
57.56923781185626
59.815365835049974
61.182574196993976
62.745098039215684
62.35446707866026
63.42870222018769
64.11230640115969
63.91699092088197
62.9404135194934
62.2568093385214
61.37788967727169
60.59662775616083
60.79194323643854
57.86221103227283
55.61608300907912
56.1043717097734
54.053559166857404
52.588693064774546
50.04959182116426
47.705806057831694
48.19409475852598
45.16670481422141
43.018234531166556
43.40886549172198
40.479133287556266
38.23300526436255
35.889219501029984
33.545433737697415
34.0337224383917
31.9829098954757
30.518043793392845
30.811017013809415
27.881284809643702
25.63515678644999
24.267948424505988
22.60776684214542
22.998397802700847
20.068665598535134
17.82253757534142
18.310826276035705
16.260013733119706
14.795147631036851
12.256046387426567
10.009918364232853
10.498207064927138
8.44739452201114
6.982528419928283
7.275501640344854
4.345769436179141
2.197299153124285
-0.14648661020828566
-2.490272373540856
-1.9043259327077133
-4.931715877012284
-7.080186160067139
-6.591897459372854
-9.619287403677424
-11.767757686732281
-14.209201190203707
-16.45532921339742
-15.967040512703136
-18.89677271686885
-21.14290074006256
-20.654612039368278
-22.60776684214542
-24.072632944228275
-25.732814526588847
-27.1976806286717
-26.90470740825513
-26.90470740825513
-26.90470740825513
-26.90470740825513
-25.049210345616846
-23.48668650339513
-20.947585259784848
-18.701457236591136
-19.18974593728542
-14.306858930342566
-10.595864805065995
-11.377126726176853
-6.39658197909514
-2.783245593957427
2.0996414129854277
6.6895551995117115
5.615320057984283
10.693522545204852
14.306858930342566
13.525597009231708
17.52956435492485
20.45929655909056
23.58434424353399
26.709391927977418
26.025787747005417
29.9320973525597
32.86182955672541
32.178225375753414
35.20561532005799
37.35408560311284
38.818951705195694
40.38147554741741
39.99084458686198
41.065079728389414
41.74868390936141
41.5533684290837
41.651026169222554
41.5533684290837
40.57679102769512
39.893186846723125
39.99084458686198
38.03768978408484
36.57282368200198
36.86579690241855
33.93606469825284
31.68993667505913
29.346150911726557
27.002365148393988
27.49065384908827
23.58434424353399
20.55695429922942
21.24055848020142
17.236591134508277
14.306858930342566
8.252079041733426
2.9785610742351416
4.150453955901427
-4.638742656595713
-11.279468986037996
-9.81460288395514
-18.701457236591136
-25.24452582589456
-29.541466392004274
-34.32669565880827
-33.252460517280845
-35.4009308003357
-36.768139162279695
-36.475165941863125
-36.57282368200198
-36.475165941863125
-32.6665140764477
-29.736781872281988
-30.322728313115128
-26.318760967421987
-23.389028763256274
-24.072632944228275
-23.87731746395056
-23.974975204089418
-24.853894865339132
-25.63515678644999
-25.439841306172273
-26.416418707560844
-27.100022888532845
-27.002365148393988
-27.002365148393988
-27.002365148393988
-26.025787747005417
-25.24452582589456
-25.439841306172273
-23.48668650339513
-22.021820401312276
-22.314793621728846
-20.361638818951704
-18.89677271686885
-16.260013733119706
-14.013885709925994
-14.50217441062028
-10.595864805065995
-7.666132600900283
-8.252079041733426
-3.36919203479057
0.24414435034714274
4.150453955901427
8.05676356145571
7.177843900205997
12.158388647287708
15.869382772564279
14.990463111314565
19.971007858396277
23.682001983672848
27.588311589227132
31.494621194781413
30.615701533531702
35.596246280613414
39.20958266575113
38.42832074464027
41.45571068894484
43.604180971999696
45.947966735332265
48.291752498664835
47.705806057831694
49.75661860074769
51.22148470283055
50.83085374227512
51.90508888380255
52.588693064774546
51.416800183108265
50.73319600213626
50.83085374227512
48.877698939497975
47.412832837415124
47.705806057831694
45.75265125505455
44.28778515297169
40.772106507972836
37.64705882352941
38.33066300450141
34.32669565880827
31.396963454642556
32.08056763561456
27.100022888532845
23.48668650339513
19.48271915770199
15.576409552147707
16.45532921339742
11.47478446631571
7.763790341039139
8.642710002288853
3.662165255207141
0.04882887006942855
-2.8809033340962844
-6.103608758678568
-5.420004577706569
-9.326314183260854
-12.256046387426567
-11.670099946593423
-14.599832150759136
-16.84596017395285
-20.16632333867399
-23.19371328297856
-22.510109102006563
-25.537499046311133
-27.68596932936599
-27.1976806286717
-30.22507057297627
-32.37354085603113
-33.838406958113985
-35.4009308003357
-35.010299839780274
-36.96345464255741
-38.42832074464027
-38.1353475242237
-40.08850232700084
-41.5533684290837
-42.13931486991684
-42.92057679102769
-42.72526131074998
-43.70183871213855
-44.48310063324941
-44.28778515297169
-45.26436255436027
-45.947966735332265
-45.75265125505455
-45.85030899519341
-45.75265125505455
-44.873731593804834
-44.09246967269398
-44.19012741283284
-41.358052948805984
-39.11192492561227
-36.67048142214084
-34.32669565880827
-34.81498435950255
-29.9320973525597
-26.22110322728313
-27.100022888532845
-21.14290074006256
-16.748302433813993
-10.986495765621424
-5.615320057984283
-6.787212939650568
-0.8300907911802854
3.466849774929427
2.490272373540856
8.44739452201114
12.84199282825971
18.60379949645228
23.974975204089418
22.803082322423133
28.760204470893417
33.15480277714199
32.178225375753414
37.15877012283513
40.772106507972836
44.77607385366598
48.584725719081405
47.705806057831694
51.709773403524835
54.639505607690545
53.95590142671855
56.006713969634546
57.471580071717405
57.08094911116198
57.178606851300835
57.08094911116198
55.22545204852369
53.66292820630198
54.053559166857404
51.02616922255284
48.78004119935912
45.45967803463798
42.43228809033341
43.018234531166556
39.11192492561227
36.0845349813077
36.768139162279695
32.764171816586554
29.834439612420844
28.564888990615703
26.90470740825513
27.295338368810558
24.365606164644845
22.119478141451133
22.60776684214542
20.55695429922942
19.092088197146563
16.55298695353628
14.306858930342566
14.795147631036851
11.767757686732281
9.619287403677424
10.10757610437171
7.080186160067139
4.931715877012284
-0.24414435034714274
-4.834058136873426
-3.7598229953459983
-10.693522545204852
-15.869382772564279
-14.697489890897993
-21.63118944075685
-26.807049668116274
-28.467231250476843
-31.00633249408713
-30.420386053253985
-30.518043793392845
-30.518043793392845
-30.518043793392845
-28.564888990615703
-27.100022888532845
-22.60776684214542
-18.799114976729992
-19.678034637979707
-15.674067292286564
-12.74433508812085
-13.330281528953995
-12.256046387426567
-11.572442206454566
-13.623254749370565
-15.088120851453422
-14.697489890897993
-15.771725032425422
-16.45532921339742
-16.260013733119706
-16.357671473258563
-16.357671473258563
-15.381094071869994
-14.599832150759136
-14.795147631036851
-10.888838025482567
-7.959105821316854
-8.642710002288853
-2.68558785381857
1.6113527122911422
8.252079041733426
14.404516670481422
13.037308308537423
21.92416266117342
28.564888990615703
27.100022888532845
35.010299839780274
40.86976424811169
45.26436255436027
50.04959182116426
48.97535667963683
54.932478828107115
59.32707713435569
58.25284199282826
61.37788967727169
63.526359960326545
63.91699092088197
64.79591058213168
64.60059510185397
64.60059510185397
64.60059510185397
64.60059510185397
63.6240177004654
62.84275577935454
60.108339055466544
57.86221103227283
58.350499732967116
54.346532387273975
51.416800183108265
52.002746623941405
48.09643701838712
45.069047074082555
41.943999389639124
38.818951705195694
39.5025558861677
36.475165941863125
34.22903791866941
34.717326619363696
31.68993667505913
29.541466392004274
28.076600289921416
26.514076447699704
26.807049668116274
25.830472266727703
25.049210345616846
25.24452582589456
24.17029068436713
23.48668650339513
22.705424582284277
21.92416266117342
22.021820401312276
21.045242999923705
20.263981078812847
20.45929655909056
19.48271915770199
18.701457236591136
16.943617914091707
15.47875181200885
15.771725032425422
12.84199282825971
10.595864805065995
11.08415350576028
8.154421301594567
5.908293278400855
4.541084916456855
2.8809033340962844
3.2715342946517127
1.3183794918745708
-0.14648661020828566
0.14648661020828566
-1.7090104524299992
-3.2715342946517127
-3.8574807354848555
-4.638742656595713
-4.443427176317998
-4.541084916456855
-4.541084916456855
-4.541084916456855
-5.420004577706569
-6.201266498817426
-6.005951018539712
-6.103608758678568
-6.103608758678568
-5.127031357289998
-4.345769436179141
-4.541084916456855
-2.5879301136797133
-1.1230640115968566
2.2949568932631417
5.322346837567712
4.638742656595713
9.619287403677424
13.232623788815136
12.45136186770428
18.310826276035705
22.705424582284277
26.514076447699704
30.420386053253985
29.541466392004274
32.6665140764477
34.81498435950255
34.32669565880827
36.27985046158541
37.74471656366827
37.4517433432517
37.4517433432517
37.4517433432517
36.475165941863125
35.69390402075227
35.889219501029984
33.93606469825284
32.471198596169984
28.95551995117113
25.92813000686656
26.514076447699704
21.63118944075685
17.920195315480278
18.799114976729992
12.84199282825971
8.44739452201114
5.615320057984283
2.392614633401999
3.076218814373999
-1.7090104524299992
-5.420004577706569
-4.638742656595713
-7.666132600900283
-9.81460288395514
-11.279468986037996
-12.84199282825971
-12.45136186770428
-14.50217441062028
-15.967040512703136
-15.576409552147707
-17.52956435492485
-18.994430457007706
-20.654612039368278
-22.119478141451133
-21.826504921034562
-22.803082322423133
-23.58434424353399
-23.389028763256274
-26.318760967421987
-28.467231250476843
-29.9320973525597
-31.494621194781413
-31.103990234225986
-33.05714503700313
-34.52201113908598
-34.22903791866941
-36.182192721446555
-37.64705882352941
-38.23300526436255
-39.11192492561227
-38.91660944533455
-39.893186846723125
-40.57679102769512
-40.38147554741741
-41.358052948805984
-42.13931486991684
-45.75265125505455
-48.78004119935912
-48.09643701838712
-54.83482108796826
-60.01068131532769
-58.8387884336614
-64.79591058213168
-69.19050888838025
-71.04600595101854
-73.48744945448996
-72.90150301365682
-72.99916075379568
-72.99916075379568
-72.90150301365682
-70.06942854962998
-67.82330052643626
-61.5732051575494
-56.29968719005112
-57.471580071717405
-50.44022278171969
-45.26436255436027
-46.43625543602655
-41.358052948805984
-37.74471656366827
-36.57282368200198
-34.91264209964141
-35.303273060196844
-31.396963454642556
-28.467231250476843
-29.053177691309987
-25.146868085755703
-22.119478141451133
-18.017853055619135
-14.209201190203707
-14.990463111314565
-10.986495765621424
-8.05676356145571
-8.74036774242771
-4.736400396734569
-1.8066681925688564
1.2207217517357138
4.345769436179141
3.662165255207141
6.6895551995117115
8.935683222705425
8.349736781872283
9.42397192339971
10.205233844510566
10.986495765621424
11.767757686732281
11.572442206454566
12.549019607843137
13.330281528953995
13.13496604867628
12.158388647287708
11.47478446631571
10.693522545204852
9.912260624093996
10.009918364232853
10.009918364232853
10.009918364232853
10.009918364232853
9.033340962844282
8.252079041733426
7.470817120622568
6.6895551995117115
6.884870679789426
6.884870679789426
6.884870679789426
6.884870679789426
5.908293278400855
5.127031357289998
4.345769436179141
3.5645075150682843
3.7598229953459983
1.8066681925688564
0.34180209048599985
0.6347753109025711
-2.197299153124285
-4.443427176317998
-5.810635538261997
-7.373159380483711
-7.080186160067139
-9.033340962844282
-10.498207064927138
-10.205233844510566
-12.158388647287708
-13.623254749370565
-14.209201190203707
-15.088120851453422
-14.892805371175708
-16.84596017395285
-18.310826276035705
-17.920195315480278
-19.971007858396277
-21.43587396047913
-23.87731746395056
-26.22110322728313
-25.732814526588847
-28.66254673075456
-30.811017013809415
-30.322728313115128
-32.37354085603113
-33.838406958113985
-36.37750820172427
-38.62363622491798
-38.1353475242237
-41.065079728389414
-43.311207751583126
-42.72526131074998
-44.77607385366598
-46.240939955748836
-46.826886396581976
-47.60814831769284
-47.412832837415124
-48.38941023880369
-49.17067215991455
-48.97535667963683
-47.0222018768597
-45.55733577477684
-43.018234531166556
-40.67444876783398
-41.16273746852827
-36.27985046158541
-32.56885633630884
-33.44777599755856
-28.467231250476843
-24.756237125200276
-20.752269779507134
-16.84596017395285
-17.724879835202564
-13.720912489509422
-10.79118028534371
-11.47478446631571
-8.44739452201114
-6.201266498817426
-4.834058136873426
-3.1738765545128556
-3.5645075150682843
-1.6113527122911422
-0.14648661020828566
-0.43945983062485694
-0.34180209048599985
-0.34180209048599985
-1.3183794918745708
-2.0996414129854277
-1.9043259327077133
-2.8809033340962844
-3.662165255207141
-3.466849774929427
-5.420004577706569
-6.884870679789426
-7.470817120622568
-8.349736781872283
-8.154421301594567
-10.10757610437171
-11.572442206454566
-11.279468986037996
-12.256046387426567
-12.939650568398566
-13.720912489509422
-14.50217441062028
-14.404516670481422
-16.260013733119706
-17.82253757534142
-17.43190661478599
-18.506141756313422
-19.18974593728542
-19.971007858396277
-20.752269779507134
-20.55695429922942
-21.533531700617992
-22.314793621728846
-22.119478141451133
-22.119478141451133
-22.119478141451133
-21.14290074006256
-20.45929655909056
-20.55695429922942
-20.55695429922942
-20.55695429922942
-20.55695429922942
-20.55695429922942
-20.55695429922942
-21.43587396047913
-22.21713588158999
-22.021820401312276
-22.998397802700847
-23.779659723811704
-23.58434424353399
-24.560921644922562
-25.24452582589456
-27.002365148393988
-28.564888990615703
-28.174258030060273
-30.127412832837415
-31.592278934920273
-31.2993057145037
-33.252460517280845
-34.717326619363696
-38.23300526436255
-41.26039520866713
-40.57679102769512
-44.48310063324941
-47.412832837415124
-46.72922865644312
-46.826886396581976
-46.826886396581976
-42.04165712977798
-38.33066300450141
-39.11192492561227
-29.346150911726557
-22.021820401312276
-23.58434424353399
-10.888838025482567
-1.3183794918745708
10.79118028534371
22.412451361867703
19.87335011825742
32.86182955672541
42.33463035019455
40.186160067139696
49.26832990005341
55.81139848935683
58.1551842526894
61.475547417410546
60.694285496299685
62.745098039215684
64.20996414129854
63.819333180743115
64.79591058213168
65.57717250324254
65.38185702296482
65.38185702296482
65.38185702296482
65.28419928282597
65.28419928282597
65.28419928282597
64.3076218814374
63.526359960326545
62.745098039215684
61.96383611810483
62.061493858243686
60.108339055466544
58.643472953383686
58.936446173800256
56.006713969634546
53.760585946440834
51.31914244296941
48.97535667963683
49.56130312046998
45.55733577477684
42.62760357061112
43.21355001144427
38.33066300450141
34.61966887922484
32.56885633630884
30.127412832837415
30.71335927367056
27.68596932936599
25.439841306172273
25.92813000686656
22.998397802700847
20.752269779507134
18.40848401617456
16.064698252841993
16.55298695353628
13.525597009231708
11.377126726176853
11.865415426871138
8.838025482566568
6.6895551995117115
4.248111696040284
1.9043259327077133
2.490272373540856
-0.43945983062485694
-2.5879301136797133
-2.0996414129854277
-5.127031357289998
-7.275501640344854
-8.74036774242771
-10.302891584649425
-9.912260624093996
-11.963073167009995
-13.427939269092851
-13.037308308537423
-15.088120851453422
-16.55298695353628
-18.11551079575799
-19.678034637979707
-19.287403677424276
-21.24055848020142
-22.705424582284277
-22.412451361867703
-23.389028763256274
-24.17029068436713
-23.974975204089418
-23.974975204089418
-23.974975204089418
-22.021820401312276
-20.55695429922942
-20.84992751964599
-17.920195315480278
-15.771725032425422
-12.45136186770428
-9.326314183260854
-10.009918364232853
-6.005951018539712
-3.076218814373999
-3.7598229953459983
0.14648661020828566
3.076218814373999
6.201266498817426
9.326314183260854
8.642710002288853
12.646677347981994
15.576409552147707
14.892805371175708
18.89677271686885
21.826504921034562
24.95155260547799
28.076600289921416
27.392996108949415
30.322728313115128
32.56885633630884
32.08056763561456
35.98687724116884
38.91660944533455
40.186160067139696
41.74868390936141
41.358052948805984
42.43228809033341
43.11589227130541
42.92057679102769
42.04165712977798
41.26039520866713
39.5025558861677
37.94003204394598
38.23300526436255
34.32669565880827
31.396963454642556
32.08056763561456
28.076600289921416
25.146868085755703
21.92416266117342
18.799114976729992
19.48271915770199
15.576409552147707
12.646677347981994
13.232623788815136
9.326314183260854
6.298924238956283
2.197299153124285
-1.513694972152285
-0.6347753109025711
-3.7598229953459983
-5.908293278400855
-5.420004577706569
-8.44739452201114
-10.595864805065995
-12.939650568398566
-15.283436331731137
-14.795147631036851
-16.84596017395285
-18.21316853589685
-17.920195315480278
-18.994430457007706
-19.678034637979707
-21.43587396047913
-22.90074006256199
-22.60776684214542
-24.560921644922562
-26.025787747005417
-25.63515678644999
-27.68596932936599
-29.150835431448844
-29.736781872281988
-30.518043793392845
-30.322728313115128
-31.2993057145037
-32.08056763561456
-31.885252155336843
-32.86182955672541
-33.545433737697415
-32.471198596169984
-31.787594415197987
-31.885252155336843
-30.908674753948272
-30.127412832837415
-30.322728313115128
-28.369573510337986
-26.90470740825513
-25.24452582589456
-23.682001983672848
-24.072632944228275
-22.021820401312276
-20.55695429922942
-20.84992751964599
-17.920195315480278
-15.771725032425422
-14.306858930342566
-12.74433508812085
-13.037308308537423
-13.916227969787137
-14.697489890897993
-14.50217441062028
-13.623254749370565
-12.84199282825971
-10.10757610437171
-7.861448081177996
-8.349736781872283
-2.490272373540856
1.8066681925688564
0.8300907911802854
7.763790341039139
12.84199282825971
20.263981078812847
27.1976806286717
25.732814526588847
33.64309147783627
39.5025558861677
38.23300526436255
41.358052948805984
43.50652323186084
42.04165712977798
41.358052948805984
41.5533684290837
39.600213626306555
38.03768978408484
38.42832074464027
35.4009308003357
33.252460517280845
28.95551995117113
25.146868085755703
25.92813000686656
21.92416266117342
18.994430457007706
19.678034637979707
14.697489890897993
10.986495765621424
7.080186160067139
3.1738765545128556
4.052796215762569
-0.8300907911802854
-4.541084916456855
-3.662165255207141
-8.642710002288853
-12.353704127565424
-15.283436331731137
-18.40848401617456
-17.724879835202564
-22.705424582284277
-26.318760967421987
-25.537499046311133
-28.564888990615703
-30.71335927367056
-32.178225375753414
-33.74074921797513
-33.3501182574197
-35.303273060196844
-36.768139162279695
-36.475165941863125
-36.57282368200198
-36.475165941863125
-37.4517433432517
-38.1353475242237
-38.03768978408484
-38.03768978408484
-38.03768978408484
-38.03768978408484
-37.06111238269627
-36.27985046158541
-36.37750820172427
-36.37750820172427
-36.37750820172427
-36.37750820172427
-36.37750820172427
-36.37750820172427
-36.27985046158541
-36.27985046158541
-37.256427862973986
-37.94003204394598
-37.84237430380713
-37.84237430380713
-37.84237430380713
-37.84237430380713
-37.74471656366827
-37.74471656366827
-33.93606469825284
-31.00633249408713
-31.592278934920273
-25.732814526588847
-21.338216220340275
-22.314793621728846
-12.549019607843137
-5.127031357289998
5.517662317845426
15.576409552147707
13.330281528953995
26.22110322728313
35.79156176089113
33.64309147783627
46.533913176165406
56.006713969634546
63.42870222018769
71.33897917143511
69.58113984893568
76.61249713893339
81.69069962615396
80.51880674448768
84.62043183031967
87.45250629434653
87.7454795147631
88.62439917601282
88.33142595559625
88.4290836957351
88.33142595559625
88.33142595559625
86.37827115281911
84.91340505073624
82.27664606698711
80.03051804379339
80.51880674448768
75.53826199740597
71.8272678721294
72.60852979324025
66.74906538490883
62.2568093385214
56.59266041046769
51.123826962691695
52.295719844357976
46.33859769588769
41.84634164950027
42.822919050888835
35.98687724116884
30.811017013809415
27.100022888532845
23.19371328297856
24.072632944228275
19.092088197146563
15.381094071869994
16.16235599298085
12.158388647287708
9.228656443121995
7.080186160067139
4.638742656595713
5.224689097428855
3.1738765545128556
1.7090104524299992
2.0019836728465705
0.04882887006942855
-1.3183794918745708
-1.9043259327077133
-2.783245593957427
-2.5879301136797133
-3.5645075150682843
-4.345769436179141
-4.150453955901427
-5.127031357289998
-5.908293278400855
-5.71297779812314
-5.71297779812314
-5.71297779812314
-5.71297779812314
-5.71297779812314
-5.71297779812314
-6.6895551995117115
-7.373159380483711
-9.130998702983138
-10.693522545204852
-10.302891584649425
-12.353704127565424
-13.81857022964828
-13.427939269092851
-15.381094071869994
-16.84596017395285
-19.385061417563133
-21.728847180895706
-21.24055848020142
-23.19371328297856
-24.65857938506142
-24.365606164644845
-25.342183566033416
-26.123445487144274
-24.95155260547799
-24.267948424505988
-24.365606164644845
-19.58037689784085
-15.869382772564279
-16.650644693675137
-8.838025482566568
-2.9785610742351416
5.224689097428855
12.939650568398566
11.181811245899137
22.998397802700847
31.885252155336843
29.834439612420844
41.74868390936141
50.53788052185855
57.178606851300835
64.3076218814374
62.64744029907683
66.84672312504769
69.67879758907453
68.99519340810254
71.04600595101854
72.5108720531014
75.04997329671168
77.29610131990539
76.71015487907225
79.73754482337682
81.88601510643167
81.39772640573739
85.30403601129167
88.23376821545739
91.35881589990082
94.38620584420539
93.70260166323338
96.6323338673991
98.87846189059282
98.29251544975968
97.41359578850995
96.6323338673991
92.04242008087282
88.23376821545739
89.01503013656824
83.05790798809797
78.6633096818494
79.63988708323797
73.68276493476768
69.19050888838025
63.526359960326545
58.057526512550545
59.22941939421683
52.295719844357976
47.11985961699855
48.19409475852598
41.26039520866713
36.0845349813077
30.615701533531702
25.146868085755703
26.318760967421987
19.385061417563133
14.209201190203707
15.381094071869994
10.302891584649425
6.6895551995117115
2.68558785381857
-1.1230640115968566
-0.24414435034714274
-3.2715342946517127
-5.517662317845426
-5.0293736171511405
-6.005951018539712
-6.787212939650568
-7.568474860761425
-8.349736781872283
-8.154421301594567
-8.154421301594567
-8.154421301594567
-8.154421301594567
-8.154421301594567
-8.154421301594567
-9.130998702983138
-9.912260624093996
-9.71694514381628
-10.693522545204852
-11.377126726176853
-11.279468986037996
-13.232623788815136
-14.697489890897993
-17.236591134508277
-19.48271915770199
-18.994430457007706
-21.92416266117342
-24.17029068436713
-23.682001983672848
-25.63515678644999
-27.100022888532845
-27.68596932936599
-28.564888990615703
-28.369573510337986
-27.392996108949415
-26.709391927977418
-26.807049668116274
-24.853894865339132
-23.389028763256274
-20.84992751964599
-18.506141756313422
-18.994430457007706
-16.064698252841993
-13.81857022964828
-14.306858930342566
-10.400549324788281
-7.470817120622568
-4.248111696040284
-1.1230640115968566
-1.8066681925688564
2.0019836728465705
4.931715877012284
4.345769436179141
9.228656443121995
12.939650568398566
14.892805371175708
17.334248874647134
16.84596017395285
19.775692378118563
22.021820401312276
21.43587396047913
21.533531700617992
21.533531700617992
20.55695429922942
19.87335011825742
19.971007858396277
18.017853055619135
16.55298695353628
16.84596017395285
14.892805371175708
13.427939269092851
11.865415426871138
10.302891584649425
10.595864805065995
8.642710002288853
7.177843900205997
7.470817120622568
4.541084916456855
2.2949568932631417
-0.9277485313191425
-3.9551384756237127
-3.2715342946517127
-7.275501640344854
-10.205233844510566
-9.521629663538567
-12.549019607843137
-14.697489890897993
-17.13893339436942
-19.48271915770199
-18.89677271686885
-19.971007858396277
-20.654612039368278
-20.55695429922942
-22.412451361867703
-23.974975204089418
-23.58434424353399
-23.682001983672848
-23.682001983672848
-24.560921644922562
-25.342183566033416
-25.146868085755703
-24.267948424505988
-23.48668650339513
-23.58434424353399
-23.58434424353399
-23.58434424353399
-21.63118944075685
-20.16632333867399
-20.45929655909056
-17.52956435492485
-15.283436331731137
-12.939650568398566
-10.595864805065995
-11.08415350576028
-8.154421301594567
-5.908293278400855
-6.39658197909514
-3.466849774929427
-1.2207217517357138
0.04882887006942855
1.7090104524299992
1.3183794918745708
3.2715342946517127
4.736400396734569
4.443427176317998
7.373159380483711
9.619287403677424
11.963073167009995
14.306858930342566
13.720912489509422
17.724879835202564
20.654612039368278
19.971007858396277
23.974975204089418
26.90470740825513
31.00633249408713
34.81498435950255
33.93606469825284
36.96345464255741
39.20958266575113
38.72129396505684
40.67444876783398
42.13931486991684
42.72526131074998
43.50652323186084
43.311207751583126
42.43228809033341
41.651026169222554
41.84634164950027
39.893186846723125
38.33066300450141
31.9829098954757
26.709391927977418
27.881284809643702
18.994430457007706
12.353704127565424
13.81857022964828
4.931715877012284
-1.6113527122911422
-6.787212939650568
-12.353704127565424
-11.08415350576028
-15.185778591592278
-18.11551079575799
-17.43190661478599
-17.52956435492485
-17.52956435492485
-15.576409552147707
-14.11154345006485
-14.50217441062028
-12.45136186770428
-10.986495765621424
-11.279468986037996
-12.158388647287708
-12.939650568398566
-16.55298695353628
-19.58037689784085
-18.89677271686885
-21.92416266117342
-24.17029068436713
-23.58434424353399
-26.61173418783856
-28.760204470893417
-31.201647974364842
-33.44777599755856
-32.95948729686427
-34.0337224383917
-34.717326619363696
-34.52201113908598
-36.475165941863125
-37.94003204394598
-38.525978484779124
-39.40489814602884
-39.20958266575113
-41.065079728389414
-42.529945830472265
-42.236972610055695
-44.19012741283284
-45.654993514915695
-48.19409475852598
-50.44022278171969
-49.951934081025406
-52.881666285191116
-55.127794308384836
-54.54184786755169
-59.42473487449455
-63.13572899977112
-67.0420386053254
-70.94834821087969
-70.06942854962998
-74.95231555657283
-78.6633096818494
-77.78439002059967
-83.6438544289311
-88.03845273517967
-90.87052719920653
-93.99557488364995
-93.31197070267795
-96.24170290684367
-98.48783093003739
-97.90188448920424
-98.97611963073167
-99.65972381170367
-97.51125352864881
-96.04638742656596
-96.33936064698253
-92.43305104142824
-89.40566109712367
-90.08926527809568
-83.25322346837568
-78.07736324101626
-71.53429465171283
-65.28419928282597
-66.65140764476998
-56.7879758907454
-49.365987640192266
-51.02616922255284
-41.065079728389414
-33.74074921797513
-26.807049668116274
-19.678034637979707
-21.24055848020142
-12.353704127565424
-5.71297779812314
-7.177843900205997
-1.1230640115968566
3.1738765545128556
6.982528419928283
10.888838025482567
10.009918364232853
14.013885709925994
16.943617914091707
16.260013733119706
19.287403677424276
21.43587396047913
22.90074006256199
24.4632639047837
24.072632944228275
26.123445487144274
27.588311589227132
27.1976806286717
27.295338368810558
27.295338368810558
25.342183566033416
23.87731746395056
24.17029068436713
21.24055848020142
18.994430457007706
19.48271915770199
15.576409552147707
12.646677347981994
8.44739452201114
4.638742656595713
5.517662317845426
0.537117570763714
-3.076218814373999
-2.197299153124285
-7.177843900205997
-10.888838025482567
-14.795147631036851
-18.701457236591136
-17.82253757534142
-22.803082322423133
-26.416418707560844
-25.63515678644999
-30.615701533531702
-34.22903791866941
-37.256427862973986
-40.38147554741741
-39.69787136644541
-42.62760357061112
-44.873731593804834
-44.38544289311055
-47.31517509727627
-49.46364538033112
-50.928511482413974
-52.49103532463569
-52.10040436408026
-54.053559166857404
-55.51842526894026
-55.22545204852369
-57.178606851300835
-58.643472953383686
-59.22941939421683
-60.01068131532769
-59.815365835049974
-61.768520637827116
-63.233386739909974
-62.84275577935454
-63.819333180743115
-64.60059510185397
-64.40527962157626
-64.40527962157626
-64.40527962157626
-63.42870222018769
-62.64744029907683
-62.745098039215684
-59.815365835049974
-57.56923781185626
-53.27229724574655
-49.46364538033112
-50.34256504158083
-43.40886549172198
-38.23300526436255
-39.40489814602884
-32.471198596169984
-27.295338368810558
-19.87335011825742
-12.84199282825971
-14.404516670481422
-6.39658197909514
-0.537117570763714
-1.9043259327077133
5.908293278400855
11.865415426871138
17.236591134508277
22.705424582284277
21.43587396047913
27.49065384908827
31.885252155336843
30.811017013809415
34.91264209964141
37.74471656366827
39.014267185473415
40.67444876783398
40.28381780727855
41.26039520866713
42.04165712977798
41.84634164950027
41.84634164950027
41.84634164950027
38.03768978408484
35.010299839780274
35.69390402075227
28.857862211032273
23.682001983672848
24.756237125200276
17.82253757534142
12.74433508812085
10.009918364232853
6.787212939650568
7.470817120622568
6.39658197909514
5.71297779812314
5.810635538261997
6.787212939650568
7.470817120622568
10.205233844510566
12.45136186770428
11.963073167009995
14.013885709925994
15.47875181200885
15.088120851453422
15.185778591592278
15.185778591592278
12.256046387426567
10.009918364232853
10.595864805065995
7.568474860761425
5.322346837567712
5.810635538261997
2.8809033340962844
0.6347753109025711
-2.5879301136797133
-5.615320057984283
-4.931715877012284
-8.935683222705425
-11.865415426871138
-11.181811245899137
-15.185778591592278
-18.11551079575799
-21.24055848020142
-24.365606164644845
-23.682001983672848
-27.588311589227132
-30.518043793392845
-29.9320973525597
-32.86182955672541
-35.10795757991913
-36.475165941863125
-38.03768978408484
-37.74471656366827
-38.72129396505684
-39.40489814602884
-39.307240405889985
-39.307240405889985
-39.307240405889985
-38.33066300450141
-37.549401083390556
-37.74471656366827
-34.81498435950255
-32.56885633630884
-33.05714503700313
-29.053177691309987
-26.123445487144274
-22.021820401312276
-18.11551079575799
-18.994430457007706
-13.037308308537423
-8.642710002288853
-9.619287403677424
-4.638742656595713
-1.0254062714579995
2.8809033340962844
6.787212939650568
5.908293278400855
10.888838025482567
14.50217441062028
13.720912489509422
17.724879835202564
20.654612039368278
23.779659723811704
26.90470740825513
26.22110322728313
31.103990234225986
34.81498435950255
33.93606469825284
38.91660944533455
42.529945830472265
45.55733577477684
48.68238345922026
47.998779278248264
51.02616922255284
53.17463950560769
52.6863508049134
53.66292820630198
54.44419012741283
53.27229724574655
52.588693064774546
52.6863508049134
50.73319600213626
49.26832990005341
49.56130312046998
44.67841611352712
40.96742198825055
36.0845349813077
31.396963454642556
32.471198596169984
26.514076447699704
22.021820401312276
22.998397802700847
16.16235599298085
10.986495765621424
7.373159380483711
3.36919203479057
4.248111696040284
-0.6347753109025711
-4.345769436179141
-3.466849774929427
-6.494239719233997
-8.74036774242771
-11.08415350576028
-13.427939269092851
-12.939650568398566
-14.892805371175708
-16.357671473258563
-16.064698252841993
-17.041275654230564
-17.82253757534142
-18.60379949645228
-19.385061417563133
-19.18974593728542
-20.16632333867399
-20.84992751964599
-20.752269779507134
-21.728847180895706
-22.412451361867703
-24.17029068436713
-25.63515678644999
-25.342183566033416
-26.318760967421987
-27.100022888532845
-26.90470740825513
-27.881284809643702
-28.564888990615703
-29.346150911726557
-30.127412832837415
-29.9320973525597
-29.053177691309987
-28.27191577019913
-28.467231250476843
-27.49065384908827
-26.709391927977418
-23.974975204089418
-21.728847180895706
-22.21713588158999
-18.310826276035705
-15.381094071869994
-15.967040512703136
-10.10757610437171
-5.71297779812314
0.04882887006942855
5.322346837567712
4.150453955901427
11.08415350576028
16.260013733119706
15.088120851453422
22.021820401312276
27.100022888532845
31.68993667505913
36.37750820172427
35.4009308003357
40.38147554741741
43.99481193255512
43.21355001144427
46.240939955748836
48.38941023880369
51.709773403524835
54.7371633478294
54.053559166857404
56.1043717097734
57.56923781185626
57.178606851300835
60.108339055466544
62.35446707866026
61.768520637827116
61.86617837796597
61.86617837796597
61.86617837796597
61.768520637827116
61.768520637827116
59.815365835049974
58.350499732967116
55.81139848935683
53.467612726024264
53.95590142671855
50.04959182116426
47.0222018768597
47.705806057831694
42.822919050888835
39.11192492561227
31.2993057145037
24.4632639047837
25.92813000686656
15.088120851453422
6.982528419928283
8.74036774242771
-1.0254062714579995
-8.44739452201114
-12.45136186770428
-17.334248874647134
-16.260013733119706
-19.287403677424276
-21.533531700617992
-21.045242999923705
-20.16632333867399
-19.385061417563133
-15.771725032425422
-12.74433508812085
-13.427939269092851
-9.42397192339971
-6.494239719233997
-7.080186160067139
-7.959105821316854
-8.74036774242771
-12.353704127565424
-15.381094071869994
-14.697489890897993
-18.60379949645228
-21.533531700617992
-20.947585259784848
-24.853894865339132
-27.783627069504846
-30.908674753948272
-34.0337224383917
-33.3501182574197
-36.37750820172427
-38.525978484779124
-38.03768978408484
-39.11192492561227
-39.79552910658427
-40.57679102769512
-41.358052948805984
-41.16273746852827
-40.28381780727855
-39.5025558861677
-39.600213626306555
-38.62363622491798
-37.84237430380713
-35.20561532005799
-32.86182955672541
-33.3501182574197
-28.467231250476843
-24.756237125200276
-25.63515678644999
-20.654612039368278
-16.943617914091707
-11.08415350576028
-5.71297779812314
-6.884870679789426
0.04882887006942855
5.127031357289998
3.9551384756237127
10.888838025482567
16.064698252841993
21.533531700617992
27.002365148393988
25.830472266727703
30.811017013809415
34.424353398947126
33.64309147783627
38.62363622491798
42.236972610055695
45.26436255436027
48.38941023880369
47.705806057831694
49.658960860608836
51.123826962691695
50.83085374227512
50.83085374227512
50.83085374227512
48.877698939497975
47.412832837415124
47.705806057831694
44.77607385366598
42.529945830472265
43.018234531166556
39.11192492561227
36.0845349813077
31.9829098954757
28.076600289921416
28.95551995117113
23.974975204089418
20.361638818951704
21.14290074006256
17.13893339436942
14.209201190203707
10.10757610437171
6.201266498817426
7.080186160067139
3.076218814373999
0.14648661020828566
0.7324330510414282
-2.0996414129854277
-4.345769436179141
-6.6895551995117115
-9.033340962844282
-8.545052262149996
-10.595864805065995
-11.963073167009995
-11.670099946593423
-13.623254749370565
-15.088120851453422
-16.748302433813993
-18.21316853589685
-17.920195315480278
-19.87335011825742
-21.338216220340275
-21.045242999923705
-22.998397802700847
-24.4632639047837
-26.025787747005417
-27.588311589227132
-27.1976806286717
-29.150835431448844
-30.615701533531702
-30.322728313115128
-32.27588311589227
-33.74074921797513
-34.32669565880827
-35.20561532005799
-35.010299839780274
-35.98687724116884
-36.67048142214084
-36.475165941863125
-37.4517433432517
-38.23300526436255
-38.03768978408484
-38.03768978408484
-38.03768978408484
-36.0845349813077
-34.61966887922484
-34.91264209964141
-33.93606469825284
-33.15480277714199
-30.420386053253985
-28.174258030060273
-28.66254673075456
-25.732814526588847
-23.48668650339513
-23.974975204089418
-20.947585259784848
-18.799114976729992
-16.357671473258563
-14.013885709925994
-14.599832150759136
-11.572442206454566
-9.326314183260854
-9.81460288395514
-7.861448081177996
-6.39658197909514
-4.834058136873426
-3.2715342946517127
-3.5645075150682843
-1.6113527122911422
-0.14648661020828566
-0.43945983062485694
1.416037232013428
2.8809033340962844
3.5645075150682843
4.345769436179141
4.150453955901427
5.127031357289998
5.908293278400855
5.71297779812314
5.71297779812314
5.71297779812314
4.834058136873426
4.052796215762569
4.248111696040284
3.2715342946517127
2.490272373540856
2.68558785381857
0.7324330510414282
-0.6347753109025711
-2.2949568932631417
-3.8574807354848555
-3.466849774929427
-5.420004577706569
-6.884870679789426
-6.591897459372854
-9.521629663538567
-11.767757686732281
-13.13496604867628
-14.697489890897993
-14.404516670481422
-16.357671473258563
-17.82253757534142
-17.52956435492485
-19.48271915770199
-20.947585259784848
-25.342183566033416
-29.150835431448844
-28.27191577019913
-34.22903791866941
-38.62363622491798
-37.64705882352941
-44.48310063324941
-49.658960860608836
-51.31914244296941
-53.85824368657969
-53.27229724574655
-53.36995498588541
-53.27229724574655
-53.27229724574655
-50.44022278171969
-48.19409475852598
-42.92057679102769
-38.33066300450141
-39.307240405889985
-33.3501182574197
-28.95551995117113
-29.9320973525597
-27.783627069504846
-26.318760967421987
-26.61173418783856
-26.61173418783856
-26.61173418783856
-26.61173418783856
-26.61173418783856
-26.514076447699704
-26.514076447699704
-26.514076447699704
-25.537499046311133
-24.853894865339132
-24.95155260547799
-22.119478141451133
-19.87335011825742
-20.361638818951704
-16.357671473258563
-13.427939269092851
-9.326314183260854
-5.420004577706569
-6.298924238956283
0.43945983062485694
5.615320057984283
4.443427176317998
12.353704127565424
18.21316853589685
26.514076447699704
34.131380178530556
32.471198596169984
43.311207751583126
51.416800183108265
49.56130312046998
60.49897001602197
68.50690470740825
74.36636911573969
80.61646448462653
79.24925612268254
85.20637827115281
89.60097657740138
88.62439917601282
91.65178912031739
93.80025940337224
93.31197070267795
93.40962844281681
93.31197070267795
90.38223849851225
88.13611047531853
88.62439917601282
85.59700923170824
83.4485389486534
79.05394064240483
75.2452887769894
76.12420843823911
71.04600595101854
67.43266956588083
68.21393148699168
62.2568093385214
57.86221103227283
53.07698176546884
48.38941023880369
49.365987640192266
43.40886549172198
39.014267185473415
39.99084458686198
35.010299839780274
31.2993057145037
27.295338368810558
23.389028763256274
24.267948424505988
20.263981078812847
17.334248874647134
17.920195315480278
14.990463111314565
12.74433508812085
11.279468986037996
9.71694514381628
10.10757610437171
10.009918364232853
10.009918364232853
10.009918364232853
10.009918364232853
10.009918364232853
10.986495765621424
11.670099946593423
11.47478446631571
12.549019607843137
13.232623788815136
13.037308308537423
14.013885709925994
14.795147631036851
15.576409552147707
16.357671473258563
16.16235599298085
16.16235599298085
16.16235599298085
16.16235599298085
16.16235599298085
16.16235599298085
16.16235599298085
16.16235599298085
16.16235599298085
16.16235599298085
16.16235599298085
16.16235599298085
17.13893339436942
17.82253757534142
18.60379949645228
19.385061417563133
19.18974593728542
21.14290074006256
22.60776684214542
22.314793621728846
25.24452582589456
27.392996108949415
29.834439612420844
32.08056763561456
31.592278934920273
34.52201113908598
36.768139162279695
36.27985046158541
39.20958266575113
41.358052948805984
43.79949645227741
46.04562447547112
45.55733577477684
48.48706797894255
50.73319600213626
50.24490730144198
52.19806210421912
53.66292820630198
54.24887464713512
55.03013656824598
54.83482108796826
56.7879758907454
58.25284199282826
57.86221103227283
58.936446173800256
59.62005035477226
61.37788967727169
62.84275577935454
62.45212481879911
63.526359960326545
64.20996414129854
64.01464866102083
64.01464866102083
64.01464866102083
64.01464866102083
64.01464866102083
63.91699092088197
61.08491645685512
58.8387884336614
59.32707713435569
55.32310978866255
52.39337758449683
48.291752498664835
44.38544289311055
45.26436255436027
39.307240405889985
34.91264209964141
35.79156176089113
30.811017013809415
27.1976806286717
22.21713588158999
17.627222095063708
18.60379949645228
12.646677347981994
8.252079041733426
9.228656443121995
4.248111696040284
0.537117570763714
-2.392614633401999
-5.517662317845426
-4.834058136873426
-9.71694514381628
-13.427939269092851
-12.549019607843137
-17.52956435492485
-21.24055848020142
-27.97894254978256
-34.131380178530556
-32.764171816586554
-44.48310063324941
-53.36995498588541
-51.31914244296941
-62.2568093385214
-70.36240177004655
-75.14763103685054
-80.71412222476539
-79.44457160296025
-82.56961928740368
-84.71808957045853
-84.22980086976425
-83.35088120851454
-82.56961928740368
-77.97970550087739
-74.17105363546197
-74.95231555657283
-69.9717708094911
-66.26077668421455
-67.13969634546426
-64.01464866102083
-61.86617837796597
-60.401312275883114
-58.74113069352254
-59.13176165407798
-55.22545204852369
-52.19806210421912
-52.881666285191116
-46.04562447547112
-40.86976424811169
-32.37354085603113
-24.756237125200276
-26.416418707560844
-14.599832150759136
-5.71297779812314
-7.666132600900283
3.1738765545128556
11.181811245899137
18.994430457007706
26.807049668116274
25.049210345616846
33.05714503700313
38.91660944533455
37.549401083390556
42.62760357061112
46.240939955748836
47.31517509727627
48.97535667963683
48.584725719081405
48.68238345922026
48.68238345922026
48.584725719081405
46.72922865644312
45.16670481422141
41.74868390936141
38.62363622491798
39.307240405889985
34.32669565880827
30.71335927367056
31.494621194781413
25.537499046311133
21.14290074006256
15.47875181200885
10.009918364232853
11.181811245899137
5.224689097428855
0.8300907911802854
1.8066681925688564
-5.0293736171511405
-10.10757610437171
-15.674067292286564
-21.14290074006256
-19.87335011825742
-25.92813000686656
-30.322728313115128
-29.346150911726557
-33.3501182574197
-36.27985046158541
-38.42832074464027
-40.772106507972836
-40.28381780727855
-42.33463035019455
-43.70183871213855
-43.40886549172198
-45.362020294499125
-46.826886396581976
-48.38941023880369
-49.951934081025406
-49.56130312046998
-50.53788052185855
-51.31914244296941
-51.123826962691695
-53.95590142671855
-56.20202944991226
-57.56923781185626
-59.13176165407798
-58.8387884336614
-60.79194323643854
-62.2568093385214
-61.86617837796597
-62.84275577935454
-63.6240177004654
-63.42870222018769
-63.42870222018769
-63.42870222018769
-62.45212481879911
-61.67086289768826
-61.768520637827116
-60.79194323643854
-60.01068131532769
-58.25284199282826
-56.690318150606544
-57.08094911116198
-54.053559166857404
-51.90508888380255
-52.39337758449683
-48.38941023880369
-45.45967803463798
-41.358052948805984
-37.4517433432517
-38.33066300450141
-31.396963454642556
-26.22110322728313
-27.392996108949415
-18.506141756313422
-11.865415426871138
-3.7598229953459983
3.8574807354848555
2.0996414129854277
12.060730907148852
19.385061417563133
17.724879835202564
27.68596932936599
35.010299839780274
39.99084458686198
45.55733577477684
44.38544289311055
48.38941023880369
51.31914244296941
50.635538261997404
52.6863508049134
54.15121690699626
53.760585946440834
53.85824368657969
53.760585946440834
52.881666285191116
52.10040436408026
52.19806210421912
50.24490730144198
48.78004119935912
48.09643701838712
47.31517509727627
47.51049057755398
46.43625543602655
45.75265125505455
45.85030899519341
44.873731593804834
44.09246967269398
43.311207751583126
42.529945830472265
42.62760357061112
41.651026169222554
40.86976424811169
41.065079728389414
40.08850232700084
39.307240405889985
37.549401083390556
35.98687724116884
36.37750820172427
33.3501182574197
31.201647974364842
31.68993667505913
27.68596932936599
24.756237125200276
20.654612039368278
16.748302433813993
17.627222095063708
12.646677347981994
8.935683222705425
9.81460288395514
4.834058136873426
1.1230640115968566
-1.7090104524299992
-4.931715877012284
-4.150453955901427
-8.154421301594567
-11.08415350576028
-10.400549324788281
-14.404516670481422
-17.334248874647134
-21.43587396047913
-25.342183566033416
-24.4632639047837
-28.467231250476843
-31.396963454642556
-30.71335927367056
-34.61966887922484
-37.549401083390556
-41.651026169222554
-45.55733577477684
-44.67841611352712
-52.49103532463569
-58.350499732967116
-57.08094911116198
-63.03807125963226
-67.43266956588083
-68.31158922713054
-69.9717708094911
-69.58113984893568
-68.70222018768597
-67.92095826657511
-68.11627374685283
-62.2568093385214
-57.86221103227283
-50.24490730144198
-43.311207751583126
-44.77607385366598
-35.889219501029984
-29.2484931715877
-30.71335927367056
-22.705424582284277
-16.84596017395285
-13.330281528953995
-9.326314183260854
-10.205233844510566
-6.201266498817426
-3.2715342946517127
-3.9551384756237127
0.04882887006942855
2.8809033340962844
6.005951018539712
9.130998702983138
8.44739452201114
11.47478446631571
13.623254749370565
13.13496604867628
16.16235599298085
18.310826276035705
19.775692378118563
21.338216220340275
20.947585259784848
21.045242999923705
21.045242999923705
21.045242999923705
20.068665598535134
19.287403677424276
16.55298695353628
14.306858930342566
14.795147631036851
11.865415426871138
9.619287403677424
10.10757610437171
6.201266498817426
3.2715342946517127
-0.7324330510414282
-4.638742656595713
-3.7598229953459983
-7.763790341039139
-10.693522545204852
-10.10757610437171
-13.037308308537423
-15.283436331731137
-17.627222095063708
-19.971007858396277
-19.385061417563133
-20.45929655909056
-21.24055848020142
-21.045242999923705
-22.021820401312276
-22.705424582284277
-22.60776684214542
-22.60776684214542
-22.60776684214542
-21.63118944075685
-20.84992751964599
-21.045242999923705
-20.068665598535134
-19.287403677424276
-17.52956435492485
-16.064698252841993
-16.357671473258563
-15.283436331731137
-14.599832150759136
-14.795147631036851
-14.697489890897993
-14.697489890897993
-15.674067292286564
-16.357671473258563
-16.260013733119706
-19.092088197146563
-21.338216220340275
-20.84992751964599
-22.803082322423133
-24.267948424505988
-26.807049668116274
-29.150835431448844
-28.564888990615703
-30.615701533531702
-32.08056763561456
-31.68993667505913
-32.764171816586554
-33.44777599755856
-32.37354085603113
-31.592278934920273
-31.787594415197987
-29.834439612420844
-28.369573510337986
-28.66254673075456
-23.779659723811704
-20.068665598535134
-15.185778591592278
-10.498207064927138
-11.572442206454566
-4.638742656595713
0.43945983062485694
-0.6347753109025711
5.224689097428855
9.619287403677424
14.404516670481422
19.092088197146563
18.017853055619135
23.974975204089418
28.369573510337986
27.392996108949415
31.396963454642556
34.32669565880827
36.475165941863125
38.91660944533455
38.33066300450141
40.38147554741741
41.84634164950027
41.45571068894484
42.43228809033341
43.21355001144427
43.018234531166556
43.018234531166556
43.018234531166556
42.04165712977798
41.26039520866713
41.45571068894484
38.525978484779124
36.27985046158541
33.93606469825284
31.592278934920273
32.08056763561456
28.174258030060273
25.146868085755703
25.830472266727703
21.826504921034562
18.89677271686885
14.795147631036851
10.888838025482567
11.767757686732281
7.763790341039139
4.834058136873426
5.517662317845426
1.513694972152285
-1.3183794918745708
-4.443427176317998
-7.568474860761425
-6.884870679789426
-9.912260624093996
-12.158388647287708
-11.670099946593423
-14.599832150759136
-16.748302433813993
-19.18974593728542
-21.533531700617992
-20.947585259784848
-22.998397802700847
-24.4632639047837
-24.072632944228275
-26.123445487144274
-27.588311589227132
-30.029755092698558
-32.37354085603113
-31.885252155336843
-32.86182955672541
-33.64309147783627
-33.44777599755856
-35.4009308003357
-36.86579690241855
-37.4517433432517
-38.23300526436255
-38.03768978408484
-39.014267185473415
-39.79552910658427
-39.600213626306555
-40.57679102769512
-41.26039520866713
-41.065079728389414
-41.16273746852827
-41.16273746852827
-41.065079728389414
-41.065079728389414
-41.065079728389414
-40.08850232700084
-39.307240405889985
-39.5025558861677
-39.5025558861677
-39.5025558861677
-41.358052948805984
-42.822919050888835
-42.43228809033341
-41.5533684290837
-40.772106507972836
-34.32669565880827
-29.053177691309987
-30.22507057297627
-18.506141756313422
-9.619287403677424
-11.572442206454566
2.0996414129854277
12.45136186770428
25.439841306172273
37.84237430380713
35.010299839780274
47.998779278248264
57.56923781185626
55.420767528801406
63.526359960326545
69.28816662851911
68.99519340810254
69.9717708094911
69.67879758907453
70.65537499046312
71.43663691157397
71.24132143129626
70.26474402990769
69.48348210879682
68.70222018768597
67.92095826657511
68.01861600671397
67.0420386053254
66.26077668421455
66.45609216449226
64.50293736171511
62.9404135194934
61.37788967727169
59.815365835049974
60.108339055466544
56.20202944991226
53.27229724574655
53.85824368657969
49.85427634088655
46.92454413672083
41.84634164950027
37.256427862973986
38.23300526436255
32.27588311589227
27.881284809643702
28.857862211032273
22.90074006256199
18.40848401617456
13.720912489509422
9.033340962844282
10.009918364232853
5.0293736171511405
1.416037232013428
2.197299153124285
-1.7090104524299992
-4.638742656595713
-7.763790341039139
-10.888838025482567
-10.205233844510566
-14.209201190203707
-17.13893339436942
-16.45532921339742
-20.45929655909056
-23.389028763256274
-25.537499046311133
-27.881284809643702
-27.392996108949415
-31.2993057145037
-34.22903791866941
-33.545433737697415
-36.57282368200198
-38.72129396505684
-41.16273746852827
-43.40886549172198
-42.92057679102769
-44.97138933394369
-46.33859769588769
-46.04562447547112
-47.0222018768597
-47.80346379797055
-48.584725719081405
-49.26832990005341
-49.073014419775696
-50.04959182116426
-50.83085374227512
-50.635538261997404
-50.635538261997404
-50.635538261997404
-49.658960860608836
-48.877698939497975
-49.073014419775696
-46.14328221560998
-43.89715419241627
-44.38544289311055
-41.358052948805984
-39.20958266575113
-36.768139162279695
-34.424353398947126
-34.91264209964141
-31.00633249408713
-28.076600289921416
-28.66254673075456
-24.756237125200276
-21.728847180895706
-18.60379949645228
-15.47875181200885
-16.16235599298085
-13.13496604867628
-10.986495765621424
-11.47478446631571
-9.42397192339971
-7.959105821316854
-5.420004577706569
-3.076218814373999
-3.5645075150682843
-2.5879301136797133
-1.8066681925688564
-2.0019836728465705
-1.9043259327077133
-1.9043259327077133
-2.8809033340962844
-3.662165255207141
-3.466849774929427
-4.443427176317998
-5.224689097428855
-5.0293736171511405
-6.982528419928283
-8.44739452201114
-9.033340962844282
-9.912260624093996
-9.71694514381628
-11.670099946593423
-13.13496604867628
-12.84199282825971
-14.795147631036851
-16.260013733119706
-17.82253757534142
-19.385061417563133
-18.994430457007706
-20.947585259784848
-22.412451361867703
-22.119478141451133
-23.096055542839704
-23.87731746395056
-25.63515678644999
-27.100022888532845
-26.807049668116274
-28.760204470893417
-30.22507057297627
-29.834439612420844
-30.908674753948272
-31.592278934920273
-33.3501182574197
-34.81498435950255
-34.52201113908598
-36.475165941863125
-37.94003204394598
-37.549401083390556
-39.600213626306555
-41.065079728389414
-42.62760357061112
-44.09246967269398
-43.79949645227741
-46.72922865644312
-48.877698939497975
-48.38941023880369
-50.44022278171969
-51.80743114366369
-53.36995498588541
-54.932478828107115
-54.54184786755169
-56.59266041046769
-57.95986877241169
-57.66689555199512
-57.764553292133975
-57.66689555199512
-56.690318150606544
-55.90905622949569
-56.1043717097734
-54.15121690699626
-52.6863508049134
-52.97932402532997
-50.928511482413974
-49.46364538033112
-46.92454413672083
-44.580758373388264
-45.069047074082555
-42.13931486991684
-39.893186846723125
-40.38147554741741
-36.475165941863125
-33.44777599755856
-32.178225375753414
-30.518043793392845
-30.908674753948272
-29.834439612420844
-29.150835431448844
-29.2484931715877
-25.439841306172273
-22.412451361867703
-16.45532921339742
-11.08415350576028
-12.256046387426567
-0.537117570763714
8.252079041733426
6.298924238956283
19.092088197146563
28.66254673075456
40.86976424811169
52.39337758449683
49.85427634088655
61.86617837796597
70.65537499046312
68.60456244754711
75.73357747768368
80.81177996490425
82.47196154726483
85.0110627908751
84.42511635004196
84.52277409018082
84.42511635004196
84.42511635004196
84.42511635004196
84.3274586099031
83.35088120851454
82.56961928740368
82.7649347676814
81.69069962615396
81.00709544518196
81.10475318532082
80.12817578393225
79.3469138628214
77.58907454032196
76.02655069810025
76.31952391851682
74.36636911573969
72.80384527351796
73.09681849393453
70.16708628976883
67.92095826657511
65.57717250324254
63.233386739909974
63.72167544060426
60.694285496299685
58.44815747310597
58.936446173800256
55.90905622949569
53.760585946440834
52.295719844357976
50.635538261997404
51.02616922255284
48.97535667963683
47.51049057755398
47.80346379797055
46.826886396581976
46.04562447547112
45.26436255436027
44.48310063324941
44.580758373388264
41.74868390936141
39.5025558861677
39.99084458686198
35.98687724116884
33.05714503700313
29.834439612420844
26.709391927977418
27.392996108949415
21.533531700617992
17.13893339436942
18.11551079575799
12.158388647287708
7.763790341039139
3.9551384756237127
0.04882887006942855
0.8300907911802854
-2.0996414129854277
-4.248111696040284
-3.7598229953459983
-3.8574807354848555
-3.8574807354848555
-2.0019836728465705
-0.43945983062485694
-0.8300907911802854
2.9785610742351416
5.908293278400855
5.322346837567712
9.228656443121995
12.158388647287708
15.381094071869994
18.506141756313422
17.724879835202564
21.728847180895706
24.65857938506142
23.974975204089418
27.002365148393988
29.150835431448844
31.592278934920273
33.838406958113985
33.3501182574197
35.4009308003357
36.768139162279695
36.475165941863125
38.42832074464027
39.893186846723125
40.479133287556266
41.358052948805984
41.16273746852827
42.13931486991684
42.822919050888835
42.62760357061112
42.72526131074998
42.62760357061112
42.62760357061112
42.62760357061112
42.62760357061112
41.651026169222554
40.86976424811169
41.065079728389414
40.96742198825055
40.96742198825055
39.99084458686198
39.307240405889985
39.40489814602884
37.4517433432517
35.98687724116884
36.27985046158541
34.32669565880827
32.86182955672541
29.346150911726557
26.22110322728313
26.90470740825513
22.998397802700847
19.971007858396277
20.654612039368278
14.795147631036851
10.302891584649425
6.591897459372854
2.5879301136797133
3.466849774929427
-1.416037232013428
-5.0293736171511405
-4.248111696040284
-9.228656443121995
-12.84199282825971
-16.84596017395285
-20.654612039368278
-19.87335011825742
-24.756237125200276
-28.467231250476843
-27.588311589227132
-31.592278934920273
-34.52201113908598
-37.64705882352941
-40.772106507972836
-40.08850232700084
-43.11589227130541
-45.26436255436027
-44.77607385366598
-46.72922865644312
-48.19409475852598
-48.877698939497975
-49.658960860608836
-49.46364538033112
-49.46364538033112
-49.46364538033112
-49.46364538033112
-49.365987640192266
-49.365987640192266
-48.38941023880369
-47.705806057831694
-47.80346379797055
-45.85030899519341
-44.38544289311055
-44.67841611352712
-41.74868390936141
-39.5025558861677
-36.182192721446555
-33.05714503700313
-33.74074921797513
-28.857862211032273
-25.146868085755703
-25.92813000686656
-20.947585259784848
-17.334248874647134
-13.330281528953995
-9.42397192339971
-10.302891584649425
-5.322346837567712
-1.6113527122911422
-2.490272373540856
2.392614633401999
6.103608758678568
5.224689097428855
5.420004577706569
5.420004577706569
2.490272373540856
0.34180209048599985
0.8300907911802854
-3.076218814373999
-6.005951018539712
-6.298924238956283
-7.177843900205997
-6.982528419928283
-6.982528419928283
-6.982528419928283
-6.982528419928283
-5.127031357289998
-3.5645075150682843
0.7324330510414282
4.541084916456855
3.662165255207141
7.666132600900283
10.595864805065995
10.009918364232853
9.130998702983138
8.349736781872283
4.736400396734569
1.7090104524299992
2.392614633401999
-0.537117570763714
-2.68558785381857
-2.197299153124285
-6.201266498817426
-9.130998702983138
-12.256046387426567
-15.381094071869994
-14.697489890897993
-19.58037689784085
-23.291371023117417
-22.412451361867703
-26.416418707560844
-29.346150911726557
-32.56885633630884
-35.596246280613414
-34.91264209964141
-37.94003204394598
-40.08850232700084
-39.600213626306555
-43.50652323186084
-46.43625543602655
-48.68238345922026
-51.02616922255284
-50.44022278171969
-53.467612726024264
-55.61608300907912
-55.127794308384836
-56.20202944991226
-56.88563363088426
-56.690318150606544
-56.690318150606544
-56.690318150606544
-56.690318150606544
-56.690318150606544
-56.59266041046769
-56.59266041046769
-56.59266041046769
-56.59266041046769
-56.59266041046769
-56.49500267032883
-55.51842526894026
-54.83482108796826
-54.932478828107115
-53.95590142671855
-53.17463950560769
-52.39337758449683
-51.61211566338598
-51.709773403524835
-48.78004119935912
-46.63157091630426
-47.0222018768597
-43.11589227130541
-40.186160067139696
-35.98687724116884
-32.178225375753414
-33.05714503700313
-27.100022888532845
-22.705424582284277
-23.682001983672848
-16.748302433813993
-11.572442206454566
-6.005951018539712
-0.537117570763714
-1.8066681925688564
4.150453955901427
8.545052262149996
7.568474860761425
12.549019607843137
16.16235599298085
19.18974593728542
22.314793621728846
21.63118944075685
23.682001983672848
25.146868085755703
24.756237125200276
24.853894865339132
24.853894865339132
24.853894865339132
24.853894865339132
24.853894865339132
24.756237125200276
24.756237125200276
24.756237125200276
23.779659723811704
23.096055542839704
21.338216220340275
19.775692378118563
20.16632333867399
19.092088197146563
18.310826276035705
18.506141756313422
15.576409552147707
13.427939269092851
11.963073167009995
10.400549324788281
10.693522545204852
6.787212939650568
3.8574807354848555
4.541084916456855
2.490272373540856
1.0254062714579995
-1.416037232013428
-3.7598229953459983
-3.2715342946517127
-4.345769436179141
-5.0293736171511405
-4.834058136873426
-6.787212939650568
-8.252079041733426
-7.959105821316854
-8.05676356145571
-7.959105821316854
-7.959105821316854
-7.959105821316854
-7.959105821316854
-7.959105821316854
-7.959105821316854
-7.959105821316854
-7.959105821316854
-7.959105821316854
-7.959105821316854
-7.959105821316854
-7.959105821316854
-7.959105821316854
-7.959105821316854
-7.959105821316854
-7.959105821316854
-7.959105821316854
-8.935683222705425
-9.619287403677424
-9.521629663538567
-9.521629663538567
-9.521629663538567
-9.521629663538567
-9.521629663538567
-9.521629663538567
-9.521629663538567
-9.521629663538567
-9.521629663538567
-8.545052262149996
-7.763790341039139
-5.127031357289998
-2.783245593957427
-3.2715342946517127
0.537117570763714
3.466849774929427
2.783245593957427
6.787212939650568
9.71694514381628
14.795147631036851
19.385061417563133
18.310826276035705
24.267948424505988
28.66254673075456
27.68596932936599
33.64309147783627
38.03768978408484
40.86976424811169
43.99481193255512
43.311207751583126
47.31517509727627
50.24490730144198
49.56130312046998
50.635538261997404
51.31914244296941
50.14724956130312
49.46364538033112
49.56130312046998
46.72922865644312
44.48310063324941
44.97138933394369
40.96742198825055
38.03768978408484
32.95948729686427
28.369573510337986
29.346150911726557
20.55695429922942
13.916227969787137
15.381094071869994
7.373159380483711
1.513694972152285
-1.9043259327077133
-5.908293278400855
-4.931715877012284
-6.103608758678568
-6.787212939650568
-6.6895551995117115
-5.71297779812314
-5.0293736171511405
-2.2949568932631417
-0.04882887006942855
-0.537117570763714
2.392614633401999
4.541084916456855
4.052796215762569
4.150453955901427
4.150453955901427
2.197299153124285
0.7324330510414282
1.1230640115968566
-1.7090104524299992
-3.9551384756237127
-3.466849774929427
-6.494239719233997
-8.642710002288853
-10.986495765621424
-13.330281528953995
-12.84199282825971
-15.771725032425422
-18.017853055619135
-17.52956435492485
-19.48271915770199
-20.947585259784848
-22.510109102006563
-24.072632944228275
-23.779659723811704
-25.732814526588847
-27.1976806286717
-26.807049668116274
-27.881284809643702
-28.564888990615703
-30.322728313115128
-31.885252155336843
-31.494621194781413
-33.44777599755856
-34.91264209964141
-34.61966887922484
-35.596246280613414
-36.27985046158541
-37.06111238269627
-37.84237430380713
-37.64705882352941
-36.768139162279695
-35.98687724116884
-36.182192721446555
-35.10795757991913
-34.424353398947126
-30.71335927367056
-27.68596932936599
-28.369573510337986
-23.48668650339513
-19.775692378118563
-20.55695429922942
-14.697489890897993
-10.205233844510566
-4.541084916456855
0.8300907911802854
-0.34180209048599985
5.615320057984283
10.009918364232853
9.033340962844282
14.892805371175708
19.385061417563133
23.096055542839704
27.100022888532845
26.22110322728313
31.103990234225986
34.81498435950255
33.93606469825284
36.96345464255741
39.20958266575113
41.5533684290837
43.89715419241627
43.311207751583126
44.38544289311055
45.069047074082555
44.873731593804834
44.97138933394369
44.873731593804834
43.99481193255512
43.21355001144427
43.311207751583126
40.38147554741741
38.23300526436255
38.72129396505684
36.67048142214084
35.20561532005799
32.6665140764477
30.322728313115128
30.811017013809415
27.783627069504846
25.63515678644999
26.123445487144274
24.072632944228275
22.60776684214542
21.045242999923705
19.48271915770199
19.775692378118563
17.82253757534142
16.357671473258563
16.650644693675137
13.720912489509422
11.47478446631571
10.10757610437171
8.44739452201114
8.838025482566568
5.908293278400855
3.662165255207141
4.150453955901427
1.2207217517357138
-0.9277485313191425
-2.392614633401999
-3.9551384756237127
-3.5645075150682843
-5.615320057984283
-7.080186160067139
-6.6895551995117115
-8.74036774242771
-10.205233844510566
-10.79118028534371
-11.572442206454566
-11.377126726176853
-11.47478446631571
-11.47478446631571
-11.47478446631571
-10.498207064927138
-9.71694514381628
-9.912260624093996
-9.81460288395514
-9.81460288395514
-8.935683222705425
-8.154421301594567
-8.349736781872283
-6.39658197909514
-4.931715877012284
-4.248111696040284
-3.466849774929427
-3.662165255207141
-0.7324330510414282
1.416037232013428
0.9277485313191425
3.8574807354848555
6.103608758678568
9.42397192339971
12.45136186770428
11.767757686732281
15.771725032425422
18.701457236591136
18.017853055619135
22.021820401312276
24.95155260547799
29.053177691309987
32.86182955672541
31.9829098954757
35.98687724116884
38.91660944533455
38.23300526436255
42.236972610055695
45.16670481422141
47.31517509727627
49.75661860074769
49.17067215991455
51.22148470283055
52.588693064774546
52.295719844357976
53.27229724574655
53.95590142671855
53.85824368657969
53.85824368657969
53.85824368657969
51.90508888380255
50.44022278171969
50.73319600213626
49.658960860608836
48.877698939497975
47.11985961699855
45.654993514915695
45.947966735332265
43.99481193255512
42.43228809033341
42.822919050888835
40.772106507972836
39.307240405889985
34.81498435950255
31.00633249408713
31.885252155336843
24.95155260547799
19.87335011825742
20.947585259784848
14.013885709925994
8.838025482566568
7.177843900205997
4.638742656595713
5.224689097428855
4.150453955901427
3.466849774929427
3.5645075150682843
6.39658197909514
8.642710002288853
12.939650568398566
16.748302433813993
15.869382772564279
20.84992751964599
24.4632639047837
23.682001983672848
24.853894865339132
25.537499046311133
22.510109102006563
20.263981078812847
20.752269779507134
17.82253757534142
15.576409552147707
16.064698252841993
11.181811245899137
7.470817120622568
2.5879301136797133
-2.0019836728465705
-0.9277485313191425
-7.861448081177996
-13.037308308537423
-11.865415426871138
-17.82253757534142
-22.21713588158999
-27.881284809643702
-33.3501182574197
-32.08056763561456
-37.15877012283513
-40.772106507972836
-39.99084458686198
-43.99481193255512
-46.826886396581976
-48.09643701838712
-49.75661860074769
-49.365987640192266
-49.365987640192266
-49.365987640192266
-49.365987640192266
-47.412832837415124
-45.947966735332265
-43.40886549172198
-41.065079728389414
-41.5533684290837
-36.67048142214084
-32.95948729686427
-33.74074921797513
-27.881284809643702
-23.48668650339513
-17.724879835202564
-12.353704127565424
-13.525597009231708
-4.638742656595713
1.9043259327077133
0.43945983062485694
10.302891584649425
17.627222095063708
24.560921644922562
31.592278934920273
30.029755092698558
37.06111238269627
42.13931486991684
41.065079728389414
46.04562447547112
49.658960860608836
49.85427634088655
50.73319600213626
50.53788052185855
49.56130312046998
48.78004119935912
48.97535667963683
45.069047074082555
42.13931486991684
38.91660944533455
35.79156176089113
36.475165941863125
32.471198596169984
29.541466392004274
30.22507057297627
26.22110322728313
23.291371023117417
19.18974593728542
15.283436331731137
16.16235599298085
13.037308308537423
10.888838025482567
11.377126726176853
8.349736781872283
6.201266498817426
4.736400396734569
3.1738765545128556
3.5645075150682843
1.513694972152285
0.04882887006942855
0.43945983062485694
-0.537117570763714
-1.2207217517357138
-1.1230640115968566
-1.1230640115968566
-1.1230640115968566
-2.0996414129854277
-2.783245593957427
-2.68558785381857
-3.662165255207141
-4.345769436179141
-6.103608758678568
-7.666132600900283
-7.275501640344854
-9.326314183260854
-10.79118028534371
-10.400549324788281
-12.353704127565424
-13.81857022964828
-16.357671473258563
-18.701457236591136
-18.21316853589685
-22.119478141451133
-25.049210345616846
-24.365606164644845
-27.392996108949415
-29.541466392004274
-32.86182955672541
-35.98687724116884
-35.303273060196844
-37.35408560311284
-38.72129396505684
-38.42832074464027
-39.40489814602884
-40.186160067139696
-39.99084458686198
-39.99084458686198
-39.99084458686198
-37.06111238269627
-34.81498435950255
-35.303273060196844
-32.37354085603113
-30.127412832837415
-24.853894865339132
-20.361638818951704
-21.338216220340275
-13.427939269092851
-7.568474860761425
-8.838025482566568
0.04882887006942855
6.494239719233997
14.599832150759136
22.314793621728846
20.654612039368278
28.66254673075456
34.52201113908598
33.15480277714199
41.065079728389414
46.92454413672083
51.31914244296941
56.1043717097734
55.03013656824598
57.178606851300835
58.54581521324483
58.25284199282826
59.22941939421683
59.91302357518883
57.86221103227283
56.39734493018997
56.690318150606544
54.639505607690545
53.17463950560769
53.467612726024264
49.56130312046998
46.63157091630426
43.40886549172198
40.28381780727855
40.96742198825055
36.0845349813077
32.37354085603113
33.15480277714199
28.174258030060273
24.560921644922562
20.55695429922942
16.650644693675137
17.52956435492485
12.549019607843137
8.838025482566568
9.71694514381628
4.736400396734569
1.0254062714579995
-4.736400396734569
-10.10757610437171
-8.838025482566568
-18.701457236591136
-26.025787747005417
-24.365606164644845
-31.494621194781413
-36.57282368200198
-40.186160067139696
-44.09246967269398
-43.21355001144427
-44.38544289311055
-45.069047074082555
-44.873731593804834
-43.018234531166556
-41.45571068894484
-38.03768978408484
-34.91264209964141
-35.596246280613414
-31.592278934920273
-28.66254673075456
-29.346150911726557
-27.295338368810558
-25.830472266727703
-27.100022888532845
-27.68596932936599
-27.588311589227132
-28.564888990615703
-29.2484931715877
-29.150835431448844
-30.127412832837415
-30.811017013809415
-30.615701533531702
-30.71335927367056
-30.615701533531702
-28.760204470893417
-27.1976806286717
-27.588311589227132
-23.682001983672848
-20.654612039368278
-16.55298695353628
-12.74433508812085
-13.525597009231708
-6.6895551995117115
-1.513694972152285
-2.68558785381857
6.103608758678568
12.74433508812085
19.775692378118563
26.807049668116274
25.24452582589456
34.22903791866941
40.772106507972836
39.307240405889985
48.19409475852598
54.83482108796826
60.987258716716255
67.23735408560312
65.77248798352025
70.85069047074083
74.46402685587854
73.68276493476768
77.58907454032196
80.51880674448768
80.81177996490425
81.69069962615396
81.39772640573739
79.54222934309911
78.07736324101626
78.37033646143283
75.34294651712825
73.09681849393453
68.79987792782482
64.9912260624094
65.77248798352025
59.91302357518883
55.420767528801406
56.39734493018997
49.46364538033112
44.28778515297169
38.818951705195694
33.3501182574197
34.52201113908598
27.588311589227132
22.412451361867703
23.58434424353399
17.52956435492485
13.13496604867628
8.349736781872283
3.7598229953459983
4.736400396734569
0.7324330510414282
-2.0996414129854277
-1.513694972152285
-5.420004577706569
-8.349736781872283
-11.572442206454566
-14.599832150759136
-13.916227969787137
-16.943617914091707
-19.18974593728542
-18.701457236591136
-21.63118944075685
-23.779659723811704
-25.24452582589456
-26.807049668116274
-26.416418707560844
-28.467231250476843
-29.9320973525597
-29.541466392004274
-31.494621194781413
-32.95948729686427
-32.6665140764477
-32.764171816586554
-32.6665140764477
-32.6665140764477
-32.6665140764477
-32.6665140764477
-32.6665140764477
-32.6665140764477
-32.6665140764477
-32.6665140764477
-32.56885633630884
-32.56885633630884
-32.56885633630884
-32.56885633630884
-31.592278934920273
-30.908674753948272
-29.150835431448844
-27.588311589227132
-27.881284809643702
-24.95155260547799
-22.705424582284277
-23.19371328297856
-18.310826276035705
-14.599832150759136
-10.693522545204852
-6.787212939650568
-7.666132600900283
-0.7324330510414282
4.248111696040284
3.1738765545128556
10.986495765621424
16.943617914091707
24.17029068436713
31.201647974364842
29.63912413214313
37.549401083390556
43.40886549172198
42.13931486991684
49.073014419775696
54.15121690699626
57.764553292133975
61.768520637827116
60.8896009765774
63.91699092088197
66.06546120393683
65.57717250324254
66.55374990463112
67.33501182574197
65.18654154268711
63.72167544060426
64.01464866102083
60.108339055466544
57.178606851300835
57.764553292133975
52.881666285191116
49.17067215991455
44.19012741283284
39.600213626306555
40.57679102769512
34.61966887922484
30.22507057297627
31.201647974364842
25.24452582589456
20.84992751964599
17.041275654230564
13.037308308537423
13.916227969787137
8.05676356145571
3.5645075150682843
4.541084916456855
-1.3183794918745708
-5.71297779812314
-9.521629663538567
-13.427939269092851
-12.549019607843137
-17.52956435492485
-21.14290074006256
-20.361638818951704
-25.24452582589456
-28.95551995117113
-32.86182955672541
-36.768139162279695
-35.889219501029984
-40.86976424811169
-44.48310063324941
-43.70183871213855
-48.584725719081405
-52.295719844357976
-57.178606851300835
-61.768520637827116
-60.694285496299685
-68.60456244754711
-74.46402685587854
-73.09681849393453
-80.03051804379339
-85.20637827115281
-86.8665598535134
-89.30800335698481
-88.72205691615167
-87.94079499504082
-87.06187533379111
-87.25719081406882
-83.35088120851454
-80.32349126420996
-73.3897917143511
-67.23735408560312
-68.60456244754711
-60.59662775616083
-54.7371633478294
-56.006713969634546
-49.951934081025406
-45.55733577477684
-42.72526131074998
-39.5025558861677
-40.186160067139696
-35.303273060196844
-31.592278934920273
-32.37354085603113
-25.537499046311133
-20.361638818951704
-13.81857022964828
-7.666132600900283
-9.033340962844282
-1.1230640115968566
4.736400396734569
3.36919203479057
10.400549324788281
15.47875181200885
20.068665598535134
24.756237125200276
23.682001983672848
28.760204470893417
32.37354085603113
31.592278934920273
34.61966887922484
36.768139162279695
38.1353475242237
39.79552910658427
39.40489814602884
40.38147554741741
41.16273746852827
40.96742198825055
39.99084458686198
39.20958266575113
37.4517433432517
35.98687724116884
36.27985046158541
33.3501182574197
31.103990234225986
31.592278934920273
27.68596932936599
24.65857938506142
20.55695429922942
16.748302433813993
17.52956435492485
13.525597009231708
10.595864805065995
11.279468986037996
6.298924238956283
2.68558785381857
-1.2207217517357138
-5.127031357289998
-4.248111696040284
-9.228656443121995
-12.84199282825971
-12.060730907148852
-16.943617914091707
-20.654612039368278
-23.682001983672848
-26.807049668116274
-26.123445487144274
-30.029755092698558
-32.95948729686427
-32.27588311589227
-35.303273060196844
-37.4517433432517
-39.893186846723125
-42.13931486991684
-41.651026169222554
-43.70183871213855
-45.069047074082555
-44.77607385366598
-46.72922865644312
-48.19409475852598
-48.78004119935912
-49.56130312046998
-49.365987640192266
-51.31914244296941
-52.78400854505226
-52.49103532463569
-54.44419012741283
-55.90905622949569
-57.471580071717405
-58.936446173800256
-58.643472953383686
-61.5732051575494
-63.72167544060426
-63.233386739909974
-66.16311894407569
-68.31158922713054
-70.75303273060197
-72.99916075379568
-72.5108720531014
-75.44060425726711
-77.58907454032196
-77.10078583962768
-78.17502098115511
-78.85862516212711
-77.68673228046082
-77.00312809948882
-77.10078583962768
-73.19447623407339
-70.26474402990769
-70.85069047074083
-66.84672312504769
-63.91699092088197
-58.8387884336614
-54.24887464713512
-55.22545204852369
-49.26832990005341
-44.77607385366598
-45.75265125505455
-39.79552910658427
-35.4009308003357
-31.592278934920273
-27.68596932936599
-28.564888990615703
-23.58434424353399
-19.87335011825742
-20.654612039368278
-16.650644693675137
-13.720912489509422
-11.47478446631571
-9.130998702983138
-9.71694514381628
-7.666132600900283
-6.201266498817426
-6.494239719233997
-5.517662317845426
-4.736400396734569
-3.9551384756237127
-3.1738765545128556
-3.36919203479057
-2.392614633401999
-1.6113527122911422
-1.8066681925688564
-0.8300907911802854
-0.04882887006942855
0.6347753109025711
1.416037232013428
1.2207217517357138
1.3183794918745708
1.3183794918745708
1.3183794918745708
0.34180209048599985
-0.34180209048599985
-1.1230640115968566
-1.9043259327077133
-1.7090104524299992
-3.662165255207141
-5.127031357289998
-4.834058136873426
-6.787212939650568
-8.252079041733426
-8.838025482566568
-9.71694514381628
-9.521629663538567
-10.498207064927138
-11.279468986037996
-11.08415350576028
-11.08415350576028
-11.08415350576028
-12.060730907148852
-12.74433508812085
-12.646677347981994
-12.646677347981994
-12.646677347981994
-12.646677347981994
-13.623254749370565
-14.306858930342566
-16.064698252841993
-17.52956435492485
-17.236591134508277
-21.14290074006256
-24.072632944228275
-23.389028763256274
-26.416418707560844
-28.564888990615703
-34.81498435950255
-40.08850232700084
-38.91660944533455
-46.72922865644312
-52.588693064774546
-51.31914244296941
-59.22941939421683
-65.08888380254825
-66.65140764476998
-69.0928511482414
-68.50690470740825
-68.60456244754711
-68.60456244754711
-68.60456244754711
-62.84275577935454
-58.350499732967116
-50.73319600213626
-43.79949645227741
-45.362020294499125
-33.545433737697415
-24.65857938506142
-26.61173418783856
-15.674067292286564
-7.568474860761425
1.0254062714579995
9.619287403677424
7.666132600900283
20.45929655909056
30.029755092698558
27.881284809643702
39.79552910658427
48.68238345922026
57.178606851300835
65.77248798352025
63.819333180743115
72.80384527351796
79.3469138628214
77.88204776073853
81.98367284657053
84.91340505073624
86.08529793240254
87.7454795147631
87.35484855420768
86.47592889295797
85.59700923170824
85.79232471198596
82.86259250782025
80.61646448462653
77.29610131990539
74.17105363546197
74.85465781643397
71.8272678721294
69.58113984893568
70.06942854962998
66.06546120393683
63.13572899977112
61.86617837796597
60.2059967956054
60.49897001602197
58.54581521324483
57.08094911116198
57.37392233157855
55.32310978866255
53.85824368657969
52.295719844357976
50.73319600213626
51.02616922255284
48.09643701838712
45.85030899519341
46.33859769588769
43.311207751583126
41.065079728389414
39.69787136644541
38.03768978408484
38.42832074464027
35.49858854047456
33.252460517280845
33.74074921797513
31.68993667505913
30.22507057297627
27.68596932936599
25.342183566033416
25.830472266727703
23.779659723811704
22.314793621728846
22.705424582284277
19.775692378118563
17.52956435492485
15.088120851453422
12.84199282825971
13.330281528953995
9.326314183260854
6.39658197909514
7.080186160067139
4.052796215762569
1.9043259327077133
-1.3183794918745708
-4.443427176317998
-3.7598229953459983
-6.787212939650568
-8.935683222705425
-8.44739452201114
-9.521629663538567
-10.205233844510566
-10.10757610437171
-10.10757610437171
-10.10757610437171
-9.130998702983138
-8.44739452201114
-8.545052262149996
-4.736400396734569
-1.7090104524299992
1.3183794918745708
4.443427176317998
3.7598229953459983
8.642710002288853
12.353704127565424
11.47478446631571
15.47875181200885
18.40848401617456
21.63118944075685
24.756237125200276
23.974975204089418
26.025787747005417
27.49065384908827
27.1976806286717
29.150835431448844
30.615701533531702
31.201647974364842
32.08056763561456
31.885252155336843
31.885252155336843
31.885252155336843
31.885252155336843
31.885252155336843
31.787594415197987
32.764171816586554
33.545433737697415
33.3501182574197
32.37354085603113
31.592278934920273
31.787594415197987
29.834439612420844
28.369573510337986
25.830472266727703
23.48668650339513
23.974975204089418
19.092088197146563
15.381094071869994
16.260013733119706
11.279468986037996
7.568474860761425
2.68558785381857
-1.9043259327077133
-0.8300907911802854
-5.810635538261997
-9.521629663538567
-8.642710002288853
-13.623254749370565
-17.334248874647134
-20.263981078812847
-23.48668650339513
-22.705424582284277
-26.709391927977418
-29.63912413214313
-28.95551995117113
-31.00633249408713
-32.471198596169984
-34.0337224383917
-35.596246280613414
-35.20561532005799
-36.27985046158541
-36.96345464255741
-36.768139162279695
-37.74471656366827
-38.525978484779124
-38.33066300450141
-38.33066300450141
-38.33066300450141
-39.20958266575113
-39.99084458686198
-39.79552910658427
-39.79552910658427
-39.79552910658427
-39.79552910658427
-39.79552910658427
-39.79552910658427
-39.79552910658427
-39.79552910658427
-39.69787136644541
-38.72129396505684
-38.03768978408484
-35.303273060196844
-33.05714503700313
-33.545433737697415
-30.518043793392845
-28.369573510337986
-28.760204470893417
-25.830472266727703
-23.58434424353399
-23.096055542839704
-22.314793621728846
-22.412451361867703
-24.365606164644845
-25.830472266727703
-25.439841306172273
-25.537499046311133
-25.537499046311133
-22.60776684214542
-20.361638818951704
-20.84992751964599
-15.088120851453422
-10.595864805065995
-11.572442206454566
-2.783245593957427
3.7598229953459983
12.74433508812085
21.24055848020142
19.385061417563133
30.322728313115128
38.33066300450141
36.57282368200198
42.62760357061112
47.0222018768597
47.0222018768597
47.90112153810941
47.705806057831694
47.705806057831694
47.705806057831694
47.705806057831694
45.75265125505455
44.28778515297169
41.74868390936141
39.40489814602884
39.893186846723125
35.010299839780274
31.2993057145037
32.178225375753414
27.1976806286717
23.48668650339513
19.48271915770199
15.576409552147707
16.45532921339742
11.47478446631571
7.861448081177996
8.642710002288853
4.638742656595713
1.7090104524299992
-1.3183794918745708
-4.443427176317998
-3.7598229953459983
-7.763790341039139
-10.693522545204852
-10.009918364232853
-12.060730907148852
-13.525597009231708
-16.064698252841993
-18.40848401617456
-17.82253757534142
-19.87335011825742
-21.338216220340275
-20.947585259784848
-22.998397802700847
-24.4632639047837
-26.025787747005417
-27.588311589227132
-27.1976806286717
-28.174258030060273
-28.95551995117113
-28.760204470893417
-30.71335927367056
-32.178225375753414
-32.764171816586554
-33.545433737697415
-33.3501182574197
-33.44777599755856
-33.44777599755856
-33.3501182574197
-34.32669565880827
-35.10795757991913
-34.91264209964141
-34.91264209964141
-34.91264209964141
-35.889219501029984
-36.57282368200198
-36.37750820172427
-35.49858854047456
-34.717326619363696
-33.93606469825284
-33.15480277714199
-33.252460517280845
-32.27588311589227
-31.494621194781413
-31.68993667505913
-28.760204470893417
-26.514076447699704
-25.146868085755703
-23.48668650339513
-23.87731746395056
-20.947585259784848
-18.701457236591136
-19.18974593728542
-15.283436331731137
-12.256046387426567
-10.10757610437171
-7.666132600900283
-8.252079041733426
-4.345769436179141
-1.3183794918745708
-2.0019836728465705
1.9043259327077133
4.834058136873426
8.935683222705425
12.74433508812085
11.865415426871138
14.990463111314565
17.13893339436942
16.650644693675137
19.58037689784085
21.826504921034562
22.314793621728846
23.096055542839704
22.90074006256199
22.998397802700847
22.90074006256199
22.90074006256199
21.045242999923705
19.48271915770199
16.943617914091707
14.697489890897993
15.185778591592278
11.279468986037996
8.349736781872283
8.935683222705425
5.0293736171511405
2.0019836728465705
-1.0254062714579995
-4.150453955901427
-3.466849774929427
-6.494239719233997
-8.642710002288853
-8.154421301594567
-11.08415350576028
-13.330281528953995
-15.674067292286564
-18.017853055619135
-17.52956435492485
-20.45929655909056
-22.705424582284277
-22.21713588158999
-24.17029068436713
-25.63515678644999
-27.1976806286717
-28.760204470893417
-28.369573510337986
-29.443808651865414
-30.127412832837415
-30.029755092698558
-31.00633249408713
-31.68993667505913
-32.471198596169984
-33.252460517280845
-33.05714503700313
-34.0337224383917
-34.717326619363696
-34.61966887922484
-35.596246280613414
-36.27985046158541
-37.06111238269627
-37.84237430380713
-37.64705882352941
-37.64705882352941
-37.64705882352941
-37.64705882352941
-38.62363622491798
-39.307240405889985
-40.08850232700084
-40.86976424811169
-40.67444876783398
-40.67444876783398
-40.67444876783398
-40.67444876783398
-41.651026169222554
-42.33463035019455
-41.26039520866713
-40.479133287556266
-40.67444876783398
-39.600213626306555
-38.91660944533455
-39.014267185473415
-37.06111238269627
-35.596246280613414
-33.05714503700313
-30.71335927367056
-31.201647974364842
-27.295338368810558
-24.365606164644845
-24.95155260547799
-20.068665598535134
-16.357671473258563
-15.283436331731137
-13.623254749370565
-14.013885709925994
-14.795147631036851
-15.576409552147707
-15.381094071869994
-15.47875181200885
