ppg
-14.892805371175708
-17.334248874647134
-19.58037689784085
-19.092088197146563
-21.14290074006256
-22.60776684214542
-22.21713588158999
-24.17029068436713
-25.63515678644999
-26.318760967421987
-27.100022888532845
-26.90470740825513
-27.881284809643702
-28.66254673075456
-28.467231250476843
-29.443808651865414
-30.127412832837415
-30.908674753948272
-31.68993667505913
-31.494621194781413
-32.471198596169984
-33.252460517280845
-33.05714503700313
-33.05714503700313
-33.05714503700313
-33.05714503700313
-33.05714503700313
-33.05714503700313
-31.103990234225986
-29.63912413214313
-29.9320973525597
-26.025787747005417
-23.096055542839704
-19.87335011825742
-16.748302433813993
-17.43190661478599
-11.572442206454566
-7.177843900205997
-8.154421301594567
-2.197299153124285
2.0996414129854277
6.884870679789426
11.572442206454566
10.498207064927138
15.47875181200885
19.18974593728542
18.310826276035705
24.267948424505988
28.66254673075456
31.494621194781413
34.61966887922484
33.93606469825284
37.94003204394598
40.86976424811169
40.186160067139696
44.09246967269398
47.0222018768597
48.291752498664835
49.85427634088655
49.46364538033112
50.53788052185855
51.22148470283055
51.02616922255284
51.123826962691695
51.02616922255284
50.04959182116426
49.365987640192266
49.46364538033112
47.51049057755398
46.04562447547112
46.33859769588769
43.40886549172198
41.16273746852827
38.818951705195694
36.475165941863125
36.96345464255741
33.93606469825284
31.68993667505913
32.178225375753414
29.2484931715877
27.002365148393988
23.682001983672848
20.55695429922942
21.24055848020142
18.21316853589685
16.064698252841993
16.55298695353628
13.525597009231708
11.377126726176853
8.935683222705425
6.591897459372854
7.177843900205997
4.150453955901427
2.0019836728465705
2.490272373540856
-0.43945983062485694
-2.5879301136797133
-5.0293736171511405
-7.373159380483711
-6.787212939650568
-8.838025482566568
-10.302891584649425
-10.009918364232853
-12.939650568398566
-15.088120851453422
-16.55298695353628
-18.11551079575799
-17.724879835202564
-19.775692378118563
-21.24055848020142
-20.84992751964599
-22.803082322423133
-24.267948424505988
-23.974975204089418
-24.072632944228275
-23.974975204089418
-23.974975204089418
-23.974975204089418
-23.974975204089418
-21.14290074006256
-18.89677271686885
-13.623254749370565
-9.033340962844282
-10.10757610437171
-3.1738765545128556
1.9043259327077133
0.7324330510414282
7.666132600900283
12.84199282825971
19.287403677424276
25.439841306172273
24.072632944228275
26.318760967421987
27.68596932936599
27.392996108949415
26.514076447699704
25.732814526588847
22.998397802700847
20.752269779507134
21.24055848020142
19.18974593728542
17.724879835202564
18.11551079575799
18.994430457007706
19.678034637979707
22.412451361867703
24.65857938506142
24.17029068436713
29.9320973525597
34.424353398947126
33.44777599755856
38.42832074464027
42.04165712977798
42.13931486991684
43.11589227130541
42.822919050888835
39.99084458686198
37.74471656366827
38.23300526436255
36.182192721446555
34.717326619363696
33.15480277714199
31.592278934920273
31.885252155336843
29.9320973525597
28.467231250476843
28.760204470893417
26.807049668116274
25.342183566033416
22.803082322423133
20.45929655909056
20.947585259784848
18.89677271686885
17.43190661478599
17.82253757534142
14.795147631036851
12.646677347981994
11.181811245899137
9.619287403677424
9.912260624093996
7.959105821316854
6.494239719233997
6.787212939650568
5.810635538261997
5.0293736171511405
3.2715342946517127
1.8066681925688564
2.0996414129854277
1.1230640115968566
0.34180209048599985
0.537117570763714
-1.3183794918745708
-2.783245593957427
-3.466849774929427
-4.248111696040284
-4.052796215762569
-6.005951018539712
-7.470817120622568
-7.177843900205997
-8.154421301594567
-8.935683222705425
-9.71694514381628
-10.498207064927138
-10.302891584649425
-10.302891584649425
-10.302891584649425
-10.302891584649425
-11.279468986037996
-11.963073167009995
-12.74433508812085
-13.525597009231708
-13.330281528953995
-14.404516670481422
-15.088120851453422
-14.892805371175708
-14.990463111314565
-14.990463111314565
-14.013885709925994
-13.232623788815136
-13.427939269092851
-11.47478446631571
-10.009918364232853
-10.302891584649425
-8.349736781872283
-6.884870679789426
-5.224689097428855
-3.662165255207141
-4.052796215762569
-2.9785610742351416
-2.2949568932631417
-2.490272373540856
-1.416037232013428
-0.7324330510414282
0.04882887006942855
0.7324330510414282
0.537117570763714
-0.24414435034714274
-1.0254062714579995
-0.8300907911802854
-1.8066681925688564
-2.5879301136797133
-3.36919203479057
-4.150453955901427
-3.9551384756237127
-4.931715877012284
-5.615320057984283
-5.517662317845426
-7.470817120622568
-8.935683222705425
-11.47478446631571
-13.720912489509422
-13.232623788815136
-16.16235599298085
-18.40848401617456
-17.920195315480278
-20.84992751964599
-23.096055542839704
-25.439841306172273
-27.783627069504846
-27.1976806286717
-31.201647974364842
-34.131380178530556
-33.44777599755856
-35.49858854047456
-36.96345464255741
-37.549401083390556
-38.33066300450141
-38.1353475242237
-39.11192492561227
-39.893186846723125
-39.69787136644541
-38.72129396505684
-37.94003204394598
-38.1353475242237
-38.1353475242237
-38.03768978408484
-37.15877012283513
-36.37750820172427
-36.475165941863125
-35.49858854047456
-34.81498435950255
-33.93606469825284
-33.15480277714199
-33.3501182574197
-33.252460517280845
-33.252460517280845
-33.252460517280845
-33.252460517280845
-33.252460517280845
-33.252460517280845
-33.252460517280845
-33.252460517280845
-33.252460517280845
-33.15480277714199
-33.15480277714199
-34.131380178530556
-34.91264209964141
-34.717326619363696
-34.717326619363696
-34.717326619363696
-33.74074921797513
-32.95948729686427
-33.15480277714199
-31.201647974364842
-29.736781872281988
-27.100022888532845
-24.853894865339132
-25.342183566033416
-20.45929655909056
-16.748302433813993
-17.52956435492485
-12.646677347981994
-8.935683222705425
-4.931715877012284
-1.0254062714579995
-1.9043259327077133
2.0019836728465705
4.931715877012284
4.248111696040284
7.275501640344854
9.42397192339971
10.888838025482567
12.45136186770428
12.060730907148852
13.13496604867628
13.81857022964828
13.720912489509422
14.697489890897993
15.381094071869994
15.283436331731137
15.283436331731137
15.283436331731137
13.330281528953995
11.865415426871138
12.158388647287708
7.373159380483711
3.662165255207141
-0.24414435034714274
-4.150453955901427
-3.2715342946517127
-6.298924238956283
-8.44739452201114
-7.959105821316854
-8.154421301594567
-8.05676356145571
-6.201266498817426
-4.736400396734569
-5.0293736171511405
-1.1230640115968566
1.7090104524299992
1.1230640115968566
6.005951018539712
9.71694514381628
10.79118028534371
12.45136186770428
12.060730907148852
12.158388647287708
12.060730907148852
12.060730907148852
13.037308308537423
13.81857022964828
14.599832150759136
15.381094071869994
15.185778591592278
15.185778591592278
15.185778591592278
15.185778591592278
15.185778591592278
15.185778591592278
13.232623788815136
11.767757686732281
12.060730907148852
10.10757610437171
8.642710002288853
8.935683222705425
6.005951018539712
3.8574807354848555
1.416037232013428
-0.8300907911802854
-0.24414435034714274
-3.2715342946517127
-5.420004577706569
-4.931715877012284
-7.959105821316854
-10.10757610437171
-11.572442206454566
-13.13496604867628
-12.74433508812085
-13.81857022964828
-14.50217441062028
-14.404516670481422
-14.404516670481422
-14.404516670481422
-13.427939269092851
-12.646677347981994
-12.84199282825971
-9.912260624093996
-7.763790341039139
-8.252079041733426
-3.36919203479057
0.24414435034714274
4.248111696040284
8.154421301594567
7.275501640344854
14.11154345006485
19.287403677424276
18.11551079575799
25.049210345616846
30.22507057297627
35.69390402075227
41.16273746852827
39.893186846723125
45.947966735332265
50.34256504158083
49.26832990005341
54.24887464713512
57.95986877241169
60.01068131532769
62.35446707866026
61.768520637827116
63.819333180743115
65.28419928282597
64.89356832227054
64.9912260624094
64.89356832227054
63.91699092088197
63.13572899977112
63.33104448004883
62.35446707866026
61.5732051575494
61.67086289768826
60.694285496299685
59.91302357518883
58.1551842526894
56.59266041046769
56.983291371023114
55.90905622949569
55.127794308384836
55.32310978866255
52.39337758449683
50.14724956130312
46.826886396581976
43.70183871213855
44.38544289311055
40.38147554741741
37.4517433432517
38.1353475242237
35.10795757991913
32.86182955672541
30.518043793392845
28.174258030060273
28.66254673075456
26.61173418783856
25.146868085755703
25.439841306172273
23.48668650339513
22.021820401312276
19.48271915770199
17.13893339436942
17.627222095063708
14.697489890897993
12.45136186770428
12.939650568398566
9.033340962844282
6.103608758678568
1.9043259327077133
-1.8066681925688564
-0.9277485313191425
-5.908293278400855
-9.619287403677424
-8.74036774242771
-12.74433508812085
-15.674067292286564
-18.89677271686885
-21.92416266117342
-21.24055848020142
-23.291371023117417
-24.756237125200276
-24.4632639047837
-25.439841306172273
-26.22110322728313
-25.049210345616846
-24.365606164644845
-24.4632639047837
-21.533531700617992
-19.385061417563133
-19.87335011825742
-15.869382772564279
-12.939650568398566
-7.861448081177996
-3.2715342946517127
-4.248111696040284
1.6113527122911422
6.005951018539712
5.0293736171511405
12.84199282825971
18.701457236591136
25.049210345616846
31.2993057145037
29.9320973525597
38.818951705195694
45.362020294499125
43.89715419241627
51.80743114366369
57.66689555199512
61.182574196993976
65.08888380254825
64.20996414129854
68.21393148699168
71.1436636911574
70.4600595101854
72.5108720531014
73.87808041504539
73.58510719462882
73.58510719462882
73.58510719462882
72.60852979324025
71.8272678721294
72.02258335240711
69.9717708094911
68.50690470740825
65.96780346379796
63.6240177004654
64.11230640115969
61.08491645685512
58.936446173800256
59.32707713435569
56.39734493018997
54.15121690699626
52.6863508049134
51.123826962691695
51.416800183108265
47.51049057755398
44.580758373388264
45.16670481422141
37.4517433432517
31.494621194781413
26.123445487144274
20.654612039368278
21.826504921034562
18.701457236591136
16.55298695353628
16.943617914091707
16.84596017395285
16.943617914091707
18.799114976729992
20.263981078812847
19.971007858396277
24.756237125200276
28.467231250476843
27.68596932936599
31.592278934920273
34.52201113908598
34.81498435950255
35.69390402075227
35.49858854047456
32.6665140764477
30.420386053253985
30.908674753948272
27.97894254978256
25.732814526588847
23.389028763256274
21.045242999923705
21.533531700617992
18.506141756313422
16.357671473258563
16.84596017395285
12.84199282825971
9.912260624093996
7.666132600900283
5.322346837567712
5.810635538261997
3.8574807354848555
2.392614633401999
2.68558785381857
1.7090104524299992
0.9277485313191425
1.1230640115968566
1.0254062714579995
1.0254062714579995
2.0019836728465705
2.783245593957427
2.5879301136797133
4.541084916456855
6.005951018539712
7.568474860761425
9.130998702983138
8.838025482566568
10.79118028534371
12.256046387426567
11.963073167009995
13.916227969787137
15.381094071869994
16.943617914091707
18.506141756313422
18.11551079575799
19.18974593728542
19.87335011825742
19.678034637979707
20.752269779507134
21.43587396047913
20.263981078812847
19.58037689784085
19.775692378118563
17.82253757534142
16.357671473258563
16.650644693675137
13.720912489509422
11.47478446631571
7.177843900205997
3.36919203479057
4.248111696040284
-0.6347753109025711
-4.345769436179141
-3.466849774929427
-8.44739452201114
-12.158388647287708
-17.041275654230564
-21.63118944075685
-20.654612039368278
-24.65857938506142
-27.588311589227132
-26.90470740825513
-31.787594415197987
-35.49858854047456
-37.549401083390556
-39.893186846723125
-39.40489814602884
-42.33463035019455
-44.580758373388264
-44.09246967269398
-47.0222018768597
-49.17067215991455
-51.51445792324712
-53.85824368657969
-53.36995498588541
-54.346532387273975
-55.127794308384836
-54.932478828107115
-55.90905622949569
-56.59266041046769
-57.37392233157855
-58.1551842526894
-57.95986877241169
-56.983291371023114
-56.20202944991226
-56.39734493018997
-56.29968719005112
-56.29968719005112
-55.32310978866255
-54.639505607690545
-54.7371633478294
-54.639505607690545
-54.639505607690545
-54.639505607690545
-55.61608300907912
-56.29968719005112
-57.08094911116198
-57.86221103227283
-57.66689555199512
-58.643472953383686
-59.32707713435569
-59.13176165407798
-60.108339055466544
-60.8896009765774
-60.694285496299685
-60.694285496299685
-60.694285496299685
-60.694285496299685
-60.59662775616083
-60.59662775616083
-59.62005035477226
-58.8387884336614
-56.20202944991226
-53.85824368657969
-54.346532387273975
-51.416800183108265
-49.17067215991455
-49.658960860608836
-46.63157091630426
-44.38544289311055
-41.065079728389414
-37.94003204394598
-38.62363622491798
-35.596246280613414
-33.44777599755856
-33.93606469825284
-30.908674753948272
-28.66254673075456
-26.318760967421987
-23.974975204089418
-24.4632639047837
-22.412451361867703
-20.947585259784848
-21.338216220340275
-20.263981078812847
-19.58037689784085
-19.678034637979707
-19.678034637979707
-19.678034637979707
-19.678034637979707
-19.678034637979707
-19.678034637979707
-20.55695429922942
-21.338216220340275
-22.119478141451133
-22.90074006256199
-22.705424582284277
-24.65857938506142
-26.123445487144274
-25.732814526588847
-27.783627069504846
-29.2484931715877
-31.68993667505913
-34.0337224383917
-33.545433737697415
-35.49858854047456
-36.96345464255741
-36.67048142214084
-39.5025558861677
-41.74868390936141
-43.11589227130541
-44.77607385366598
-44.38544289311055
-45.362020294499125
-46.04562447547112
-45.947966735332265
-46.92454413672083
-47.60814831769284
-47.412832837415124
-47.412832837415124
-47.412832837415124
-50.24490730144198
-52.49103532463569
-52.002746623941405
-57.764553292133975
-62.2568093385214
-65.96780346379796
-69.87411306935225
-68.99519340810254
-72.02258335240711
-74.17105363546197
-73.68276493476768
-73.78042267490653
-73.78042267490653
-71.8272678721294
-70.26474402990769
-70.55771725032426
-65.77248798352025
-62.061493858243686
-62.84275577935454
-57.86221103227283
-54.15121690699626
-52.10040436408026
-49.658960860608836
-50.14724956130312
-47.21751735713741
-44.97138933394369
-45.45967803463798
-41.45571068894484
-38.525978484779124
-32.471198596169984
-27.100022888532845
-28.369573510337986
-19.48271915770199
-12.84199282825971
-14.306858930342566
-3.466849774929427
4.541084916456855
14.209201190203707
23.48668650339513
21.43587396047913
32.37354085603113
40.38147554741741
38.62363622491798
47.60814831769284
54.15121690699626
58.44815747310597
63.233386739909974
62.15915159838254
65.18654154268711
67.33501182574197
66.84672312504769
68.79987792782482
70.26474402990769
68.99519340810254
68.31158922713054
68.4092469672694
67.43266956588083
66.65140764476998
66.74906538490883
64.79591058213168
63.33104448004883
61.768520637827116
60.108339055466544
60.49897001602197
58.44815747310597
56.983291371023114
57.27626459143969
55.32310978866255
53.760585946440834
51.22148470283055
48.97535667963683
49.46364538033112
47.412832837415124
45.947966735332265
46.240939955748836
43.311207751583126
41.065079728389414
38.62363622491798
36.27985046158541
36.86579690241855
32.86182955672541
29.9320973525597
30.518043793392845
27.588311589227132
25.342183566033416
22.998397802700847
20.654612039368278
21.14290074006256
19.092088197146563
17.627222095063708
17.920195315480278
15.967040512703136
14.50217441062028
12.939650568398566
11.377126726176853
11.670099946593423
10.693522545204852
9.912260624093996
10.10757610437171
8.154421301594567
6.6895551995117115
6.005951018539712
5.224689097428855
5.420004577706569
3.466849774929427
1.9043259327077133
2.2949568932631417
0.34180209048599985
-1.1230640115968566
-1.7090104524299992
-2.490272373540856
-2.2949568932631417
-2.392614633401999
-2.392614633401999
-2.392614633401999
-0.43945983062485694
0.9277485313191425
2.490272373540856
4.052796215762569
3.7598229953459983
7.568474860761425
10.595864805065995
9.912260624093996
13.916227969787137
16.84596017395285
21.826504921034562
26.416418707560844
25.439841306172273
31.396963454642556
35.79156176089113
34.81498435950255
40.67444876783398
45.069047074082555
48.877698939497975
52.78400854505226
51.90508888380255
55.90905622949569
58.8387884336614
58.1551842526894
61.182574196993976
63.33104448004883
63.819333180743115
64.60059510185397
64.40527962157626
62.54978255893797
60.987258716716255
61.28023193713283
59.32707713435569
57.86221103227283
55.22545204852369
52.97932402532997
53.467612726024264
49.46364538033112
46.533913176165406
47.11985961699855
42.236972610055695
38.525978484779124
35.49858854047456
32.37354085603113
33.05714503700313
28.076600289921416
24.4632639047837
25.24452582589456
21.24055848020142
18.310826276035705
17.041275654230564
15.381094071869994
15.771725032425422
13.720912489509422
12.256046387426567
12.646677347981994
12.549019607843137
12.549019607843137
11.572442206454566
10.79118028534371
10.986495765621424
10.986495765621424
10.986495765621424
10.986495765621424
10.009918364232853
9.228656443121995
8.44739452201114
7.666132600900283
7.861448081177996
5.908293278400855
4.443427176317998
4.736400396734569
2.783245593957427
1.3183794918745708
0.6347753109025711
-0.04882887006942855
0.04882887006942855
-0.8300907911802854
-1.6113527122911422
-1.416037232013428
-2.392614633401999
-3.1738765545128556
-3.9551384756237127
-4.736400396734569
-4.541084916456855
-8.44739452201114
-11.377126726176853
-10.693522545204852
-17.52956435492485
-22.705424582284277
-27.295338368810558
-31.9829098954757
-30.908674753948272
-34.0337224383917
-36.182192721446555
-35.69390402075227
-33.838406958113985
-32.37354085603113
-26.90470740825513
-22.412451361867703
-23.389028763256274
-13.623254749370565
-6.201266498817426
-7.861448081177996
2.8809033340962844
10.986495765621424
17.724879835202564
24.853894865339132
23.291371023117417
28.369573510337986
31.9829098954757
31.201647974364842
35.20561532005799
38.1353475242237
40.28381780727855
42.62760357061112
42.13931486991684
43.21355001144427
43.89715419241627
43.70183871213855
43.70183871213855
43.70183871213855
42.72526131074998
41.943999389639124
42.13931486991684
40.186160067139696
38.72129396505684
39.014267185473415
36.0845349813077
33.838406958113985
31.494621194781413
29.150835431448844
29.63912413214313
26.61173418783856
24.4632639047837
24.853894865339132
21.92416266117342
19.678034637979707
16.357671473258563
13.330281528953995
14.013885709925994
9.033340962844282
5.322346837567712
6.201266498817426
1.2207217517357138
-2.392614633401999
-6.298924238956283
-10.205233844510566
-9.326314183260854
-12.353704127565424
-14.599832150759136
-14.11154345006485
-18.017853055619135
-20.947585259784848
-22.21713588158999
-23.779659723811704
-23.48668650339513
-26.416418707560844
-28.564888990615703
-28.076600289921416
-30.127412832837415
-31.592278934920273
-32.178225375753414
-32.95948729686427
-32.764171816586554
-34.717326619363696
-36.182192721446555
-35.889219501029984
-37.84237430380713
-39.307240405889985
-39.893186846723125
-40.67444876783398
-40.479133287556266
-41.45571068894484
-42.236972610055695
-42.04165712977798
-43.018234531166556
-43.70183871213855
-44.48310063324941
-45.26436255436027
-45.069047074082555
-46.04562447547112
-46.826886396581976
-46.63157091630426
-45.654993514915695
-44.873731593804834
-44.09246967269398
-43.311207751583126
-43.50652323186084
-41.5533684290837
-39.99084458686198
-40.38147554741741
-38.33066300450141
-36.86579690241855
-34.32669565880827
-31.9829098954757
-32.471198596169984
-29.541466392004274
-27.295338368810558
-27.783627069504846
-24.756237125200276
-22.60776684214542
-20.16632333867399
-17.82253757534142
-18.40848401617456
-16.357671473258563
-14.892805371175708
-15.185778591592278
-12.256046387426567
-10.009918364232853
-9.619287403677424
-8.74036774242771
-8.935683222705425
-8.838025482566568
-8.838025482566568
-8.838025482566568
-8.838025482566568
-8.838025482566568
-10.79118028534371
-12.256046387426567
-11.963073167009995
-12.939650568398566
-13.623254749370565
-13.525597009231708
-15.47875181200885
-16.943617914091707
-17.52956435492485
-18.310826276035705
-18.11551079575799
-19.18974593728542
-19.87335011825742
-19.678034637979707
-20.654612039368278
-21.43587396047913
-22.21713588158999
-22.998397802700847
-22.803082322423133
-22.803082322423133
-22.803082322423133
-22.803082322423133
-22.803082322423133
-22.803082322423133
-22.803082322423133
-22.803082322423133
-22.803082322423133
-23.682001983672848
-24.4632639047837
-24.267948424505988
-26.22110322728313
-27.68596932936599
-30.22507057297627
-32.471198596169984
-31.9829098954757
-34.0337224383917
-35.4009308003357
-35.10795757991913
-37.06111238269627
-38.525978484779124
-40.08850232700084
-41.651026169222554
-41.26039520866713
-41.358052948805984
-41.358052948805984
-41.358052948805984
-42.236972610055695
-43.018234531166556
-43.79949645227741
-44.48310063324941
-44.38544289311055
-45.362020294499125
-46.04562447547112
-45.85030899519341
-46.826886396581976
-47.51049057755398
-48.291752498664835
-49.073014419775696
-48.877698939497975
-48.97535667963683
-48.877698939497975
-48.877698939497975
-46.04562447547112
-43.79949645227741
-38.525978484779124
-33.93606469825284
-34.91264209964141
-28.95551995117113
-24.560921644922562
-25.537499046311133
-20.55695429922942
-16.84596017395285
-10.986495765621424
-5.615320057984283
-6.787212939650568
1.0254062714579995
6.884870679789426
5.615320057984283
14.404516670481422
21.045242999923705
28.174258030060273
35.20561532005799
33.64309147783627
42.529945830472265
49.17067215991455
47.60814831769284
53.66292820630198
58.057526512550545
59.91302357518883
62.35446707866026
61.768520637827116
60.8896009765774
60.108339055466544
60.30365453574426
60.2059967956054
60.2059967956054
59.22941939421683
58.54581521324483
58.643472953383686
58.54581521324483
58.54581521324483
58.54581521324483
56.59266041046769
55.127794308384836
53.56527046616312
52.002746623941405
52.295719844357976
49.365987640192266
47.11985961699855
47.60814831769284
44.580758373388264
42.33463035019455
38.03768978408484
34.22903791866941
35.10795757991913
30.127412832837415
26.416418707560844
27.1976806286717
23.19371328297856
20.263981078812847
16.16235599298085
12.256046387426567
13.13496604867628
8.154421301594567
4.541084916456855
5.322346837567712
1.3183794918745708
-1.513694972152285
-5.615320057984283
-9.521629663538567
-8.642710002288853
-12.646677347981994
-15.576409552147707
-14.892805371175708
-18.89677271686885
-21.826504921034562
-25.92813000686656
-29.736781872281988
-28.857862211032273
-33.838406958113985
-37.549401083390556
-36.67048142214084
-40.67444876783398
-43.604180971999696
-47.705806057831694
-51.51445792324712
-50.635538261997404
-54.639505607690545
-57.56923781185626
-56.88563363088426
-58.936446173800256
-60.401312275883114
-59.03410391393912
-58.350499732967116
-58.54581521324483
-56.59266041046769
-55.03013656824598
-55.32310978866255
-51.416800183108265
-48.48706797894255
-43.40886549172198
-38.818951705195694
-39.79552910658427
-33.838406958113985
-29.443808651865414
-30.420386053253985
-24.4632639047837
-19.971007858396277
-15.283436331731137
-10.595864805065995
-11.572442206454566
-7.568474860761425
-4.638742656595713
-5.322346837567712
-1.3183794918745708
1.513694972152285
2.783245593957427
4.443427176317998
4.052796215762569
5.0293736171511405
5.810635538261997
5.615320057984283
5.71297779812314
5.615320057984283
5.615320057984283
5.615320057984283
5.615320057984283
5.615320057984283
5.615320057984283
5.615320057984283
6.591897459372854
7.373159380483711
8.154421301594567
8.935683222705425
8.74036774242771
9.71694514381628
10.498207064927138
10.302891584649425
11.279468986037996
11.963073167009995
11.865415426871138
11.865415426871138
11.865415426871138
12.84199282825971
13.525597009231708
13.427939269092851
13.427939269092851
13.427939269092851
13.427939269092851
13.427939269092851
13.427939269092851
13.427939269092851
13.427939269092851
13.330281528953995
12.45136186770428
11.670099946593423
9.912260624093996
8.44739452201114
8.74036774242771
5.810635538261997
3.5645075150682843
4.052796215762569
0.14648661020828566
-2.68558785381857
-4.931715877012284
-7.275501640344854
-6.787212939650568
-10.693522545204852
-13.623254749370565
-12.939650568398566
-15.967040512703136
-18.21316853589685
-20.55695429922942
-22.90074006256199
-22.314793621728846
-24.365606164644845
-25.830472266727703
-25.439841306172273
-27.49065384908827
-28.95551995117113
-28.564888990615703
-28.66254673075456
-28.66254673075456
-26.709391927977418
-25.24452582589456
-25.537499046311133
-21.63118944075685
-18.701457236591136
-15.47875181200885
-12.353704127565424
-13.037308308537423
-9.130998702983138
-6.201266498817426
-6.787212939650568
-2.8809033340962844
0.04882887006942855
2.197299153124285
4.541084916456855
4.052796215762569
6.103608758678568
7.568474860761425
7.177843900205997
9.228656443121995
10.693522545204852
12.256046387426567
13.81857022964828
13.427939269092851
11.572442206454566
10.10757610437171
10.400549324788281
4.638742656595713
0.14648661020828566
-4.443427176317998
-9.130998702983138
-8.05676356145571
-11.181811245899137
-13.330281528953995
-12.84199282825971
-12.939650568398566
-12.939650568398566
-10.10757610437171
-7.861448081177996
-8.349736781872283
-2.490272373540856
1.8066681925688564
0.8300907911802854
5.810635538261997
9.521629663538567
10.595864805065995
12.256046387426567
11.865415426871138
10.009918364232853
8.545052262149996
8.838025482566568
5.908293278400855
3.7598229953459983
1.3183794918745708
-0.9277485313191425
-0.34180209048599985
-4.345769436179141
-7.275501640344854
-6.591897459372854
-10.595864805065995
-13.525597009231708
-16.650644693675137
-19.775692378118563
-19.092088197146563
-22.119478141451133
-24.267948424505988
-23.779659723811704
-25.732814526588847
-27.1976806286717
-27.881284809643702
-28.66254673075456
-28.467231250476843
-29.443808651865414
-30.127412832837415
-30.029755092698558
-30.029755092698558
-30.029755092698558
-30.029755092698558
-30.029755092698558
-30.029755092698558
-30.908674753948272
-31.68993667505913
-31.494621194781413
-31.494621194781413
-31.494621194781413
-32.471198596169984
-33.15480277714199
-32.95948729686427
-33.05714503700313
-33.05714503700313
-32.95948729686427
-32.95948729686427
-32.95948729686427
-31.103990234225986
-29.541466392004274
-29.9320973525597
-26.025787747005417
-22.998397802700847
-23.682001983672848
-18.701457236591136
-15.088120851453422
-11.08415350576028
-7.177843900205997
-8.05676356145571
-3.076218814373999
0.43945983062485694
-0.24414435034714274
4.638742656595713
8.252079041733426
10.302891584649425
12.74433508812085
12.158388647287708
15.185778591592278
17.334248874647134
16.84596017395285
18.89677271686885
20.361638818951704
20.947585259784848
21.826504921034562
21.63118944075685
22.60776684214542
23.291371023117417
23.096055542839704
23.19371328297856
23.19371328297856
22.21713588158999
21.43587396047913
21.63118944075685
19.678034637979707
18.21316853589685
18.506141756313422
16.45532921339742
14.990463111314565
13.427939269092851
11.865415426871138
12.256046387426567
10.205233844510566
8.74036774242771
9.033340962844282
5.224689097428855
2.197299153124285
0.04882887006942855
-2.2949568932631417
-1.7090104524299992
-5.615320057984283
-8.642710002288853
-7.959105821316854
-11.865415426871138
-14.795147631036851
-17.041275654230564
-19.385061417563133
-18.89677271686885
-21.826504921034562
-24.072632944228275
-23.58434424353399
-25.537499046311133
-27.002365148393988
-29.541466392004274
-31.885252155336843
-31.2993057145037
-34.32669565880827
-36.475165941863125
-35.98687724116884
-38.91660944533455
-41.16273746852827
-43.50652323186084
-45.85030899519341
-45.26436255436027
-47.31517509727627
-48.78004119935912
-48.38941023880369
-50.34256504158083
-51.80743114366369
-51.51445792324712
-51.51445792324712
-51.51445792324712
-51.51445792324712
-51.51445792324712
-51.416800183108265
-49.56130312046998
-47.998779278248264
-45.45967803463798
-43.11589227130541
-43.70183871213855
-39.69787136644541
-36.768139162279695
-37.35408560311284
-32.471198596169984
-28.760204470893417
-23.87731746395056
-19.18974593728542
-20.263981078812847
-14.306858930342566
-9.912260624093996
-10.79118028534371
-4.931715877012284
-0.43945983062485694
3.1738765545128556
7.177843900205997
6.298924238956283
10.302891584649425
13.232623788815136
12.549019607843137
16.55298695353628
19.48271915770199
22.60776684214542
25.732814526588847
25.049210345616846
27.100022888532845
28.467231250476843
28.174258030060273
29.150835431448844
29.9320973525597
29.736781872281988
29.736781872281988
29.736781872281988
27.783627069504846
26.318760967421987
26.61173418783856
23.682001983672848
21.533531700617992
19.092088197146563
16.748302433813993
17.334248874647134
10.498207064927138
5.322346837567712
6.494239719233997
-1.3183794918745708
-7.177843900205997
-12.646677347981994
-18.11551079575799
-16.84596017395285
-21.92416266117342
-25.537499046311133
-24.756237125200276
-25.830472266727703
-26.514076447699704
-25.439841306172273
-24.756237125200276
-24.853894865339132
-21.92416266117342
-19.678034637979707
-20.16632333867399
-16.260013733119706
-13.330281528953995
-13.037308308537423
-12.158388647287708
-12.353704127565424
-14.209201190203707
-15.674067292286564
-15.381094071869994
-17.334248874647134
-18.799114976729992
-20.361638818951704
-21.92416266117342
-21.533531700617992
-24.4632639047837
-26.709391927977418
-26.22110322728313
-29.150835431448844
-31.396963454642556
-33.74074921797513
-36.0845349813077
-35.49858854047456
-38.525978484779124
-40.67444876783398
-40.186160067139696
-41.26039520866713
-41.943999389639124
-40.772106507972836
-40.08850232700084
-40.186160067139696
-36.37750820172427
-33.3501182574197
-34.0337224383917
-28.174258030060273
-23.682001983672848
-16.064698252841993
-9.228656443121995
-10.693522545204852
-0.8300907911802854
6.39658197909514
4.834058136873426
14.697489890897993
22.021820401312276
28.076600289921416
34.32669565880827
32.95948729686427
38.91660944533455
43.311207751583126
42.33463035019455
47.31517509727627
50.928511482413974
52.97932402532997
55.420767528801406
54.83482108796826
56.88563363088426
58.25284199282826
57.95986877241169
57.95986877241169
57.95986877241169
57.95986877241169
57.95986877241169
57.95986877241169
56.983291371023114
56.20202944991226
56.29968719005112
54.346532387273975
52.881666285191116
51.22148470283055
49.658960860608836
50.04959182116426
47.998779278248264
46.533913176165406
46.826886396581976
43.89715419241627
41.651026169222554
40.28381780727855
38.62363622491798
39.014267185473415
35.98687724116884
33.838406958113985
34.32669565880827
32.27588311589227
30.811017013809415
29.150835431448844
27.588311589227132
27.97894254978256
25.92813000686656
24.4632639047837
24.853894865339132
23.779659723811704
22.998397802700847
21.24055848020142
19.775692378118563
20.068665598535134
19.971007858396277
19.971007858396277
19.971007858396277
19.092088197146563
18.310826276035705
17.52956435492485
16.748302433813993
16.84596017395285
14.892805371175708
13.427939269092851
13.81857022964828
12.74433508812085
12.060730907148852
11.181811245899137
10.400549324788281
10.595864805065995
8.642710002288853
7.177843900205997
7.470817120622568
4.541084916456855
2.392614633401999
1.9043259327077133
1.0254062714579995
1.2207217517357138
0.24414435034714274
-0.43945983062485694
-0.24414435034714274
0.537117570763714
1.3183794918745708
4.931715877012284
7.959105821316854
7.275501640344854
12.256046387426567
15.869382772564279
15.088120851453422
20.068665598535134
23.682001983672848
27.68596932936599
31.494621194781413
30.615701533531702
34.61966887922484
37.549401083390556
36.86579690241855
40.86976424811169
43.79949645227741
45.069047074082555
46.63157091630426
46.240939955748836
47.31517509727627
47.998779278248264
47.80346379797055
47.80346379797055
47.80346379797055
47.80346379797055
47.80346379797055
47.80346379797055
47.80346379797055
47.705806057831694
47.705806057831694
47.705806057831694
47.705806057831694
46.72922865644312
45.947966735332265
46.14328221560998
44.19012741283284
42.72526131074998
43.018234531166556
40.96742198825055
39.5025558861677
36.96345464255741
34.61966887922484
35.10795757991913
32.178225375753414
29.9320973525597
30.420386053253985
26.514076447699704
23.58434424353399
20.361638818951704
17.236591134508277
17.920195315480278
13.916227969787137
10.986495765621424
11.670099946593423
7.666132600900283
4.736400396734569
2.5879301136797133
0.14648661020828566
0.7324330510414282
-4.052796215762569
-7.763790341039139
-6.982528419928283
-14.795147631036851
-20.654612039368278
-27.002365148393988
-33.252460517280845
-31.787594415197987
-35.010299839780274
-37.15877012283513
-36.67048142214084
-36.768139162279695
-36.67048142214084
-33.838406958113985
-31.592278934920273
-32.08056763561456
-26.22110322728313
-21.826504921034562
-22.803082322423133
-16.84596017395285
-12.353704127565424
-11.47478446631571
-9.71694514381628
-10.10757610437171
-10.009918364232853
-10.10757610437171
-10.009918364232853
-10.009918364232853
-10.009918364232853
-9.130998702983138
-8.349736781872283
-8.545052262149996
-7.470817120622568
-6.787212939650568
-6.982528419928283
-5.0293736171511405
-3.466849774929427
-0.9277485313191425
1.2207217517357138
0.7324330510414282
2.783245593957427
4.150453955901427
3.8574807354848555
6.787212939650568
9.033340962844282
10.400549324788281
12.060730907148852
11.670099946593423
12.646677347981994
13.427939269092851
13.232623788815136
14.209201190203707
14.990463111314565
15.771725032425422
16.55298695353628
16.357671473258563
16.357671473258563
16.357671473258563
16.357671473258563
16.357671473258563
16.357671473258563
15.381094071869994
14.599832150759136
14.795147631036851
13.81857022964828
13.037308308537423
13.232623788815136
11.279468986037996
9.81460288395514
8.252079041733426
6.6895551995117115
6.982528419928283
4.052796215762569
1.8066681925688564
2.2949568932631417
-0.537117570763714
-2.783245593957427
-6.103608758678568
-9.130998702983138
-8.44739452201114
-11.47478446631571
-13.623254749370565
-13.13496604867628
-18.017853055619135
-21.728847180895706
-24.756237125200276
-27.881284809643702
-27.1976806286717
-31.103990234225986
-34.0337224383917
-33.3501182574197
-37.35408560311284
-40.28381780727855
-41.5533684290837
-43.11589227130541
-42.72526131074998
-44.77607385366598
-46.14328221560998
-45.85030899519341
-46.826886396581976
-47.60814831769284
-47.412832837415124
-47.412832837415124
-47.412832837415124
-45.45967803463798
-43.99481193255512
-44.28778515297169
-43.21355001144427
-42.529945830472265
-40.772106507972836
-39.20958266575113
-39.5025558861677
-38.525978484779124
-37.74471656366827
-37.94003204394598
-37.84237430380713
-37.84237430380713
-37.84237430380713
-37.84237430380713
-37.84237430380713
-36.86579690241855
-36.0845349813077
-36.27985046158541
-35.20561532005799
-34.52201113908598
-32.764171816586554
-31.201647974364842
-31.494621194781413
-27.588311589227132
-24.65857938506142
-25.342183566033416
-20.361638818951704
-16.748302433813993
-11.767757686732281
-7.177843900205997
-8.154421301594567
-2.197299153124285
2.0996414129854277
1.1230640115968566
7.080186160067139
11.47478446631571
15.283436331731137
19.18974593728542
18.310826276035705
23.291371023117417
26.90470740825513
26.123445487144274
29.150835431448844
31.2993057145037
33.64309147783627
35.98687724116884
35.49858854047456
35.596246280613414
35.49858854047456
35.49858854047456
35.49858854047456
35.49858854047456
33.64309147783627
32.08056763561456
32.37354085603113
29.443808651865414
27.295338368810558
27.68596932936599
24.756237125200276
22.510109102006563
20.16632333867399
17.82253757534142
18.310826276035705
16.260013733119706
14.795147631036851
15.185778591592278
13.13496604867628
11.670099946593423
11.08415350576028
10.205233844510566
10.400549324788281
9.42397192339971
8.642710002288853
8.838025482566568
7.861448081177996
7.080186160067139
5.322346837567712
3.8574807354848555
4.150453955901427
2.197299153124285
0.7324330510414282
1.0254062714579995
-1.8066681925688564
-3.9551384756237127
-5.420004577706569
-6.982528419928283
-6.6895551995117115
-7.666132600900283
-8.44739452201114
-8.252079041733426
-9.228656443121995
-9.912260624093996
-10.79118028534371
-11.47478446631571
-11.377126726176853
-15.185778591592278
-18.11551079575799
-17.52956435492485
-23.389028763256274
-27.783627069504846
-32.471198596169984
-37.15877012283513
-36.0845349813077
-40.186160067139696
-43.11589227130541
-42.43228809033341
-43.50652323186084
-44.19012741283284
-41.16273746852827
-38.91660944533455
-39.40489814602884
-33.545433737697415
-29.150835431448844
-30.127412832837415
-22.21713588158999
-16.357671473258563
-11.963073167009995
-7.177843900205997
-8.252079041733426
-2.2949568932631417
2.0019836728465705
1.0254062714579995
6.982528419928283
11.377126726176853
16.16235599298085
20.84992751964599
19.775692378118563
24.756237125200276
28.467231250476843
27.588311589227132
31.592278934920273
34.52201113908598
35.79156176089113
37.35408560311284
37.06111238269627
38.03768978408484
38.72129396505684
38.62363622491798
39.600213626306555
40.28381780727855
40.08850232700084
40.08850232700084
40.08850232700084
40.08850232700084
40.08850232700084
40.08850232700084
40.08850232700084
40.08850232700084
38.1353475242237
36.67048142214084
36.96345464255741
34.91264209964141
33.44777599755856
33.838406958113985
31.787594415197987
30.322728313115128
27.783627069504846
25.439841306172273
25.92813000686656
22.998397802700847
20.752269779507134
21.24055848020142
19.18974593728542
17.724879835202564
16.16235599298085
14.599832150759136
14.990463111314565
13.916227969787137
13.232623788815136
13.330281528953995
11.377126726176853
9.912260624093996
8.349736781872283
6.787212939650568
7.080186160067139
5.127031357289998
3.662165255207141
3.9551384756237127
2.0019836728465705
0.537117570763714
-1.9043259327077133
-4.248111696040284
-3.662165255207141
-6.6895551995117115
-8.838025482566568
-8.349736781872283
-11.377126726176853
-13.525597009231708
-15.967040512703136
-18.21316853589685
-17.724879835202564
-19.775692378118563
-21.24055848020142
-20.84992751964599
-21.92416266117342
-22.60776684214542
-22.412451361867703
-22.510109102006563
-22.412451361867703
-20.55695429922942
-19.092088197146563
-19.385061417563133
-16.45532921339742
-14.209201190203707
-10.888838025482567
-7.763790341039139
-8.44739452201114
-2.5879301136797133
1.7090104524299992
0.7324330510414282
6.6895551995117115
11.08415350576028
16.748302433813993
22.21713588158999
20.947585259784848
26.025787747005417
29.63912413214313
28.857862211032273
32.86182955672541
35.79156176089113
36.96345464255741
38.62363622491798
38.23300526436255
39.307240405889985
39.99084458686198
39.79552910658427
39.79552910658427
39.79552910658427
39.79552910658427
39.79552910658427
39.79552910658427
38.818951705195694
38.03768978408484
38.23300526436255
38.1353475242237
38.1353475242237
37.15877012283513
36.475165941863125
36.57282368200198
35.596246280613414
34.81498435950255
35.010299839780274
33.05714503700313
31.592278934920273
28.95551995117113
26.709391927977418
27.1976806286717
24.17029068436713
22.021820401312276
22.510109102006563
18.506141756313422
15.576409552147707
12.45136186770428
9.326314183260854
10.009918364232853
6.005951018539712
3.076218814373999
3.7598229953459983
-0.14648661020828566
-3.076218814373999
-6.201266498817426
-9.326314183260854
-8.642710002288853
-10.693522545204852
-12.158388647287708
-11.865415426871138
-13.81857022964828
-15.283436331731137
-15.869382772564279
-16.748302433813993
-16.55298695353628
-16.55298695353628
-16.55298695353628
-16.55298695353628
-15.576409552147707
-14.795147631036851
-14.990463111314565
-14.990463111314565
-14.990463111314565
-14.990463111314565
-14.990463111314565
-14.990463111314565
-15.869382772564279
-16.650644693675137
-17.43190661478599
-18.21316853589685
-18.017853055619135
-19.971007858396277
-21.43587396047913
-21.045242999923705
-22.119478141451133
-22.803082322423133
-22.705424582284277
-22.705424582284277
-22.705424582284277
-23.58434424353399
-24.365606164644845
-24.17029068436713
-26.123445487144274
-27.588311589227132
-28.174258030060273
-29.053177691309987
-28.857862211032273
-25.049210345616846
-22.021820401312276
-22.705424582284277
-15.869382772564279
-10.693522545204852
-2.2949568932631417
5.322346837567712
3.5645075150682843
14.50217441062028
22.510109102006563
20.752269779507134
29.736781872281988
36.27985046158541
40.57679102769512
45.362020294499125
44.28778515297169
46.33859769588769
47.80346379797055
47.51049057755398
48.48706797894255
49.17067215991455
48.97535667963683
49.073014419775696
48.97535667963683
47.998779278248264
47.31517509727627
47.412832837415124
44.48310063324941
42.236972610055695
38.91660944533455
35.889219501029984
36.57282368200198
31.592278934920273
27.881284809643702
28.66254673075456
23.779659723811704
20.068665598535134
16.064698252841993
12.158388647287708
13.037308308537423
7.177843900205997
2.68558785381857
3.662165255207141
-2.0996414129854277
-6.591897459372854
-11.279468986037996
-15.967040512703136
-14.892805371175708
-19.971007858396277
-23.58434424353399
-22.803082322423133
-26.709391927977418
-29.63912413214313
-31.885252155336843
-34.22903791866941
-33.74074921797513
-37.64705882352941
-40.57679102769512
-39.893186846723125
-42.92057679102769
-45.069047074082555
-47.412832837415124
-49.75661860074769
-49.26832990005341
-53.17463950560769
-56.1043717097734
-55.420767528801406
-58.350499732967116
-60.59662775616083
-62.9404135194934
-65.28419928282597
-64.69825284199283
-66.74906538490883
-68.11627374685283
-67.82330052643626
-69.77645532921339
-71.24132143129626
-71.8272678721294
-72.60852979324025
-72.41321431296254
-71.43663691157397
-70.65537499046312
-70.85069047074083
-68.89753566796368
-67.33501182574197
-63.819333180743115
-60.79194323643854
-61.475547417410546
-56.49500267032883
-52.78400854505226
-53.56527046616312
-45.75265125505455
-39.893186846723125
-33.545433737697415
-27.295338368810558
-28.66254673075456
-21.63118944075685
-16.55298695353628
-17.627222095063708
-10.693522545204852
-5.517662317845426
-0.9277485313191425
3.662165255207141
2.5879301136797133
7.568474860761425
11.279468986037996
10.400549324788281
15.381094071869994
19.092088197146563
21.14290074006256
23.48668650339513
22.998397802700847
25.92813000686656
28.174258030060273
27.588311589227132
30.615701533531702
32.764171816586554
34.22903791866941
35.79156176089113
35.4009308003357
36.475165941863125
37.15877012283513
36.96345464255741
36.96345464255741
36.96345464255741
35.98687724116884
35.303273060196844
35.4009308003357
33.44777599755856
31.9829098954757
32.27588311589227
28.369573510337986
25.439841306172273
22.21713588158999
19.092088197146563
19.775692378118563
14.892805371175708
11.181811245899137
12.060730907148852
8.05676356145571
5.127031357289998
2.8809033340962844
0.537117570763714
1.0254062714579995
-0.9277485313191425
-2.392614633401999
-2.0019836728465705
-3.076218814373999
-3.7598229953459983
-4.541084916456855
-5.322346837567712
-5.224689097428855
-7.177843900205997
-8.642710002288853
-8.252079041733426
-10.302891584649425
-11.767757686732281
-13.330281528953995
-14.892805371175708
-14.50217441062028
-17.43190661478599
-19.678034637979707
-19.18974593728542
-22.119478141451133
-24.267948424505988
-27.588311589227132
-30.71335927367056
-30.029755092698558
-33.05714503700313
-35.20561532005799
-34.717326619363696
-36.67048142214084
-38.1353475242237
-38.818951705195694
-39.600213626306555
-39.40489814602884
-37.549401083390556
-35.98687724116884
-36.27985046158541
-32.37354085603113
-29.443808651865414
-24.365606164644845
-19.775692378118563
-20.752269779507134
-13.81857022964828
-8.74036774242771
-9.81460288395514
-2.8809033340962844
2.0996414129854277
5.810635538261997
9.71694514381628
8.838025482566568
10.986495765621424
12.353704127565424
12.060730907148852
10.205233844510566
8.74036774242771
7.177843900205997
5.615320057984283
5.908293278400855
6.787212939650568
7.568474860761425
7.373159380483711
10.302891584649425
12.45136186770428
15.771725032425422
18.89677271686885
18.21316853589685
25.049210345616846
30.22507057297627
29.053177691309987
35.010299839780274
39.40489814602884
40.28381780727855
42.04165712977798
41.651026169222554
40.772106507972836
39.99084458686198
40.08850232700084
40.08850232700084
40.08850232700084
39.11192492561227
38.33066300450141
38.525978484779124
37.4517433432517
36.768139162279695
36.86579690241855
36.86579690241855
36.86579690241855
36.86579690241855
36.768139162279695
36.768139162279695
37.74471656366827
38.42832074464027
38.33066300450141
39.307240405889985
39.99084458686198
39.79552910658427
39.893186846723125
39.79552910658427
38.818951705195694
38.1353475242237
38.23300526436255
37.256427862973986
36.475165941863125
34.717326619363696
33.252460517280845
33.545433737697415
30.615701533531702
28.369573510337986
28.857862211032273
25.830472266727703
23.682001983672848
21.24055848020142
18.89677271686885
19.48271915770199
16.45532921339742
14.306858930342566
14.697489890897993
11.767757686732281
9.521629663538567
9.130998702983138
8.252079041733426
8.44739452201114
7.470817120622568
6.6895551995117115
6.884870679789426
6.787212939650568
6.787212939650568
8.74036774242771
10.205233844510566
9.912260624093996
11.865415426871138
13.330281528953995
12.939650568398566
15.967040512703136
18.11551079575799
21.43587396047913
24.560921644922562
23.779659723811704
27.783627069504846
30.71335927367056
30.029755092698558
34.0337224383917
36.96345464255741
38.1353475242237
39.79552910658427
39.40489814602884
41.358052948805984
42.822919050888835
42.529945830472265
42.529945830472265
42.529945830472265
41.5533684290837
40.86976424811169
40.96742198825055
39.014267185473415
37.549401083390556
37.84237430380713
35.889219501029984
34.32669565880827
31.787594415197987
29.541466392004274
30.029755092698558
27.97894254978256
26.514076447699704
26.807049668116274
24.853894865339132
23.389028763256274
21.728847180895706
20.16632333867399
20.55695429922942
18.60379949645228
17.041275654230564
17.43190661478599
15.381094071869994
13.916227969787137
10.400549324788281
7.373159380483711
8.05676356145571
4.150453955901427
1.1230640115968566
1.8066681925688564
-2.0019836728465705
-5.0293736171511405
-8.154421301594567
-11.279468986037996
-10.595864805065995
-13.623254749370565
-15.771725032425422
-15.283436331731137
-18.21316853589685
-20.45929655909056
-21.826504921034562
-23.48668650339513
-23.096055542839704
-24.072632944228275
-24.853894865339132
-24.65857938506142
-26.61173418783856
-28.076600289921416
-28.66254673075456
-29.443808651865414
-29.346150911726557
-29.346150911726557
-29.346150911726557
-29.346150911726557
-30.22507057297627
-31.00633249408713
-31.787594415197987
-32.56885633630884
-32.37354085603113
-32.37354085603113
-32.37354085603113
-32.37354085603113
-33.252460517280845
-34.0337224383917
-32.86182955672541
-32.178225375753414
-32.37354085603113
-29.443808651865414
-27.1976806286717
-27.68596932936599
-23.779659723811704
-20.752269779507134
-16.650644693675137
-12.84199282825971
-13.623254749370565
-7.763790341039139
-3.2715342946517127
-4.248111696040284
0.6347753109025711
4.248111696040284
8.252079041733426
12.158388647287708
11.279468986037996
14.306858930342566
16.45532921339742
15.967040512703136
18.994430457007706
21.14290074006256
22.60776684214542
24.17029068436713
23.779659723811704
23.87731746395056
23.87731746395056
23.87731746395056
23.87731746395056
23.779659723811704
23.779659723811704
23.779659723811704
23.779659723811704
19.971007858396277
17.041275654230564
17.627222095063708
11.767757686732281
7.373159380483711
1.6113527122911422
-3.662165255207141
-2.490272373540856
-5.615320057984283
-7.763790341039139
-7.275501640344854
-8.349736781872283
-9.033340962844282
-6.982528419928283
-5.517662317845426
-5.810635538261997
-2.0019836728465705
0.9277485313191425
0.24414435034714274
3.2715342946517127
5.420004577706569
3.076218814373999
1.7090104524299992
2.0019836728465705
-1.8066681925688564
-4.736400396734569
-4.150453955901427
-8.05676356145571
-10.986495765621424
-15.088120851453422
-18.994430457007706
-18.11551079575799
-22.119478141451133
-25.049210345616846
-24.365606164644845
-28.369573510337986
-31.2993057145037
-34.424353398947126
-37.549401083390556
-36.86579690241855
-40.772106507972836
-43.70183871213855
-43.018234531166556
-46.04562447547112
-48.19409475852598
-50.53788052185855
-52.881666285191116
-52.39337758449683
-56.29968719005112
-59.22941939421683
-58.54581521324483
-60.59662775616083
-61.96383611810483
-63.6240177004654
-65.08888380254825
-64.79591058213168
-65.77248798352025
-66.45609216449226
-66.26077668421455
-64.40527962157626
-62.84275577935454
-60.30365453574426
-57.95986877241169
-58.44815747310597
-52.588693064774546
-48.19409475852598
-49.17067215991455
-43.21355001144427
-38.818951705195694
-32.08056763561456
-25.92813000686656
-27.295338368810558
-19.385061417563133
-13.427939269092851
-14.795147631036851
-6.787212939650568
-0.9277485313191425
5.322346837567712
11.47478446631571
10.10757610437171
16.16235599298085
20.55695429922942
19.58037689784085
25.537499046311133
29.9320973525597
33.64309147783627
37.549401083390556
36.67048142214084
41.651026169222554
45.362020294499125
44.48310063324941
48.48706797894255
51.416800183108265
53.56527046616312
55.90905622949569
55.420767528801406
58.350499732967116
60.59662775616083
60.01068131532769
61.08491645685512
61.768520637827116
62.54978255893797
63.33104448004883
63.13572899977112
63.13572899977112
63.13572899977112
63.13572899977112
63.03807125963226
63.03807125963226
61.08491645685512
59.62005035477226
59.91302357518883
58.936446173800256
58.1551842526894
58.25284199282826
57.27626459143969
56.49500267032883
56.690318150606544
56.59266041046769
56.59266041046769
55.61608300907912
54.83482108796826
55.03013656824598
54.932478828107115
54.932478828107115
53.95590142671855
53.27229724574655
53.36995498588541
52.39337758449683
51.61211566338598
51.80743114366369
48.877698939497975
46.63157091630426
44.19012741283284
41.84634164950027
42.33463035019455
40.38147554741741
38.91660944533455
39.20958266575113
36.27985046158541
34.0337224383917
31.592278934920273
29.2484931715877
29.834439612420844
27.783627069504846
26.318760967421987
26.61173418783856
24.65857938506142
23.096055542839704
23.48668650339513
23.389028763256274
23.389028763256274
24.365606164644845
25.049210345616846
24.853894865339132
27.783627069504846
30.029755092698558
33.3501182574197
36.37750820172427
35.69390402075227
40.57679102769512
44.28778515297169
43.40886549172198
48.38941023880369
52.002746623941405
56.006713969634546
59.815365835049974
58.936446173800256
61.08491645685512
62.45212481879911
62.15915159838254
64.11230640115969
65.57717250324254
65.18654154268711
65.28419928282597
65.18654154268711
64.20996414129854
63.42870222018769
63.6240177004654
61.67086289768826
60.2059967956054
58.54581521324483
56.983291371023114
57.27626459143969
54.346532387273975
52.10040436408026
52.588693064774546
50.53788052185855
49.073014419775696
46.533913176165406
44.19012741283284
44.67841611352712
41.74868390936141
39.5025558861677
39.99084458686198
36.96345464255741
34.81498435950255
31.396963454642556
28.369573510337986
29.053177691309987
22.21713588158999
17.041275654230564
18.11551079575799
8.349736781872283
1.0254062714579995
-5.908293278400855
-12.939650568398566
-11.377126726176853
-17.43190661478599
-21.826504921034562
-20.84992751964599
-23.87731746395056
-26.025787747005417
-27.49065384908827
-29.053177691309987
-28.66254673075456
-28.760204470893417
-28.760204470893417
-28.760204470893417
-29.63912413214313
-30.420386053253985
-34.0337224383917
-37.06111238269627
-36.37750820172427
-43.21355001144427
-48.38941023880369
-47.21751735713741
-54.15121690699626
-59.22941939421683
-63.819333180743115
-68.50690470740825
-67.43266956588083
-73.3897917143511
-77.78439002059967
-76.71015487907225
-82.66727702754254
-87.06187533379111
-88.91737239642939
-91.35881589990082
-90.77286945906768
-93.70260166323338
-95.85107194628824
-95.36278324559396
-96.43701838712138
-97.12062256809338
-95.9487296864271
-95.16746776531625
-95.36278324559396
-94.28854810406654
-93.50728618295567
-93.70260166323338
-91.65178912031739
-90.18692301823454
-88.62439917601282
-86.96421759365225
-87.35484855420768
-84.3274586099031
-82.0813305867094
-82.56961928740368
-80.51880674448768
-79.05394064240483
-77.39375906004425
-75.83123521782254
-76.22186617837797
-73.19447623407339
-70.94834821087969
-71.43663691157397
-67.53032730601969
-64.50293736171511
-60.401312275883114
-56.49500267032883
-57.37392233157855
-52.39337758449683
-48.68238345922026
-49.46364538033112
-45.45967803463798
-42.529945830472265
-39.307240405889985
-36.182192721446555
-36.86579690241855
-34.81498435950255
-33.3501182574197
-33.64309147783627
-31.68993667505913
-30.22507057297627
-29.541466392004274
-28.760204470893417
-28.95551995117113
-27.881284809643702
-27.1976806286717
-27.295338368810558
-26.318760967421987
-25.537499046311133
-25.732814526588847
-25.732814526588847
-25.732814526588847
-24.756237125200276
-23.974975204089418
-24.17029068436713
-23.096055542839704
-22.412451361867703
-21.63118944075685
-20.84992751964599
-20.947585259784848
-20.947585259784848
-20.947585259784848
-20.947585259784848
-20.947585259784848
-20.947585259784848
-20.84992751964599
-20.84992751964599
-20.84992751964599
-20.84992751964599
-20.84992751964599
-20.84992751964599
-20.84992751964599
-20.84992751964599
-19.87335011825742
-19.18974593728542
-19.287403677424276
-18.310826276035705
-17.52956435492485
-17.724879835202564
-16.748302433813993
-15.967040512703136
-16.16235599298085
-16.064698252841993
-16.064698252841993
-16.064698252841993
-16.064698252841993
-16.064698252841993
-14.209201190203707
-12.646677347981994
-11.08415350576028
-9.521629663538567
-9.912260624093996
-6.982528419928283
-4.736400396734569
-5.224689097428855
-0.34180209048599985
3.2715342946517127
9.130998702983138
14.50217441062028
13.330281528953995
19.287403677424276
23.682001983672848
22.705424582284277
29.541466392004274
34.717326619363696
38.33066300450141
42.33463035019455
41.45571068894484
46.33859769588769
50.04959182116426
49.17067215991455
51.22148470283055
52.6863508049134
54.24887464713512
55.81139848935683
55.420767528801406
55.51842526894026
55.420767528801406
55.420767528801406
54.44419012741283
53.760585946440834
52.881666285191116
52.10040436408026
52.295719844357976
51.22148470283055
50.53788052185855
50.635538261997404
48.68238345922026
47.21751735713741
44.67841611352712
42.33463035019455
42.822919050888835
39.893186846723125
37.64705882352941
38.1353475242237
33.252460517280845
29.541466392004274
26.514076447699704
23.389028763256274
24.072632944228275
19.092088197146563
15.381094071869994
16.260013733119706
12.256046387426567
9.326314183260854
6.103608758678568
2.9785610742351416
3.662165255207141
0.6347753109025711
-1.416037232013428
-0.9277485313191425
-3.8574807354848555
-6.103608758678568
-7.568474860761425
-9.130998702983138
-8.74036774242771
-14.599832150759136
-18.994430457007706
-18.017853055619135
-25.830472266727703
-31.68993667505913
-39.014267185473415
-45.947966735332265
-44.38544289311055
-50.44022278171969
-54.83482108796826
-53.85824368657969
-56.88563363088426
-59.03410391393912
-58.54581521324483
-58.643472953383686
-58.643472953383686
-54.7371633478294
-51.80743114366369
-52.39337758449683
-48.48706797894255
-45.45967803463798
-44.19012741283284
-42.62760357061112
-42.92057679102769
-41.84634164950027
-41.16273746852827
-41.26039520866713
-37.4517433432517
-34.424353398947126
-29.346150911726557
-24.756237125200276
-25.732814526588847
-17.920195315480278
-11.963073167009995
-13.330281528953995
-5.420004577706569
0.43945983062485694
7.666132600900283
14.697489890897993
13.13496604867628
21.045242999923705
26.90470740825513
25.63515678644999
32.56885633630884
37.74471656366827
42.33463035019455
47.0222018768597
45.947966735332265
49.951934081025406
52.881666285191116
52.19806210421912
56.1043717097734
59.03410391393912
60.30365453574426
61.96383611810483
61.5732051575494
63.526359960326545
64.9912260624094
64.60059510185397
64.69825284199283
64.60059510185397
64.60059510185397
64.60059510185397
64.60059510185397
62.64744029907683
61.182574196993976
61.475547417410546
58.44815747310597
56.29968719005112
52.881666285191116
49.85427634088655
50.44022278171969
45.55733577477684
41.84634164950027
42.62760357061112
37.64705882352941
34.0337224383917
31.00633249408713
27.783627069504846
28.564888990615703
23.58434424353399
19.87335011825742
20.752269779507134
16.748302433813993
13.720912489509422
10.595864805065995
7.470817120622568
8.154421301594567
4.150453955901427
1.2207217517357138
1.9043259327077133
-2.0019836728465705
-4.931715877012284
-8.05676356145571
-11.181811245899137
-10.498207064927138
-13.525597009231708
-15.674067292286564
-15.185778591592278
-19.092088197146563
-22.021820401312276
-23.291371023117417
-24.95155260547799
-24.560921644922562
-27.49065384908827
-29.736781872281988
-29.150835431448844
-30.22507057297627
-31.00633249408713
-32.6665140764477
-34.22903791866941
-33.838406958113985
-35.79156176089113
-37.256427862973986
-36.96345464255741
-38.91660944533455
-40.38147554741741
-41.943999389639124
-43.50652323186084
-43.11589227130541
-44.19012741283284
-44.873731593804834
-44.67841611352712
-44.67841611352712
-44.67841611352712
-41.84634164950027
-39.600213626306555
-40.08850232700084
-35.20561532005799
-31.494621194781413
-32.27588311589227
-26.318760967421987
-21.92416266117342
-17.13893339436942
-12.45136186770428
-13.525597009231708
-6.591897459372854
-1.416037232013428
-2.5879301136797133
3.2715342946517127
7.666132600900283
12.45136186770428
17.13893339436942
16.064698252841993
21.045242999923705
24.756237125200276
23.87731746395056
27.881284809643702
30.811017013809415
32.95948729686427
35.4009308003357
34.81498435950255
36.86579690241855
38.33066300450141
37.94003204394598
38.03768978408484
37.94003204394598
36.0845349813077
34.61966887922484
34.91264209964141
31.9829098954757
29.736781872281988
30.22507057297627
27.1976806286717
25.049210345616846
22.60776684214542
20.263981078812847
20.752269779507134
17.82253757534142
15.576409552147707
16.064698252841993
14.11154345006485
12.549019607843137
11.963073167009995
11.181811245899137
11.279468986037996
9.326314183260854
7.861448081177996
8.252079041733426
6.201266498817426
4.736400396734569
2.197299153124285
0.04882887006942855
0.43945983062485694
-2.490272373540856
-4.638742656595713
-4.150453955901427
-8.05676356145571
-10.986495765621424
-15.185778591592278
-18.994430457007706
-18.11551079575799
-23.096055542839704
-26.709391927977418
-25.92813000686656
-30.908674753948272
-34.52201113908598
-36.57282368200198
-39.014267185473415
-38.42832074464027
-44.28778515297169
-48.68238345922026
-47.705806057831694
-53.56527046616312
-57.95986877241169
-61.768520637827116
-65.6748302433814
-64.79591058213168
-66.84672312504769
-68.31158922713054
-67.92095826657511
-68.01861600671397
-68.01861600671397
-65.08888380254825
-62.84275577935454
-63.33104448004883
-57.471580071717405
-52.97932402532997
-53.95590142671855
-48.97535667963683
-45.26436255436027
-43.21355001144427
-40.772106507972836
-41.358052948805984
-39.307240405889985
-37.84237430380713
-38.1353475242237
-35.20561532005799
-32.95948729686427
-30.615701533531702
-28.174258030060273
-28.760204470893417
-23.87731746395056
-20.16632333867399
-20.947585259784848
-15.967040512703136
-12.353704127565424
-9.326314183260854
-6.103608758678568
-6.884870679789426
-2.8809033340962844
0.04882887006942855
-0.6347753109025711
2.2949568932631417
4.541084916456855
5.0293736171511405
5.810635538261997
5.615320057984283
4.736400396734569
3.9551384756237127
4.150453955901427
3.1738765545128556
2.392614633401999
0.6347753109025711
-0.7324330510414282
-0.43945983062485694
-3.36919203479057
-5.615320057984283
-5.0293736171511405
-7.080186160067139
-8.545052262149996
-11.08415350576028
-13.427939269092851
-12.84199282825971
-15.869382772564279
-18.017853055619135
-17.52956435492485
-18.60379949645228
-19.287403677424276
-21.045242999923705
-22.60776684214542
-22.21713588158999
-22.314793621728846
-22.314793621728846
-22.314793621728846
-22.21713588158999
-22.21713588158999
-21.338216220340275
-20.55695429922942
-20.752269779507134
-20.654612039368278
-20.654612039368278
-20.654612039368278
-20.654612039368278
-20.654612039368278
-21.63118944075685
-22.314793621728846
-22.119478141451133
-22.21713588158999
-22.119478141451133
-22.119478141451133
-23.096055542839704
-23.87731746395056
-24.65857938506142
-25.439841306172273
-25.24452582589456
-26.22110322728313
-26.90470740825513
-26.709391927977418
-28.66254673075456
-30.127412832837415
-30.811017013809415
-31.592278934920273
-31.396963454642556
-33.3501182574197
-34.81498435950255
-34.424353398947126
-35.49858854047456
-36.182192721446555
-35.98687724116884
-36.0845349813077
-35.98687724116884
-33.15480277714199
-30.908674753948272
-31.396963454642556
-28.369573510337986
-26.22110322728313
-21.92416266117342
-18.11551079575799
-18.89677271686885
-13.037308308537423
-8.545052262149996
-9.521629663538567
-3.5645075150682843
0.7324330510414282
4.443427176317998
8.44739452201114
7.568474860761425
13.427939269092851
17.920195315480278
16.84596017395285
20.947585259784848
23.87731746395056
27.002365148393988
30.127412832837415
29.443808651865414
32.37354085603113
34.61966887922484
34.131380178530556
36.0845349813077
37.549401083390556
38.1353475242237
39.014267185473415
38.818951705195694
38.818951705195694
38.818951705195694
38.818951705195694
37.84237430380713
37.06111238269627
34.32669565880827
32.08056763561456
32.56885633630884
29.541466392004274
27.392996108949415
27.881284809643702
23.87731746395056
20.947585259784848
18.701457236591136
16.357671473258563
16.84596017395285
13.916227969787137
11.670099946593423
12.158388647287708
11.08415350576028
10.400549324788281
9.619287403677424
8.838025482566568
8.935683222705425
8.935683222705425
8.935683222705425
8.935683222705425
7.959105821316854
7.275501640344854
5.517662317845426
3.9551384756237127
4.345769436179141
1.3183794918745708
-0.7324330510414282
-0.24414435034714274
-3.2715342946517127
-5.420004577706569
-7.763790341039139
-10.10757610437171
-9.619287403677424
-13.525597009231708
-16.45532921339742
-15.869382772564279
-18.799114976729992
-21.045242999923705
-23.389028763256274
-25.732814526588847
-25.24452582589456
-27.1976806286717
-28.66254673075456
-28.369573510337986
-28.369573510337986
-28.369573510337986
-27.392996108949415
-26.709391927977418
-26.807049668116274
-27.68596932936599
-28.467231250476843
-28.27191577019913
-28.369573510337986
-28.27191577019913
-27.295338368810558
-26.61173418783856
-26.709391927977418
-21.92416266117342
-18.21316853589685
-18.994430457007706
-9.326314183260854
-1.9043259327077133
9.71694514381628
20.45929655909056
18.11551079575799
34.81498435950255
47.31517509727627
44.580758373388264
60.401312275883114
72.12024109254597
81.88601510643167
92.14007782101167
89.7962920576791
98.87846189059282
105.42153047989623
103.95666437781338
109.91378652628366
114.30838483253224
116.16388189517052
118.60532539864195
118.01937895780881
118.99595635919738
119.67956054016938
119.48424505989166
117.62874799725337
116.06622415503166
112.5505455100328
109.42549782558937
110.10910200656139
105.12855725947966
101.41756313420309
102.19882505531396
97.21828030823224
93.50728618295567
89.50331883726253
85.59700923170824
86.47592889295797
82.37430380712597
79.44457160296025
80.12817578393225
76.12420843823911
73.09681849393453
69.9717708094911
66.84672312504769
67.53032730601969
63.526359960326545
60.49897001602197
61.182574196993976
57.178606851300835
54.24887464713512
50.04959182116426
46.240939955748836
47.0222018768597
42.04165712977798
38.42832074464027
39.20958266575113
34.22903791866941
30.518043793392845
25.63515678644999
20.947585259784848
22.021820401312276
16.064698252841993
11.670099946593423
12.646677347981994
6.6895551995117115
2.2949568932631417
-1.416037232013428
-5.420004577706569
-4.541084916456855
-7.568474860761425
-9.71694514381628
-9.228656443121995
-12.256046387426567
-14.404516670481422
-15.869382772564279
-17.43190661478599
-17.041275654230564
-19.092088197146563
-20.45929655909056
-20.16632333867399
-21.24055848020142
-21.92416266117342
-21.728847180895706
-21.728847180895706
-21.728847180895706
-19.87335011825742
-18.310826276035705
-18.701457236591136
-14.795147631036851
-11.865415426871138
-5.810635538261997
-0.43945983062485694
-1.6113527122911422
7.080186160067139
13.720912489509422
12.256046387426567
22.119478141451133
29.443808651865414
36.475165941863125
43.50652323186084
41.84634164950027
49.85427634088655
55.713740749217976
54.346532387273975
59.42473487449455
63.03807125963226
64.11230640115969
65.77248798352025
65.38185702296482
64.50293736171511
63.72167544060426
63.91699092088197
61.86617837796597
60.401312275883114
57.86221103227283
55.51842526894026
56.006713969634546
53.07698176546884
50.83085374227512
51.31914244296941
49.26832990005341
47.80346379797055
47.11985961699855
46.33859769588769
46.43625543602655
46.43625543602655
46.43625543602655
46.43625543602655
46.33859769588769
46.33859769588769
46.33859769588769
46.33859769588769
46.33859769588769
45.362020294499125
44.580758373388264
44.77607385366598
42.822919050888835
41.26039520866713
37.84237430380713
34.717326619363696
35.4009308003357
30.518043793392845
26.807049668116274
27.588311589227132
22.60776684214542
18.994430457007706
14.013885709925994
9.42397192339971
10.400549324788281
5.420004577706569
1.7090104524299992
2.5879301136797133
-4.248111696040284
-9.326314183260854
-13.916227969787137
-18.60379949645228
-17.627222095063708
-24.4632639047837
-29.63912413214313
-28.467231250476843
-35.4009308003357
-40.57679102769512
-45.16670481422141
-49.85427634088655
-48.78004119935912
-53.760585946440834
-57.37392233157855
-56.59266041046769
-59.62005035477226
-61.768520637827116
-63.13572899977112
-64.69825284199283
-64.40527962157626
-65.38185702296482
-66.06546120393683
-65.8701457236591
-64.01464866102083
-62.45212481879911
-60.8896009765774
-59.32707713435569
-59.62005035477226
-56.690318150606544
-54.44419012741283
-54.932478828107115
-51.90508888380255
-49.75661860074769
-46.33859769588769
-43.311207751583126
-43.99481193255512
-42.822919050888835
-42.13931486991684
-42.236972610055695
-43.11589227130541
-43.89715419241627
-44.67841611352712
-45.45967803463798
-45.26436255436027
-44.28778515297169
-43.50652323186084
-43.70183871213855
-39.79552910658427
-36.86579690241855
-33.64309147783627
-30.518043793392845
-31.201647974364842
-26.318760967421987
-22.60776684214542
-23.389028763256274
-20.361638818951704
-18.21316853589685
-19.58037689784085
-20.263981078812847
-20.068665598535134
-24.853894865339132
-28.564888990615703
-27.783627069504846
-32.6665140764477
-36.37750820172427
-40.28381780727855
-44.19012741283284
-43.311207751583126
-46.33859769588769
-48.48706797894255
-47.998779278248264
-51.02616922255284
-53.17463950560769
-54.54184786755169
-56.20202944991226
-55.81139848935683
-57.764553292133975
-59.22941939421683
-58.8387884336614
-58.936446173800256
-58.8387884336614
-59.815365835049974
-60.49897001602197
-60.401312275883114
-59.42473487449455
-58.643472953383686
-58.8387884336614
-58.74113069352254
-58.74113069352254
-57.764553292133975
-56.983291371023114
-57.178606851300835
-57.08094911116198
-57.08094911116198
-57.08094911116198
-56.1043717097734
-55.32310978866255
-54.54184786755169
-53.760585946440834
-53.85824368657969
-52.881666285191116
-52.10040436408026
-52.295719844357976
-49.365987640192266
-47.11985961699855
-44.77607385366598
-42.33463035019455
-42.92057679102769
-38.91660944533455
-35.98687724116884
-36.67048142214084
-33.64309147783627
-31.396963454642556
-29.9320973525597
-28.369573510337986
-28.66254673075456
-25.732814526588847
-23.48668650339513
-23.974975204089418
-20.068665598535134
-17.13893339436942
-13.916227969787137
-10.888838025482567
-11.572442206454566
-6.591897459372854
-2.8809033340962844
-3.7598229953459983
1.1230640115968566
4.834058136873426
9.71694514381628
14.306858930342566
13.330281528953995
18.310826276035705
21.92416266117342
21.14290074006256
26.123445487144274
29.736781872281988
33.74074921797513
37.549401083390556
36.67048142214084
39.79552910658427
41.943999389639124
41.45571068894484
41.5533684290837
41.45571068894484
40.479133287556266
39.79552910658427
39.893186846723125
36.96345464255741
34.81498435950255
35.303273060196844
30.322728313115128
26.709391927977418
23.682001983672848
20.45929655909056
21.14290074006256
16.260013733119706
12.549019607843137
13.427939269092851
8.44739452201114
4.736400396734569
2.68558785381857
0.24414435034714274
0.8300907911802854
-2.0996414129854277
-4.248111696040284
-3.7598229953459983
-5.810635538261997
-7.275501640344854
-7.861448081177996
-8.642710002288853
-8.545052262149996
-10.498207064927138
-11.963073167009995
-11.572442206454566
-12.646677347981994
-13.330281528953995
-15.088120851453422
-16.55298695353628
-16.260013733119706
-18.21316853589685
-19.678034637979707
-19.385061417563133
-22.314793621728846
-24.4632639047837
-25.92813000686656
-27.49065384908827
-27.100022888532845
-28.174258030060273
-28.857862211032273
-28.66254673075456
-29.63912413214313
-30.420386053253985
-31.201647974364842
-31.9829098954757
-31.787594415197987
-30.811017013809415
-30.127412832837415
-30.22507057297627
-29.2484931715877
-28.467231250476843
-26.709391927977418
-25.24452582589456
-25.537499046311133
-23.58434424353399
-22.119478141451133
-22.412451361867703
-19.48271915770199
-17.236591134508277
-13.916227969787137
-10.79118028534371
-11.47478446631571
-6.591897459372854
-2.8809033340962844
-3.662165255207141
1.1230640115968566
4.834058136873426
9.71694514381628
14.404516670481422
13.330281528953995
19.287403677424276
23.682001983672848
22.705424582284277
27.68596932936599
31.2993057145037
35.303273060196844
39.20958266575113
38.33066300450141
43.21355001144427
46.92454413672083
46.04562447547112
50.04959182116426
52.97932402532997
54.24887464713512
55.81139848935683
55.420767528801406
53.56527046616312
52.10040436408026
52.39337758449683
45.654993514915695
40.38147554741741
33.93606469825284
27.68596932936599
29.053177691309987
23.974975204089418
20.361638818951704
21.14290074006256
18.11551079575799
15.869382772564279
15.47875181200885
14.599832150759136
14.795147631036851
16.650644693675137
18.11551079575799
17.82253757534142
19.775692378118563
21.24055848020142
19.971007858396277
19.287403677424276
19.385061417563133
14.599832150759136
10.888838025482567
11.670099946593423
7.666132600900283
4.736400396734569
2.5879301136797133
0.14648661020828566
0.7324330510414282
-2.197299153124285
-4.345769436179141
-3.8574807354848555
-6.884870679789426
-9.033340962844282
-11.47478446631571
-13.81857022964828
-13.232623788815136
-17.13893339436942
-20.16632333867399
-19.48271915770199
-24.365606164644845
-28.076600289921416
-31.9829098954757
-35.889219501029984
-35.010299839780274
-40.86976424811169
-45.26436255436027
-44.28778515297169
-50.24490730144198
-54.639505607690545
-57.471580071717405
-60.59662775616083
-59.91302357518883
-62.9404135194934
-65.08888380254825
-64.60059510185397
-64.69825284199283
-64.60059510185397
-63.6240177004654
-62.84275577935454
-63.03807125963226
-59.13176165407798
-56.20202944991226
-56.7879758907454
-50.928511482413974
-46.43625543602655
-39.79552910658427
-33.64309147783627
-35.010299839780274
-27.97894254978256
-22.90074006256199
-23.974975204089418
-16.064698252841993
-10.205233844510566
-5.810635538261997
-1.0254062714579995
-2.0996414129854277
3.7598229953459983
8.154421301594567
7.177843900205997
13.13496604867628
17.52956435492485
21.338216220340275
25.24452582589456
24.365606164644845
28.369573510337986
31.2993057145037
30.615701533531702
34.61966887922484
37.549401083390556
39.69787136644541
42.04165712977798
41.5533684290837
43.50652323186084
44.97138933394369
44.67841611352712
45.654993514915695
46.33859769588769
47.11985961699855
47.90112153810941
47.705806057831694
47.80346379797055
47.705806057831694
47.705806057831694
48.68238345922026
49.365987640192266
49.17067215991455
49.26832990005341
49.17067215991455
48.291752498664835
47.51049057755398
47.60814831769284
46.63157091630426
45.85030899519341
45.069047074082555
44.28778515297169
44.48310063324941
42.43228809033341
40.96742198825055
41.26039520866713
39.307240405889985
37.84237430380713
37.15877012283513
36.37750820172427
36.57282368200198
34.52201113908598
33.05714503700313
33.44777599755856
30.420386053253985
28.27191577019913
26.807049668116274
25.24452582589456
25.537499046311133
22.60776684214542
20.361638818951704
20.84992751964599
17.920195315480278
15.674067292286564
14.209201190203707
12.646677347981994
13.037308308537423
10.986495765621424
9.521629663538567
9.81460288395514
7.861448081177996
6.39658197909514
4.834058136873426
3.2715342946517127
3.5645075150682843
1.6113527122911422
0.14648661020828566
0.43945983062485694
-1.416037232013428
-2.8809033340962844
-3.466849774929427
-4.345769436179141
-4.150453955901427
-4.150453955901427
-4.150453955901427
-4.150453955901427
-2.2949568932631417
-0.7324330510414282
1.7090104524299992
3.9551384756237127
3.466849774929427
6.39658197909514
8.642710002288853
8.154421301594567
13.037308308537423
16.748302433813993
19.678034637979707
22.803082322423133
22.119478141451133
27.100022888532845
30.71335927367056
29.9320973525597
34.81498435950255
38.525978484779124
41.45571068894484
44.67841611352712
43.89715419241627
46.92454413672083
49.073014419775696
48.584725719081405
50.635538261997404
52.10040436408026
52.6863508049134
53.467612726024264
53.27229724574655
52.295719844357976
51.61211566338598
51.709773403524835
48.78004119935912
46.533913176165406
44.19012741283284
41.84634164950027
42.33463035019455
35.49858854047456
30.322728313115128
31.494621194781413
22.60776684214542
15.967040512703136
9.81460288395514
3.5645075150682843
4.931715877012284
-0.04882887006942855
-3.662165255207141
-2.8809033340962844
-4.931715877012284
-6.39658197909514
-6.103608758678568
-6.201266498817426
-6.103608758678568
-2.2949568932631417
0.537117570763714
-0.04882887006942855
2.8809033340962844
5.127031357289998
3.662165255207141
2.9785610742351416
3.1738765545128556
1.2207217517357138
-0.14648661020828566
0.04882887006942855
-2.783245593957427
-5.0293736171511405
-7.373159380483711
-9.71694514381628
-9.130998702983138
-11.181811245899137
-12.646677347981994
-12.353704127565424
-14.306858930342566
-15.771725032425422
-16.357671473258563
-17.236591134508277
-17.041275654230564
-18.017853055619135
-18.701457236591136
-18.506141756313422
-18.60379949645228
-18.60379949645228
-19.48271915770199
-20.263981078812847
-20.068665598535134
-20.068665598535134
-20.068665598535134
-20.068665598535134
-20.068665598535134
-20.068665598535134
-19.092088197146563
-18.40848401617456
-18.506141756313422
-17.52956435492485
-16.748302433813993
-16.943617914091707
-14.013885709925994
-11.865415426871138
-9.42397192339971
-7.080186160067139
-7.666132600900283
-3.662165255207141
-0.7324330510414282
-1.416037232013428
2.490272373540856
5.420004577706569
8.545052262149996
11.670099946593423
10.986495765621424
13.037308308537423
14.50217441062028
14.209201190203707
16.16235599298085
17.627222095063708
17.236591134508277
17.334248874647134
17.334248874647134
17.334248874647134
17.334248874647134
17.334248874647134
16.357671473258563
15.576409552147707
14.795147631036851
14.013885709925994
14.209201190203707
13.232623788815136
12.45136186770428
12.646677347981994
10.693522545204852
9.228656443121995
7.568474860761425
6.005951018539712
6.39658197909514
3.466849774929427
1.2207217517357138
1.7090104524299992
-2.0996414129854277
-5.0293736171511405
-8.252079041733426
-11.377126726176853
-10.595864805065995
-15.576409552147707
-19.18974593728542
-18.40848401617456
-23.389028763256274
-27.002365148393988
-31.00633249408713
-34.81498435950255
-33.93606469825284
-38.91660944533455
-42.62760357061112
-41.74868390936141
-46.72922865644312
-50.34256504158083
-52.39337758449683
-54.83482108796826
-54.24887464713512
-57.178606851300835
-59.42473487449455
-58.8387884336614
-60.8896009765774
-62.35446707866026
-63.91699092088197
-65.38185702296482
-65.08888380254825
-66.06546120393683
-66.74906538490883
-66.55374990463112
-67.53032730601969
-68.31158922713054
-68.99519340810254
-69.77645532921339
-69.58113984893568
-70.55771725032426
-71.24132143129626
-71.1436636911574
-71.1436636911574
-71.04600595101854
-70.06942854962998
-69.38582436865796
-69.48348210879682
-66.55374990463112
-64.3076218814374
-64.79591058213168
-60.8896009765774
-57.86221103227283
-53.760585946440834
-49.85427634088655
-50.73319600213626
-43.79949645227741
-38.62363622491798
-39.79552910658427
-32.86182955672541
-27.68596932936599
-22.119478141451133
-16.650644693675137
-17.920195315480278
-10.888838025482567
-5.810635538261997
-6.884870679789426
-0.9277485313191425
3.36919203479057
7.177843900205997
11.08415350576028
10.205233844510566
14.209201190203707
17.13893339436942
16.45532921339742
18.506141756313422
19.971007858396277
19.678034637979707
19.678034637979707
19.678034637979707
18.701457236591136
18.017853055619135
18.11551079575799
16.16235599298085
14.697489890897993
12.158388647287708
9.912260624093996
10.400549324788281
6.39658197909514
3.466849774929427
4.150453955901427
0.14648661020828566
-2.68558785381857
-5.810635538261997
-8.935683222705425
-8.252079041733426
-12.256046387426567
-15.185778591592278
-14.50217441062028
-18.40848401617456
-21.338216220340275
-23.58434424353399
-25.92813000686656
-25.439841306172273
-31.2993057145037
-35.69390402075227
-34.717326619363696
-42.529945830472265
-48.38941023880369
-54.7371633478294
-60.8896009765774
-59.522392614633404
-63.6240177004654
-66.55374990463112
-65.8701457236591
-66.94438086518655
-67.62798504615854
-65.47951476310368
-64.01464866102083
-64.40527962157626
-59.522392614633404
-55.81139848935683
-56.59266041046769
-50.635538261997404
-46.240939955748836
-45.26436255436027
-43.604180971999696
-43.89715419241627
-43.79949645227741
-43.79949645227741
-43.79949645227741
-42.822919050888835
-42.13931486991684
-41.26039520866713
-40.479133287556266
-40.67444876783398
-39.69787136644541
-38.91660944533455
-39.014267185473415
-36.182192721446555
-33.93606469825284
-30.615701533531702
-27.49065384908827
-28.174258030060273
-23.19371328297856
-19.58037689784085
-20.361638818951704
-12.549019607843137
-6.591897459372854
-0.34180209048599985
5.810635538261997
4.443427176317998
13.330281528953995
19.971007858396277
18.506141756313422
26.416418707560844
32.27588311589227
37.64705882352941
43.11589227130541
41.943999389639124
46.92454413672083
50.635538261997404
49.75661860074769
52.78400854505226
54.932478828107115
56.39734493018997
57.95986877241169
57.56923781185626
57.66689555199512
57.56923781185626
57.56923781185626
56.59266041046769
55.81139848935683
55.03013656824598
54.24887464713512
54.44419012741283
51.51445792324712
49.26832990005341
49.75661860074769
46.72922865644312
44.48310063324941
41.16273746852827
38.03768978408484
38.72129396505684
34.81498435950255
31.787594415197987
32.471198596169984
29.443808651865414
27.1976806286717
23.87731746395056
20.84992751964599
21.533531700617992
18.506141756313422
16.260013733119706
16.748302433813993
13.81857022964828
11.572442206454566
9.228656443121995
6.884870679789426
7.373159380483711
6.298924238956283
5.615320057984283
5.71297779812314
3.7598229953459983
2.2949568932631417
1.7090104524299992
0.8300907911802854
1.0254062714579995
1.0254062714579995
1.0254062714579995
1.0254062714579995
1.0254062714579995
1.0254062714579995
1.0254062714579995
1.0254062714579995
1.0254062714579995
1.0254062714579995
1.0254062714579995
1.0254062714579995
2.0019836728465705
2.68558785381857
2.490272373540856
2.5879301136797133
2.5879301136797133
2.5879301136797133
2.5879301136797133
2.5879301136797133
3.5645075150682843
4.248111696040284
5.0293736171511405
5.810635538261997
5.615320057984283
6.6895551995117115
7.373159380483711
7.177843900205997
10.10757610437171
12.353704127565424
15.674067292286564
18.701457236591136
18.017853055619135
23.87731746395056
28.27191577019913
27.295338368810558
34.22903791866941
39.40489814602884
44.873731593804834
50.34256504158083
49.073014419775696
56.006713969634546
61.182574196993976
60.01068131532769
65.96780346379796
70.36240177004655
73.19447623407339
76.31952391851682
75.53826199740597
78.56565194171054
80.71412222476539
80.2258335240711
79.3469138628214
78.56565194171054
76.8078126192111
75.2452887769894
75.53826199740597
71.63195239185168
68.70222018768597
69.28816662851911
64.40527962157626
60.694285496299685
55.713740749217976
51.123826962691695
52.10040436408026
46.14328221560998
41.74868390936141
42.72526131074998
37.64705882352941
34.0337224383917
30.029755092698558
26.123445487144274
27.002365148393988
22.998397802700847
20.068665598535134
20.654612039368278
17.627222095063708
15.47875181200885
14.013885709925994
12.45136186770428
12.74433508812085
11.767757686732281
10.986495765621424
11.181811245899137
9.228656443121995
7.763790341039139
6.201266498817426
4.638742656595713
4.931715877012284
2.0019836728465705
-0.14648661020828566
0.24414435034714274
-1.6113527122911422
-3.076218814373999
-5.615320057984283
-7.959105821316854
-7.373159380483711
-12.256046387426567
-15.967040512703136
-15.185778591592278
-22.021820401312276
-27.1976806286717
-31.787594415197987
-36.475165941863125
-35.4009308003357
-37.549401083390556
-38.91660944533455
-38.62363622491798
-37.74471656366827
-36.96345464255741
-34.22903791866941
-31.9829098954757
-32.471198596169984
-26.61173418783856
-22.119478141451133
-23.096055542839704
-18.11551079575799
-14.50217441062028
-12.45136186770428
-10.009918364232853
-10.498207064927138
-9.42397192339971
-8.74036774242771
-8.935683222705425
-6.982528419928283
-5.517662317845426
-2.9785610742351416
-0.6347753109025711
-1.1230640115968566
3.662165255207141
7.373159380483711
6.494239719233997
11.47478446631571
15.088120851453422
19.092088197146563
22.998397802700847
22.119478141451133
27.100022888532845
30.71335927367056
29.9320973525597
32.95948729686427
35.10795757991913
37.4517433432517
39.79552910658427
39.307240405889985
40.28381780727855
41.065079728389414
40.86976424811169
40.86976424811169
40.86976424811169
38.91660944533455
37.4517433432517
37.74471656366827
35.79156176089113
34.32669565880827
34.61966887922484
30.71335927367056
27.783627069504846
23.58434424353399
19.775692378118563
20.55695429922942
15.576409552147707
11.963073167009995
12.74433508812085
7.763790341039139
4.150453955901427
1.1230640115968566
-1.9043259327077133
-1.2207217517357138
-4.248111696040284
-6.39658197909514
-5.908293278400855
-7.959105821316854
-9.42397192339971
-10.009918364232853
-10.888838025482567
-10.693522545204852
-13.623254749370565
-15.771725032425422
-15.283436331731137
-18.310826276035705
-20.45929655909056
-23.779659723811704
-26.90470740825513
-26.123445487144274
-31.103990234225986
-34.717326619363696
-33.93606469825284
-37.94003204394598
-40.86976424811169
-43.99481193255512
-47.11985961699855
-46.33859769588769
-49.365987640192266
-51.51445792324712
-51.02616922255284
-54.053559166857404
-56.20202944991226
-57.56923781185626
-59.13176165407798
-58.8387884336614
-59.815365835049974
-60.49897001602197
-60.30365453574426
-61.28023193713283
-62.061493858243686
-62.84275577935454
-63.526359960326545
-63.33104448004883
-63.42870222018769
-63.33104448004883
-63.33104448004883
-61.37788967727169
-59.91302357518883
-58.350499732967116
-56.690318150606544
-57.08094911116198
-52.19806210421912
-48.48706797894255
-49.26832990005341
-43.40886549172198
-38.91660944533455
-34.131380178530556
-29.443808651865414
-30.518043793392845
-24.560921644922562
-20.16632333867399
-21.14290074006256
-16.16235599298085
-12.45136186770428
-9.42397192339971
-6.298924238956283
-6.982528419928283
-4.931715877012284
-3.466849774929427
-3.7598229953459983
-1.8066681925688564
-0.34180209048599985
1.1230640115968566
2.68558785381857
2.392614633401999
3.36919203479057
4.150453955901427
3.9551384756237127
3.9551384756237127
3.9551384756237127
3.9551384756237127
3.9551384756237127
3.9551384756237127
2.9785610742351416
2.2949568932631417
2.490272373540856
1.416037232013428
0.7324330510414282
0.04882887006942855
-0.7324330510414282
-0.537117570763714
-2.490272373540856
-3.9551384756237127
-3.662165255207141
-5.615320057984283
-7.080186160067139
-7.763790341039139
-8.545052262149996
-8.349736781872283
-10.302891584649425
-11.767757686732281
-11.47478446631571
-11.572442206454566
-11.47478446631571
-12.45136186770428
-13.232623788815136
-13.037308308537423
-13.037308308537423
-13.037308308537423
-13.037308308537423
-14.013885709925994
-14.697489890897993
-15.576409552147707
-16.260013733119706
-16.16235599298085
-18.11551079575799
-19.58037689784085
-19.18974593728542
-21.14290074006256
-22.60776684214542
-23.291371023117417
-24.072632944228275
-23.87731746395056
-25.830472266727703
-27.295338368810558
-27.002365148393988
-27.002365148393988
-27.002365148393988
-27.97894254978256
-28.66254673075456
-28.467231250476843
-30.420386053253985
-31.885252155336843
-31.592278934920273
-36.37750820172427
-40.08850232700084
-43.99481193255512
-47.90112153810941
-47.0222018768597
-46.240939955748836
-45.45967803463798
-45.654993514915695
-41.74868390936141
-38.818951705195694
-30.811017013809415
-23.974975204089418
-25.537499046311133
-13.720912489509422
-4.834058136873426
-6.787212939650568
4.931715877012284
13.81857022964828
20.45929655909056
27.49065384908827
25.92813000686656
30.127412832837415
32.95948729686427
32.37354085603113
36.27985046158541
39.20958266575113
41.45571068894484
43.79949645227741
43.21355001144427
45.26436255436027
46.72922865644312
46.33859769588769
48.291752498664835
49.75661860074769
50.34256504158083
51.22148470283055
51.02616922255284
51.02616922255284
51.02616922255284
50.928511482413974
50.04959182116426
49.26832990005341
48.48706797894255
47.60814831769284
47.80346379797055
45.85030899519341
44.38544289311055
44.67841611352712
43.604180971999696
42.92057679102769
41.16273746852827
39.600213626306555
39.893186846723125
37.94003204394598
36.475165941863125
36.768139162279695
35.69390402075227
35.010299839780274
33.252460517280845
31.68993667505913
31.9829098954757
30.029755092698558
28.564888990615703
28.857862211032273
26.90470740825513
25.342183566033416
23.779659723811704
22.21713588158999
22.60776684214542
21.533531700617992
20.752269779507134
20.947585259784848
19.971007858396277
19.18974593728542
17.43190661478599
15.967040512703136
16.260013733119706
14.306858930342566
12.84199282825971
13.13496604867628
11.181811245899137
9.71694514381628
7.177843900205997
4.834058136873426
5.322346837567712
3.2715342946517127
1.8066681925688564
2.197299153124285
0.14648661020828566
-1.2207217517357138
-1.8066681925688564
-2.5879301136797133
-2.392614633401999
-2.490272373540856
-2.490272373540856
-2.490272373540856
-2.490272373540856
-2.490272373540856
-1.513694972152285
-0.7324330510414282
-0.9277485313191425
1.9043259327077133
4.052796215762569
3.5645075150682843
5.615320057984283
7.080186160067139
10.595864805065995
13.623254749370565
12.939650568398566
16.84596017395285
19.775692378118563
19.18974593728542
24.072632944228275
27.783627069504846
32.6665140764477
37.256427862973986
36.27985046158541
43.11589227130541
48.291752498664835
47.11985961699855
55.03013656824598
60.8896009765774
65.28419928282597
69.9717708094911
68.89753566796368
73.87808041504539
77.4914168001831
76.71015487907225
77.78439002059967
78.46799420157168
77.29610131990539
76.61249713893339
76.71015487907225
73.78042267490653
71.53429465171283
72.02258335240711
68.11627374685283
65.08888380254825
60.987258716716255
57.08094911116198
57.95986877241169
52.97932402532997
49.26832990005341
50.04959182116426
45.069047074082555
41.45571068894484
37.4517433432517
33.545433737697415
34.424353398947126
31.2993057145037
29.150835431448844
29.63912413214313
26.61173418783856
24.4632639047837
22.021820401312276
19.678034637979707
20.16632333867399
18.21316853589685
16.748302433813993
17.041275654230564
14.11154345006485
11.865415426871138
10.498207064927138
8.838025482566568
9.228656443121995
6.298924238956283
4.052796215762569
4.541084916456855
2.490272373540856
1.0254062714579995
-0.43945983062485694
-2.0019836728465705
-1.6113527122911422
-4.541084916456855
-6.787212939650568
-6.298924238956283
-8.349736781872283
-9.81460288395514
-12.353704127565424
-14.599832150759136
-14.11154345006485
-17.041275654230564
-19.287403677424276
-18.799114976729992
-20.752269779507134
-22.21713588158999
-23.779659723811704
-25.342183566033416
-25.049210345616846
-25.049210345616846
-25.049210345616846
-25.049210345616846
-23.096055542839704
-21.63118944075685
-18.11551079575799
-15.088120851453422
-15.771725032425422
-13.720912489509422
-12.256046387426567
-12.549019607843137
-10.595864805065995
-9.130998702983138
-6.591897459372854
-4.248111696040284
-4.736400396734569
1.9043259327077133
7.080186160067139
5.908293278400855
14.795147631036851
21.43587396047913
30.420386053253985
38.91660944533455
37.06111238269627
47.90112153810941
56.006713969634546
54.15121690699626
63.13572899977112
69.77645532921339
72.02258335240711
75.34294651712825
74.5616845960174
74.75700007629511
74.65934233615626
74.65934233615626
72.70618753337911
71.24132143129626
68.60456244754711
66.3584344243534
66.84672312504769
61.86617837796597
58.25284199282826
59.03410391393912
53.07698176546884
48.68238345922026
42.92057679102769
37.4517433432517
38.72129396505684
30.811017013809415
24.853894865339132
26.22110322728313
17.334248874647134
10.693522545204852
4.541084916456855
-1.7090104524299992
-0.24414435034714274
-8.252079041733426
-14.11154345006485
-12.74433508812085
-19.775692378118563
-24.853894865339132
-29.443808651865414
-34.131380178530556
-33.15480277714199
-38.1353475242237
-41.74868390936141
-40.96742198825055
-46.826886396581976
-51.22148470283055
-54.053559166857404
-57.178606851300835
-56.49500267032883
-61.37788967727169
-65.08888380254825
-64.20996414129854
-68.21393148699168
-71.1436636911574
-74.26871137560083
-77.39375906004425
-76.61249713893339
-80.61646448462653
-83.4485389486534
-82.7649347676814
-84.81574731059739
-86.28061341268025
-87.84313725490196
-89.30800335698481
-89.01503013656824
-89.99160753795681
-90.67521171892882
-90.47989623865111
-91.45647364003968
-92.14007782101167
-90.08926527809568
-88.62439917601282
-88.91737239642939
-86.8665598535134
-85.40169375143053
-85.6946669718471
-81.78835736629281
-78.76096742198825
-73.68276493476768
-69.0928511482414
-70.06942854962998
-64.11230640115969
-59.62005035477226
-60.59662775616083
-53.66292820630198
-48.48706797894255
-43.018234531166556
-37.549401083390556
-38.72129396505684
-31.787594415197987
-26.61173418783856
-27.68596932936599
-19.87335011825742
-13.916227969787137
-7.568474860761425
-1.3183794918745708
-2.783245593957427
4.150453955901427
9.228656443121995
8.154421301594567
14.11154345006485
18.506141756313422
21.338216220340275
24.560921644922562
23.779659723811704
25.830472266727703
27.295338368810558
27.002365148393988
26.123445487144274
25.342183566033416
23.58434424353399
22.021820401312276
22.412451361867703
19.385061417563133
17.236591134508277
17.724879835202564
13.720912489509422
10.79118028534371
7.666132600900283
4.541084916456855
5.224689097428855
1.2207217517357138
-1.6113527122911422
-0.9277485313191425
-4.931715877012284
-7.861448081177996
-10.986495765621424
-14.11154345006485
-13.427939269092851
-16.45532921339742
-18.60379949645228
-18.11551079575799
-21.14290074006256
-23.291371023117417
-25.63515678644999
-27.97894254978256
-27.49065384908827
-30.420386053253985
-32.6665140764477
-32.178225375753414
-36.0845349813077
-39.014267185473415
-42.13931486991684
-45.26436255436027
-44.48310063324941
-47.51049057755398
-49.75661860074769
-49.17067215991455
-52.19806210421912
-54.346532387273975
-55.713740749217976
-57.37392233157855
-56.983291371023114
-58.936446173800256
-60.401312275883114
-60.01068131532769
-60.108339055466544
-60.01068131532769
-60.01068131532769
-60.01068131532769
-60.01068131532769
-59.03410391393912
-58.25284199282826
-58.44815747310597
-57.37392233157855
-56.690318150606544
-54.932478828107115
-53.36995498588541
-53.66292820630198
-50.73319600213626
-48.48706797894255
-48.97535667963683
-44.09246967269398
-40.38147554741741
-36.37750820172427
-32.471198596169984
-33.3501182574197
-28.369573510337986
-24.65857938506142
-25.537499046311133
-20.55695429922942
-16.84596017395285
-11.963073167009995
-7.275501640344854
-8.349736781872283
-5.224689097428855
-3.076218814373999
-3.5645075150682843
-3.466849774929427
-3.466849774929427
-2.490272373540856
-1.7090104524299992
-1.9043259327077133
0.9277485313191425
3.076218814373999
2.5879301136797133
7.470817120622568
11.181811245899137
15.185778591592278
18.994430457007706
18.11551079575799
25.049210345616846
30.22507057297627
29.053177691309987
34.0337224383917
37.64705882352941
38.818951705195694
40.38147554741741
40.08850232700084
39.11192492561227
38.42832074464027
38.525978484779124
36.57282368200198
35.10795757991913
34.424353398947126
33.64309147783627
33.838406958113985
30.908674753948272
28.66254673075456
29.150835431448844
26.123445487144274
23.974975204089418
21.533531700617992
19.18974593728542
19.775692378118563
15.771725032425422
12.84199282825971
13.525597009231708
9.521629663538567
6.591897459372854
4.345769436179141
2.0019836728465705
2.490272373540856
-0.34180209048599985
-2.5879301136797133
-2.0996414129854277
-5.0293736171511405
-7.275501640344854
-8.642710002288853
-10.205233844510566
-9.912260624093996
-11.865415426871138
-13.330281528953995
-13.037308308537423
-14.990463111314565
-16.45532921339742
-17.041275654230564
-17.920195315480278
-17.724879835202564
-18.701457236591136
-19.385061417563133
-19.287403677424276
-19.287403677424276
-19.287403677424276
-19.287403677424276
-19.287403677424276
-19.287403677424276
-18.310826276035705
-17.52956435492485
-17.724879835202564
-14.795147631036851
-12.549019607843137
-10.205233844510566
-7.861448081177996
-8.349736781872283
-3.466849774929427
0.14648661020828566
-0.6347753109025711
4.248111696040284
7.959105821316854
11.865415426871138
15.771725032425422
14.892805371175708
21.728847180895706
26.90470740825513
25.732814526588847
33.64309147783627
39.5025558861677
46.826886396581976
53.760585946440834
52.19806210421912
60.108339055466544
65.96780346379796
64.69825284199283
71.63195239185168
76.71015487907225
79.3469138628214
82.56961928740368
81.88601510643167
82.96025024795911
83.6438544289311
83.4485389486534
82.47196154726483
81.69069962615396
77.10078583962768
73.29213397421225
74.07339589532312
67.23735408560312
62.061493858243686
63.13572899977112
55.22545204852369
49.365987640192266
42.04165712977798
35.10795757991913
36.57282368200198
28.564888990615703
22.705424582284277
24.072632944228275
16.064698252841993
10.205233844510566
5.810635538261997
1.0254062714579995
2.0996414129854277
-2.783245593957427
-6.494239719233997
-5.615320057984283
-8.74036774242771
-10.888838025482567
-13.232623788815136
-15.576409552147707
-15.088120851453422
-17.041275654230564
-18.506141756313422
-19.18974593728542
-19.971007858396277
-19.775692378118563
-20.752269779507134
-21.533531700617992
-21.338216220340275
-22.314793621728846
-22.998397802700847
-22.90074006256199
-24.853894865339132
-26.318760967421987
-28.760204470893417
-31.103990234225986
-30.615701533531702
-33.545433737697415
-35.69390402075227
-35.20561532005799
-39.11192492561227
-42.04165712977798
-44.28778515297169
-46.63157091630426
-46.14328221560998
-48.09643701838712
-49.56130312046998
-49.17067215991455
-49.26832990005341
-49.26832990005341
-47.31517509727627
-45.85030899519341
-46.14328221560998
-42.236972610055695
-39.307240405889985
-32.27588311589227
-26.22110322728313
-27.49065384908827
-16.748302433813993
-8.642710002288853
-10.400549324788281
4.248111696040284
15.283436331731137
12.84199282825971
27.68596932936599
38.72129396505684
50.53788052185855
62.2568093385214
59.62005035477226
72.60852979324025
82.0813305867094
87.55016403448539
93.99557488364995
92.5307087815671
97.51125352864881
101.12458991378652
100.34332799267567
101.41756313420309
102.1011673151751
100.92927443350881
100.24567025253681
100.34332799267567
98.39017318989853
96.82764934767681
97.12062256809338
91.35881589990082
86.8665598535134
78.27267872129397
70.55771725032426
72.31555657282368
61.37788967727169
53.27229724574655
55.03013656824598
47.0222018768597
41.16273746852827
37.64705882352941
33.64309147783627
34.52201113908598
33.3501182574197
32.6665140764477
32.764171816586554
33.74074921797513
34.424353398947126
37.15877012283513
39.40489814602884
38.818951705195694
38.91660944533455
38.91660944533455
38.91660944533455
36.96345464255741
35.49858854047456
32.95948729686427
30.615701533531702
31.103990234225986
28.174258030060273
25.92813000686656
26.416418707560844
22.510109102006563
19.58037689784085
14.404516670481422
9.81460288395514
10.888838025482567
4.931715877012284
0.537117570763714
1.513694972152285
-5.322346837567712
-10.498207064927138
-15.967040512703136
-21.43587396047913
-20.263981078812847
-27.1976806286717
-32.27588311589227
-31.201647974364842
-36.182192721446555
-39.79552910658427
-43.79949645227741
-47.60814831769284
-46.72922865644312
-48.877698939497975
-50.24490730144198
-49.951934081025406
-50.928511482413974
-51.709773403524835
-50.53788052185855
-49.85427634088655
-49.951934081025406
-47.998779278248264
-46.533913176165406
-46.826886396581976
-42.92057679102769
-39.99084458686198
-35.79156176089113
-31.9829098954757
-32.764171816586554
-28.760204470893417
-25.830472266727703
-26.514076447699704
-21.533531700617992
-17.82253757534142
-14.892805371175708
-11.670099946593423
-12.353704127565424
-8.44739452201114
-5.517662317845426
-6.103608758678568
-4.052796215762569
-2.5879301136797133
-0.04882887006942855
2.0996414129854277
1.6113527122911422
2.68558785381857
3.36919203479057
3.2715342946517127
3.2715342946517127
3.2715342946517127
1.3183794918745708
-0.04882887006942855
0.24414435034714274
-3.5645075150682843
-6.591897459372854
-5.908293278400855
-11.767757686732281
-16.16235599298085
-20.947585259784848
-25.63515678644999
-24.560921644922562
-31.494621194781413
-36.57282368200198
-35.4009308003357
-41.358052948805984
-45.75265125505455
-49.56130312046998
-53.467612726024264
-52.588693064774546
-56.59266041046769
-59.522392614633404
-58.8387884336614
-60.8896009765774
-62.2568093385214
-62.9404135194934
-63.72167544060426
-63.526359960326545
-63.526359960326545
-63.526359960326545
-63.526359960326545
-63.42870222018769
-63.42870222018769
-62.45212481879911
-61.67086289768826
-61.86617837796597
-62.745098039215684
-63.42870222018769
-63.33104448004883
-63.33104448004883
-63.233386739909974
-64.20996414129854
-64.89356832227054
-64.79591058213168
-66.65140764476998
-68.11627374685283
-67.82330052643626
-69.77645532921339
-71.1436636911574
-72.70618753337911
-74.26871137560083
-73.87808041504539
-74.95231555657283
-75.63591973754482
-75.44060425726711
-76.41718165865568
-77.10078583962768
-76.90547035934996
-76.90547035934996
-76.90547035934996
-74.95231555657283
-73.48744945448996
-73.78042267490653
-71.72961013199054
-70.26474402990769
-66.74906538490883
-63.72167544060426
-64.40527962157626
-59.42473487449455
-55.713740749217976
-56.49500267032883
-50.635538261997404
-46.14328221560998
-41.358052948805984
-36.67048142214084
-37.74471656366827
-31.787594415197987
-27.392996108949415
-28.369573510337986
-23.291371023117417
-19.678034637979707
-15.674067292286564
-11.767757686732281
-12.646677347981994
-8.642710002288853
-5.71297779812314
-6.39658197909514
-3.36919203479057
-1.1230640115968566
1.1230640115968566
3.466849774929427
2.9785610742351416
5.908293278400855
8.154421301594567
7.666132600900283
9.619287403677424
11.08415350576028
11.767757686732281
12.549019607843137
12.353704127565424
13.330281528953995
14.11154345006485
13.916227969787137
13.037308308537423
12.256046387426567
11.47478446631571
10.693522545204852
10.79118028534371
8.838025482566568
7.373159380483711
7.763790341039139
2.8809033340962844
-0.7324330510414282
-7.568474860761425
-13.623254749370565
-12.256046387426567
-20.263981078812847
-26.123445487144274
-24.756237125200276
-28.857862211032273
-31.787594415197987
-32.08056763561456
-32.95948729686427
-32.764171816586554
-30.908674753948272
-29.346150911726557
-29.736781872281988
-23.87731746395056
-19.385061417563133
-15.674067292286564
-11.670099946593423
-12.549019607843137
-10.498207064927138
-9.033340962844282
-9.326314183260854
-12.158388647287708
-14.404516670481422
-15.771725032425422
-17.334248874647134
-17.041275654230564
-19.971007858396277
-22.119478141451133
-21.63118944075685
-24.65857938506142
-26.807049668116274
-28.174258030060273
-29.834439612420844
-29.443808651865414
-30.420386053253985
-31.201647974364842
-31.00633249408713
-31.00633249408713
-31.00633249408713
-30.029755092698558
-29.346150911726557
-29.443808651865414
-26.514076447699704
-24.365606164644845
-24.756237125200276
-19.87335011825742
-16.260013733119706
-12.256046387426567
-8.349736781872283
-9.228656443121995
-2.392614633401999
2.68558785381857
1.6113527122911422
7.568474860761425
11.963073167009995
16.650644693675137
21.338216220340275
20.361638818951704
26.22110322728313
30.615701533531702
29.63912413214313
35.596246280613414
39.99084458686198
43.79949645227741
47.705806057831694
46.826886396581976
50.83085374227512
53.760585946440834
53.07698176546884
56.006713969634546
58.25284199282826
58.643472953383686
59.522392614633404
59.32707713435569
59.32707713435569
59.32707713435569
59.32707713435569
58.350499732967116
57.56923781185626
55.81139848935683
54.24887464713512
54.54184786755169
51.61211566338598
49.365987640192266
49.85427634088655
46.826886396581976
44.67841611352712
43.21355001144427
41.651026169222554
41.943999389639124
39.014267185473415
36.768139162279695
37.256427862973986
35.20561532005799
33.74074921797513
32.178225375753414
30.615701533531702
30.908674753948272
28.95551995117113
27.49065384908827
27.783627069504846
25.732814526588847
24.267948424505988
23.682001983672848
22.803082322423133
22.998397802700847
21.045242999923705
19.58037689784085
19.87335011825742
17.920195315480278
16.45532921339742
14.892805371175708
13.330281528953995
13.623254749370565
11.670099946593423
10.205233844510566
10.498207064927138
7.568474860761425
5.322346837567712
3.9551384756237127
2.2949568932631417
2.68558785381857
-0.14648661020828566
-2.392614633401999
-1.9043259327077133
-2.9785610742351416
-3.662165255207141
-5.420004577706569
-6.982528419928283
-6.591897459372854
-7.666132600900283
-8.349736781872283
-8.154421301594567
-8.252079041733426
-8.252079041733426
-6.298924238956283
-4.834058136873426
-5.127031357289998
-1.2207217517357138
1.6113527122911422
0.9277485313191425
5.908293278400855
9.521629663538567
15.381094071869994
20.752269779507134
19.58037689784085
26.514076447699704
31.68993667505913
30.518043793392845
36.475165941863125
40.86976424811169
44.67841611352712
48.584725719081405
47.705806057831694
51.709773403524835
54.54184786755169
53.95590142671855
56.88563363088426
59.13176165407798
60.49897001602197
62.061493858243686
61.67086289768826
62.745098039215684
63.42870222018769
63.233386739909974
63.233386739909974
63.233386739909974
61.28023193713283
59.815365835049974
60.108339055466544
57.178606851300835
54.932478828107115
55.420767528801406
51.416800183108265
48.48706797894255
44.38544289311055
40.479133287556266
41.358052948805984
35.4009308003357
31.00633249408713
31.885252155336843
26.90470740825513
23.291371023117417
20.263981078812847
17.041275654230564
17.82253757534142
13.81857022964828
10.888838025482567
11.47478446631571
9.42397192339971
7.959105821316854
7.373159380483711
6.591897459372854
6.6895551995117115
6.6895551995117115
6.6895551995117115
6.6895551995117115
3.8574807354848555
1.6113527122911422
-4.541084916456855
-9.81460288395514
-8.642710002288853
-16.55298695353628
-22.412451361867703
-21.045242999923705
-27.100022888532845
-31.494621194781413
-34.32669565880827
-37.4517433432517
-36.768139162279695
-38.818951705195694
-40.28381780727855
-39.893186846723125
-39.014267185473415
-38.23300526436255
-38.42832074464027
-38.33066300450141
-38.33066300450141
-39.307240405889985
-39.99084458686198
-39.893186846723125
-43.70183871213855
-46.63157091630426
-48.877698939497975
-51.22148470283055
-50.635538261997404
-52.6863508049134
-54.15121690699626
-53.760585946440834
-53.85824368657969
-53.760585946440834
-51.90508888380255
-50.34256504158083
-50.635538261997404
-46.72922865644312
-43.79949645227741
-44.48310063324941
-38.525978484779124
-34.131380178530556
-26.514076447699704
-19.58037689784085
-21.14290074006256
-12.158388647287708
-5.615320057984283
-7.080186160067139
3.662165255207141
11.767757686732281
19.58037689784085
27.392996108949415
25.63515678644999
35.49858854047456
42.822919050888835
41.26039520866713
49.17067215991455
55.03013656824598
59.42473487449455
64.20996414129854
63.13572899977112
68.11627374685283
71.72961013199054
70.94834821087969
72.99916075379568
74.36636911573969
75.04997329671168
75.83123521782254
75.63591973754482
74.65934233615626
73.87808041504539
73.97573815518425
70.16708628976883
67.13969634546426
63.03807125963226
59.13176165407798
60.01068131532769
54.053559166857404
49.658960860608836
50.53788052185855
43.70183871213855
38.525978484779124
33.93606469825284
29.150835431448844
30.22507057297627
23.291371023117417
18.11551079575799
19.287403677424276
14.209201190203707
10.595864805065995
5.71297779812314
1.0254062714579995
2.0996414129854277
-2.8809033340962844
-6.494239719233997
-5.71297779812314
-10.693522545204852
-14.306858930342566
-19.18974593728542
-23.87731746395056
-22.803082322423133
-27.783627069504846
-31.494621194781413
-30.615701533531702
-35.596246280613414
-39.20958266575113
-43.21355001144427
-47.11985961699855
-46.240939955748836
-49.26832990005341
-51.416800183108265
-50.928511482413974
-53.85824368657969
-56.006713969634546
-56.49500267032883
-57.37392233157855
-57.08094911116198
-58.057526512550545
-58.8387884336614
-58.643472953383686
-58.643472953383686
-58.643472953383686
-58.643472953383686
-58.54581521324483
-58.54581521324483
-55.713740749217976
-53.467612726024264
-53.95590142671855
-50.928511482413974
-48.68238345922026
-43.40886549172198
-38.91660944533455
-39.893186846723125
-33.93606469825284
-29.541466392004274
-30.420386053253985
-23.58434424353399
-18.40848401617456
-13.81857022964828
-9.130998702983138
-10.10757610437171
-5.127031357289998
-1.513694972152285
-2.2949568932631417
2.5879301136797133
6.201266498817426
10.205233844510566
14.11154345006485
13.232623788815136
18.21316853589685
21.826504921034562
21.045242999923705
25.049210345616846
27.97894254978256
29.150835431448844
30.811017013809415
30.420386053253985
31.494621194781413
32.178225375753414
31.9829098954757
31.103990234225986
30.322728313115128
27.588311589227132
25.342183566033416
25.830472266727703
21.92416266117342
18.994430457007706
19.58037689784085
15.674067292286564
12.646677347981994
10.498207064927138
8.05676356145571
8.642710002288853
5.615320057984283
3.466849774929427
3.9551384756237127
1.9043259327077133
0.43945983062485694
-2.0019836728465705
-4.345769436179141
-3.7598229953459983
-6.787212939650568
-8.935683222705425
-8.44739452201114
-11.47478446631571
-13.623254749370565
-16.064698252841993
-18.310826276035705
-17.82253757534142
-20.752269779507134
-22.998397802700847
-22.510109102006563
-25.439841306172273
-27.68596932936599
-29.053177691309987
-30.615701533531702
-30.322728313115128
-32.27588311589227
-33.74074921797513
-33.3501182574197
-38.23300526436255
-41.943999389639124
-46.826886396581976
-51.416800183108265
-50.34256504158083
-56.29968719005112
-60.694285496299685
-59.71770809491112
-62.745098039215684
-64.89356832227054
-62.54978255893797
-61.08491645685512
-61.37788967727169
-57.471580071717405
-54.54184786755169
-55.127794308384836
-46.43625543602655
-39.79552910658427
-32.6665140764477
-25.63515678644999
-27.100022888532845
-19.18974593728542
-13.330281528953995
-14.599832150759136
-8.545052262149996
-4.150453955901427
1.416037232013428
6.884870679789426
5.615320057984283
13.525597009231708
19.385061417563133
18.11551079575799
25.049210345616846
30.22507057297627
33.838406958113985
37.74471656366827
36.86579690241855
40.86976424811169
43.79949645227741
43.11589227130541
46.14328221560998
48.291752498664835
49.75661860074769
51.31914244296941
50.928511482413974
51.02616922255284
50.928511482413974
50.928511482413974
50.928511482413974
50.928511482413974
48.97535667963683
47.51049057755398
47.80346379797055
45.85030899519341
44.28778515297169
44.67841611352712
40.772106507972836
37.74471656366827
34.61966887922484
31.494621194781413
32.178225375753414
27.1976806286717
23.48668650339513
24.365606164644845
18.40848401617456
14.013885709925994
9.228656443121995
4.541084916456855
5.615320057984283
-0.24414435034714274
-4.638742656595713
-3.662165255207141
-10.595864805065995
-15.674067292286564
-19.385061417563133
-23.291371023117417
-22.412451361867703
-26.416418707560844
-29.346150911726557
-28.66254673075456
-31.68993667505913
-33.838406958113985
-34.32669565880827
-35.20561532005799
-35.010299839780274
-35.98687724116884
-36.67048142214084
-36.475165941863125
-36.57282368200198
-36.475165941863125
-36.475165941863125
-36.475165941863125
-36.475165941863125
-36.475165941863125
-36.475165941863125
-36.475165941863125
-34.52201113908598
-33.05714503700313
-32.37354085603113
-31.592278934920273
-31.68993667505913
-28.857862211032273
-26.61173418783856
-27.100022888532845
-24.072632944228275
-21.92416266117342
-19.48271915770199
-17.13893339436942
-17.627222095063708
-13.720912489509422
-10.79118028534371
-11.47478446631571
-5.517662317845426
-1.1230640115968566
4.443427176317998
9.912260624093996
8.642710002288853
17.52956435492485
24.17029068436713
22.705424582284277
32.56885633630884
39.893186846723125
47.80346379797055
55.51842526894026
53.85824368657969
64.69825284199283
72.70618753337911
70.94834821087969
78.95628290226597
84.81574731059739
89.21034561684596
93.8979171435111
92.82368200198367
95.85107194628824
97.99954222934309
97.51125352864881
97.60891126878766
97.51125352864881
95.55809872587167
94.09323262378882
94.38620584420539
90.47989623865111
87.45250629434653
88.13611047531853
83.15556572823682
79.44457160296025
75.44060425726711
71.53429465171283
72.41321431296254
68.31158922713054
65.38185702296482
66.06546120393683
61.08491645685512
57.37392233157855
53.467612726024264
49.56130312046998
50.34256504158083
46.33859769588769
43.40886549172198
43.99481193255512
39.11192492561227
35.4009308003357
31.396963454642556
27.49065384908827
28.369573510337986
23.389028763256274
19.775692378118563
20.55695429922942
15.576409552147707
11.865415426871138
8.935683222705425
5.71297779812314
6.494239719233997
2.490272373540856
-0.34180209048599985
0.14648661020828566
-1.8066681925688564
-3.1738765545128556
-5.810635538261997
-8.05676356145571
-7.568474860761425
-8.642710002288853
-9.326314183260854
-9.130998702983138
-11.08415350576028
-12.549019607843137
-14.11154345006485
-15.674067292286564
-15.381094071869994
-17.334248874647134
-18.799114976729992
-18.506141756313422
-21.43587396047913
-23.58434424353399
-26.90470740825513
-30.029755092698558
-29.346150911726557
-32.27588311589227
-34.52201113908598
-34.0337224383917
-37.94003204394598
-40.86976424811169
-43.018234531166556
-45.362020294499125
-44.873731593804834
-44.97138933394369
-44.97138933394369
-44.873731593804834
-37.256427862973986
-31.2993057145037
-21.14290074006256
-11.963073167009995
-14.013885709925994
1.6113527122911422
13.427939269092851
10.79118028534371
27.588311589227132
40.08850232700084
50.635538261997404
61.67086289768826
59.22941939421683
66.3584344243534
71.43663691157397
70.36240177004655
71.53429465171283
72.12024109254597
70.06942854962998
68.60456244754711
68.89753566796368
65.96780346379796
63.72167544060426
64.20996414129854
59.32707713435569
55.61608300907912
50.635538261997404
46.04562447547112
47.0222018768597
41.065079728389414
36.67048142214084
37.549401083390556
30.71335927367056
25.537499046311133
19.971007858396277
14.50217441062028
15.674067292286564
8.74036774242771
3.662165255207141
4.736400396734569
-1.1230640115968566
-5.517662317845426
-10.302891584649425
-14.892805371175708
-13.916227969787137
-18.89677271686885
-22.510109102006563
-21.728847180895706
-25.732814526588847
-28.66254673075456
-30.811017013809415
-33.252460517280845
-32.6665140764477
-35.69390402075227
-37.84237430380713
-37.35408560311284
-39.307240405889985
-40.772106507972836
-42.33463035019455
-43.89715419241627
-43.50652323186084
-45.55733577477684
-46.92454413672083
-46.63157091630426
-48.584725719081405
-50.04959182116426
-51.61211566338598
-53.17463950560769
-52.78400854505226
-55.713740749217976
-57.95986877241169
-57.37392233157855
-60.401312275883114
-62.54978255893797
-63.91699092088197
-65.47951476310368
-65.18654154268711
-67.13969634546426
-68.60456244754711
-68.21393148699168
-69.19050888838025
-69.87411306935225
-70.65537499046312
-71.43663691157397
-71.24132143129626
-70.36240177004655
-69.58113984893568
-69.67879758907453
-67.7256427862974
-66.26077668421455
-63.6240177004654
-61.37788967727169
-61.86617837796597
-56.006713969634546
-51.51445792324712
-52.49103532463569
-46.533913176165406
-42.13931486991684
-37.35408560311284
-32.6665140764477
-33.64309147783627
-27.68596932936599
-23.291371023117417
-24.267948424505988
-20.263981078812847
-17.334248874647134
-16.064698252841993
-14.404516670481422
-14.795147631036851
-13.720912489509422
-13.037308308537423
-13.13496604867628
-13.13496604867628
-13.13496604867628
-13.13496604867628
-13.13496604867628
-13.13496604867628
-14.013885709925994
-14.795147631036851
-14.599832150759136
-14.697489890897993
-14.599832150759136
-16.55298695353628
-18.017853055619135
-17.724879835202564
-19.678034637979707
-21.14290074006256
-20.752269779507134
-22.803082322423133
-24.267948424505988
-25.830472266727703
-27.392996108949415
-27.002365148393988
-28.076600289921416
-28.760204470893417
-28.564888990615703
-29.541466392004274
-30.322728313115128
-30.127412832837415
-30.127412832837415
-30.127412832837415
-30.127412832837415
-30.127412832837415
-30.127412832837415
-30.127412832837415
-30.029755092698558
-29.150835431448844
-28.369573510337986
-28.467231250476843
-28.467231250476843
-28.467231250476843
-28.467231250476843
-28.467231250476843
-28.467231250476843
-27.49065384908827
-26.709391927977418
-26.90470740825513
-25.92813000686656
-25.146868085755703
-25.24452582589456
-25.24452582589456
-25.24452582589456
-25.24452582589456
-25.24452582589456
-25.24452582589456
-25.24452582589456
-25.24452582589456
-25.24452582589456
-26.123445487144274
-26.90470740825513
-28.66254673075456
-30.127412832837415
-29.736781872281988
-30.811017013809415
-31.494621194781413
-31.2993057145037
-31.396963454642556
-31.396963454642556
-31.2993057145037
-31.2993057145037
-31.2993057145037
-29.443808651865414
-27.881284809643702
-28.27191577019913
-26.22110322728313
-24.756237125200276
-22.21713588158999
-19.87335011825742
-20.45929655909056
-16.45532921339742
-13.525597009231708
-14.209201190203707
-12.158388647287708
-10.693522545204852
-12.84199282825971
-14.306858930342566
-14.013885709925994
-14.990463111314565
-15.771725032425422
-15.576409552147707
-12.74433508812085
-10.498207064927138
-6.201266498817426
-2.392614633401999
-3.2715342946517127
5.420004577706569
12.060730907148852
10.595864805065995
22.412451361867703
31.201647974364842
38.818951705195694
46.63157091630426
44.873731593804834
50.04959182116426
53.66292820630198
52.78400854505226
53.95590142671855
54.639505607690545
53.467612726024264
52.78400854505226
52.881666285191116
51.90508888380255
51.123826962691695
51.31914244296941
49.365987640192266
47.90112153810941
46.240939955748836
44.67841611352712
44.97138933394369
43.018234531166556
41.5533684290837
41.84634164950027
38.91660944533455
36.67048142214084
35.20561532005799
33.64309147783627
33.93606469825284
31.9829098954757
30.518043793392845
30.811017013809415
28.857862211032273
27.392996108949415
26.709391927977418
25.92813000686656
26.025787747005417
24.072632944228275
22.60776684214542
22.90074006256199
21.92416266117342
21.14290074006256
20.361638818951704
19.58037689784085
19.775692378118563
17.82253757534142
16.357671473258563
16.650644693675137
14.697489890897993
13.232623788815136
10.595864805065995
8.349736781872283
8.838025482566568
4.931715877012284
2.0019836728465705
2.5879301136797133
-0.34180209048599985
-2.490272373540856
-3.9551384756237127
-5.517662317845426
-5.127031357289998
-7.177843900205997
-8.642710002288853
-8.252079041733426
-7.373159380483711
-6.591897459372854
-4.834058136873426
-3.36919203479057
-3.662165255207141
0.14648661020828566
3.076218814373999
2.392614633401999
7.275501640344854
10.986495765621424
14.990463111314565
18.799114976729992
17.920195315480278
22.90074006256199
26.61173418783856
25.732814526588847
29.736781872281988
32.6665140764477
34.91264209964141
37.256427862973986
36.67048142214084
39.69787136644541
41.84634164950027
41.358052948805984
42.43228809033341
43.11589227130541
43.89715419241627
44.67841611352712
44.48310063324941
45.45967803463798
46.14328221560998
46.04562447547112
45.069047074082555
44.28778515297169
43.50652323186084
42.72526131074998
42.822919050888835
41.84634164950027
41.065079728389414
41.26039520866713
39.307240405889985
37.84237430380713
35.303273060196844
32.95948729686427
33.44777599755856
31.396963454642556
29.9320973525597
30.22507057297627
28.27191577019913
26.807049668116274
26.123445487144274
25.342183566033416
25.537499046311133
23.58434424353399
22.021820401312276
22.412451361867703
21.338216220340275
20.654612039368278
17.920195315480278
15.674067292286564
16.16235599298085
13.13496604867628
10.986495765621424
11.47478446631571
7.470817120622568
4.541084916456855
0.43945983062485694
-3.36919203479057
-2.490272373540856
-8.349736781872283
-12.74433508812085
-11.767757686732281
-18.701457236591136
-23.87731746395056
-27.49065384908827
-31.396963454642556
-30.518043793392845
-35.49858854047456
-39.11192492561227
-38.33066300450141
-42.33463035019455
-45.26436255436027
-47.412832837415124
-49.75661860074769
-49.26832990005341
-51.22148470283055
-52.6863508049134
-52.39337758449683
-53.36995498588541
-54.053559166857404
-53.85824368657969
-53.95590142671855
-53.85824368657969
-52.002746623941405
-50.44022278171969
-50.73319600213626
-47.80346379797055
-45.55733577477684
-42.236972610055695
-39.20958266575113
-39.79552910658427
-34.91264209964141
-31.201647974364842
-31.9829098954757
-26.123445487144274
-21.63118944075685
-16.943617914091707
-12.256046387426567
-13.232623788815136
-6.39658197909514
-1.2207217517357138
-2.392614633401999
3.5645075150682843
7.959105821316854
12.646677347981994
17.334248874647134
16.260013733119706
21.338216220340275
24.95155260547799
24.17029068436713
25.24452582589456
25.92813000686656
22.021820401312276
18.994430457007706
19.678034637979707
14.795147631036851
11.08415350576028
11.865415426871138
6.884870679789426
3.2715342946517127
2.197299153124285
0.537117570763714
0.8300907911802854
0.7324330510414282
0.8300907911802854
0.8300907911802854
