ppg
40.86976424811169
37.94003204394598
35.69390402075227
36.182192721446555
33.252460517280845
31.00633249408713
28.564888990615703
26.22110322728313
26.807049668116274
23.779659723811704
21.533531700617992
22.021820401312276
19.092088197146563
16.84596017395285
13.525597009231708
10.498207064927138
11.08415350576028
8.154421301594567
5.908293278400855
6.39658197909514
3.466849774929427
1.2207217517357138
-1.0254062714579995
-3.36919203479057
-2.8809033340962844
-4.931715877012284
-6.39658197909514
-6.005951018539712
-7.959105821316854
-9.521629663538567
-10.10757610437171
-10.888838025482567
-10.693522545204852
-11.670099946593423
-12.45136186770428
-12.256046387426567
-13.232623788815136
-14.013885709925994
-14.795147631036851
-15.576409552147707
-15.381094071869994
-16.357671473258563
-17.13893339436942
-16.943617914091707
-17.920195315480278
-18.60379949645228
-19.385061417563133
-20.16632333867399
-20.068665598535134
-20.068665598535134
-20.068665598535134
-20.068665598535134
-19.092088197146563
-18.310826276035705
-16.55298695353628
-15.088120851453422
-15.381094071869994
-12.45136186770428
-10.205233844510566
-10.693522545204852
-7.763790341039139
-5.517662317845426
-2.197299153124285
0.8300907911802854
0.14648661020828566
2.197299153124285
3.5645075150682843
3.2715342946517127
5.224689097428855
6.6895551995117115
7.373159380483711
8.154421301594567
7.959105821316854
8.05676356145571
8.05676356145571
8.05676356145571
7.080186160067139
6.298924238956283
4.541084916456855
3.076218814373999
3.36919203479057
1.416037232013428
0.04882887006942855
0.24414435034714274
-2.5879301136797133
-4.834058136873426
-6.201266498817426
-7.763790341039139
-7.470817120622568
-10.400549324788281
-12.549019607843137
-12.060730907148852
-15.088120851453422
-17.236591134508277
-19.678034637979707
-21.92416266117342
-21.43587396047913
-23.48668650339513
-24.95155260547799
-24.560921644922562
-27.49065384908827
-29.736781872281988
-30.127412832837415
-31.00633249408713
-30.811017013809415
-32.764171816586554
-34.22903791866941
-33.838406958113985
-34.91264209964141
-35.596246280613414
-37.35408560311284
-38.818951705195694
-38.525978484779124
-39.5025558861677
-40.28381780727855
-40.08850232700084
-41.065079728389414
-41.74868390936141
-42.529945830472265
-43.311207751583126
-43.11589227130541
-45.069047074082555
-46.533913176165406
-46.14328221560998
-47.21751735713741
-47.90112153810941
-49.658960860608836
-51.123826962691695
-50.73319600213626
-51.80743114366369
-52.49103532463569
-52.295719844357976
-56.20202944991226
-59.13176165407798
-65.08888380254825
-70.4600595101854
-69.19050888838025
-74.26871137560083
-77.88204776073853
-77.00312809948882
-78.17502098115511
-78.85862516212711
-75.83123521782254
-73.58510719462882
-74.07339589532312
-67.23735408560312
-62.061493858243686
-63.13572899977112
-52.39337758449683
-44.28778515297169
-35.49858854047456
-27.002365148393988
-28.857862211032273
-20.752269779507134
-14.892805371175708
-16.260013733119706
-11.181811245899137
-7.470817120622568
-3.5645075150682843
0.24414435034714274
-0.537117570763714
3.36919203479057
6.298924238956283
5.71297779812314
7.763790341039139
9.228656443121995
10.79118028534371
12.353704127565424
11.963073167009995
13.037308308537423
13.720912489509422
13.525597009231708
13.623254749370565
13.525597009231708
14.50217441062028
15.283436331731137
15.088120851453422
15.088120851453422
15.088120851453422
15.088120851453422
14.11154345006485
13.427939269092851
12.646677347981994
11.865415426871138
11.963073167009995
10.009918364232853
8.545052262149996
8.935683222705425
6.884870679789426
5.420004577706569
2.8809033340962844
0.6347753109025711
1.1230640115968566
-0.8300907911802854
-2.2949568932631417
-2.0019836728465705
-3.9551384756237127
-5.420004577706569
-7.959105821316854
-10.205233844510566
-9.71694514381628
-11.767757686732281
-13.232623788815136
-12.84199282825971
-14.892805371175708
-16.357671473258563
-17.920195315480278
-19.48271915770199
-19.092088197146563
-20.068665598535134
-20.84992751964599
-20.654612039368278
-20.654612039368278
-20.654612039368278
-20.654612039368278
-20.654612039368278
-20.654612039368278
-20.654612039368278
-20.654612039368278
-20.654612039368278
-20.654612039368278
-20.654612039368278
-20.654612039368278
-20.654612039368278
-20.654612039368278
-21.533531700617992
-22.314793621728846
-22.119478141451133
-22.119478141451133
-22.119478141451133
-21.14290074006256
-20.45929655909056
-20.55695429922942
-18.60379949645228
-17.13893339436942
-17.43190661478599
-14.50217441062028
-12.353704127565424
-8.05676356145571
-4.248111696040284
-5.0293736171511405
-0.04882887006942855
3.466849774929427
2.68558785381857
7.666132600900283
11.279468986037996
16.16235599298085
20.84992751964599
19.775692378118563
24.756237125200276
28.467231250476843
27.588311589227132
32.56885633630884
36.182192721446555
39.20958266575113
42.33463035019455
41.651026169222554
44.67841611352712
46.826886396581976
46.33859769588769
47.412832837415124
48.09643701838712
48.877698939497975
49.658960860608836
49.46364538033112
50.44022278171969
51.123826962691695
50.928511482413974
50.928511482413974
50.928511482413974
51.90508888380255
52.588693064774546
52.39337758449683
51.51445792324712
50.73319600213626
50.928511482413974
50.83085374227512
50.83085374227512
49.85427634088655
49.073014419775696
49.26832990005341
47.31517509727627
45.75265125505455
46.14328221560998
43.11589227130541
40.96742198825055
39.5025558861677
37.84237430380713
38.23300526436255
36.182192721446555
34.717326619363696
35.10795757991913
33.05714503700313
31.592278934920273
30.029755092698558
28.467231250476843
28.760204470893417
26.807049668116274
25.342183566033416
25.63515678644999
23.58434424353399
22.119478141451133
19.58037689784085
17.334248874647134
17.82253757534142
13.916227969787137
10.888838025482567
11.572442206454566
8.545052262149996
6.39658197909514
2.9785610742351416
0.04882887006942855
0.6347753109025711
-2.2949568932631417
-4.443427176317998
-3.9551384756237127
-6.005951018539712
-7.470817120622568
-9.033340962844282
-10.595864805065995
-10.302891584649425
-10.302891584649425
-10.302891584649425
-10.302891584649425
-8.349736781872283
-6.884870679789426
-1.513694972152285
2.8809033340962844
1.9043259327077133
9.81460288395514
15.674067292286564
14.306858930342566
21.338216220340275
26.416418707560844
31.00633249408713
35.69390402075227
34.61966887922484
38.72129396505684
41.651026169222554
40.96742198825055
46.826886396581976
51.22148470283055
54.053559166857404
57.178606851300835
56.49500267032883
61.37788967727169
65.08888380254825
64.20996414129854
69.19050888838025
72.80384527351796
73.87808041504539
75.53826199740597
75.14763103685054
74.26871137560083
73.48744945448996
73.58510719462882
68.79987792782482
64.9912260624094
60.108339055466544
55.420767528801406
56.49500267032883
49.56130312046998
44.38544289311055
45.45967803463798
39.5025558861677
35.10795757991913
31.2993057145037
27.392996108949415
28.174258030060273
24.17029068436713
21.24055848020142
21.92416266117342
18.89677271686885
16.650644693675137
14.306858930342566
11.963073167009995
12.45136186770428
10.400549324788281
8.935683222705425
9.326314183260854
8.252079041733426
7.568474860761425
5.810635538261997
4.248111696040284
4.638742656595713
2.5879301136797133
1.1230640115968566
1.513694972152285
-1.3183794918745708
-3.5645075150682843
-5.0293736171511405
-6.591897459372854
-6.201266498817426
-8.252079041733426
-9.71694514381628
-9.326314183260854
-11.279468986037996
-12.74433508812085
-14.404516670481422
-15.967040512703136
-15.576409552147707
-18.506141756313422
-20.752269779507134
-20.263981078812847
-23.19371328297856
-25.342183566033416
-27.783627069504846
-30.029755092698558
-29.541466392004274
-31.592278934920273
-33.05714503700313
-32.6665140764477
-33.64309147783627
-34.424353398947126
-34.22903791866941
-34.22903791866941
-34.22903791866941
-32.27588311589227
-30.811017013809415
-31.103990234225986
-28.174258030060273
-26.025787747005417
-22.60776684214542
-19.58037689784085
-20.263981078812847
-15.283436331731137
-11.572442206454566
-12.45136186770428
-7.470817120622568
-3.7598229953459983
-0.8300907911802854
2.2949568932631417
1.513694972152285
4.541084916456855
6.787212939650568
6.298924238956283
7.373159380483711
8.05676356145571
7.861448081177996
7.959105821316854
7.959105821316854
6.982528419928283
6.201266498817426
6.39658197909514
5.420004577706569
4.638742656595713
2.8809033340962844
1.416037232013428
1.7090104524299992
-1.1230640115968566
-3.36919203479057
-2.8809033340962844
-5.810635538261997
-8.05676356145571
-10.400549324788281
-12.74433508812085
-12.158388647287708
-14.209201190203707
-15.674067292286564
-15.381094071869994
-17.334248874647134
-18.799114976729992
-20.361638818951704
-21.92416266117342
-21.533531700617992
-22.60776684214542
-23.291371023117417
-23.096055542839704
-24.072632944228275
-24.853894865339132
-25.63515678644999
-26.416418707560844
-26.22110322728313
-27.1976806286717
-27.881284809643702
-27.783627069504846
-28.760204470893417
-29.443808651865414
-29.2484931715877
-29.346150911726557
-29.346150911726557
-30.22507057297627
-31.00633249408713
-30.811017013809415
-31.787594415197987
-32.471198596169984
-34.22903791866941
-35.79156176089113
-35.4009308003357
-36.475165941863125
-37.15877012283513
-36.96345464255741
-38.91660944533455
-40.38147554741741
-41.943999389639124
-43.50652323186084
-43.11589227130541
-44.19012741283284
-44.873731593804834
-44.67841611352712
-45.654993514915695
-46.33859769588769
-45.26436255436027
-44.48310063324941
-44.67841611352712
-42.72526131074998
-41.26039520866713
-41.5533684290837
-38.62363622491798
-36.37750820172427
-33.05714503700313
-29.9320973525597
-30.615701533531702
-24.756237125200276
-20.263981078812847
-21.24055848020142
-16.260013733119706
-12.549019607843137
-7.666132600900283
-3.076218814373999
-4.052796215762569
-0.04882887006942855
2.783245593957427
2.197299153124285
5.127031357289998
7.373159380483711
8.74036774242771
10.400549324788281
10.009918364232853
10.10757610437171
10.10757610437171
10.10757610437171
6.201266498817426
3.2715342946517127
-3.5645075150682843
-9.71694514381628
-8.349736781872283
-16.260013733119706
-22.119478141451133
-20.84992751964599
-25.92813000686656
-29.541466392004274
-30.615701533531702
-32.27588311589227
-31.885252155336843
-31.9829098954757
-31.9829098954757
-31.885252155336843
-29.053177691309987
-26.807049668116274
-24.4632639047837
-22.119478141451133
-22.60776684214542
-22.510109102006563
-22.510109102006563
-22.510109102006563
-26.318760967421987
-29.2484931715877
-30.518043793392845
-32.08056763561456
-31.787594415197987
-33.74074921797513
-35.20561532005799
-34.81498435950255
-35.889219501029984
-36.57282368200198
-36.37750820172427
-36.475165941863125
-36.37750820172427
-35.49858854047456
-34.717326619363696
-34.81498435950255
-33.838406958113985
-33.15480277714199
-32.27588311589227
-31.494621194781413
-31.68993667505913
-30.71335927367056
-29.9320973525597
-30.127412832837415
-29.053177691309987
-28.369573510337986
-27.588311589227132
-26.709391927977418
-26.90470740825513
-25.92813000686656
-25.146868085755703
-25.342183566033416
-24.365606164644845
-23.58434424353399
-20.84992751964599
-18.60379949645228
-19.092088197146563
-16.16235599298085
-13.916227969787137
-14.404516670481422
-9.521629663538567
-5.810635538261997
0.04882887006942855
5.322346837567712
4.150453955901427
12.939650568398566
19.58037689784085
18.11551079575799
27.002365148393988
33.64309147783627
39.79552910658427
46.04562447547112
44.67841611352712
51.61211566338598
56.690318150606544
55.61608300907912
59.62005035477226
62.54978255893797
63.819333180743115
65.38185702296482
64.9912260624094
65.08888380254825
64.9912260624094
64.9912260624094
64.01464866102083
63.233386739909974
60.49897001602197
58.25284199282826
58.74113069352254
54.83482108796826
51.80743114366369
52.49103532463569
48.48706797894255
45.55733577477684
42.33463035019455
39.20958266575113
39.893186846723125
36.86579690241855
34.717326619363696
35.10795757991913
31.201647974364842
28.27191577019913
25.049210345616846
21.92416266117342
22.60776684214542
18.701457236591136
15.771725032425422
16.357671473258563
12.45136186770428
9.42397192339971
5.322346837567712
1.513694972152285
2.2949568932631417
-1.6113527122911422
-4.541084916456855
-3.8574807354848555
-7.861448081177996
-10.79118028534371
-13.916227969787137
-17.041275654230564
-16.357671473258563
-20.263981078812847
-23.19371328297856
-22.60776684214542
-25.537499046311133
-27.783627069504846
-30.127412832837415
-32.471198596169984
-31.885252155336843
-32.95948729686427
-33.64309147783627
-33.545433737697415
-34.52201113908598
-35.20561532005799
-35.010299839780274
-35.10795757991913
-35.010299839780274
-34.131380178530556
-33.3501182574197
-33.44777599755856
-32.471198596169984
-31.787594415197987
-30.029755092698558
-28.467231250476843
-28.760204470893417
-25.830472266727703
-23.58434424353399
-24.072632944228275
-19.18974593728542
-15.47875181200885
-8.642710002288853
-2.5879301136797133
-3.9551384756237127
5.810635538261997
13.232623788815136
11.572442206454566
21.43587396047913
28.760204470893417
36.67048142214084
44.48310063324941
42.72526131074998
50.73319600213626
56.59266041046769
55.22545204852369
61.28023193713283
65.6748302433814
67.53032730601969
69.87411306935225
69.38582436865796
70.36240177004655
71.1436636911574
70.94834821087969
70.94834821087969
70.94834821087969
68.99519340810254
67.43266956588083
67.82330052643626
65.77248798352025
64.3076218814374
64.60059510185397
61.67086289768826
59.42473487449455
56.983291371023114
54.639505607690545
55.127794308384836
52.19806210421912
49.951934081025406
50.44022278171969
47.412832837415124
45.16670481422141
42.822919050888835
40.479133287556266
40.96742198825055
37.94003204394598
35.79156176089113
36.27985046158541
30.420386053253985
25.92813000686656
19.287403677424276
13.13496604867628
14.50217441062028
6.591897459372854
0.6347753109025711
2.0019836728465705
-2.9785610742351416
-6.591897459372854
-7.763790341039139
-9.42397192339971
-9.033340962844282
-8.154421301594567
-7.373159380483711
-7.568474860761425
-4.638742656595713
-2.392614633401999
0.8300907911802854
3.8574807354848555
3.1738765545128556
3.36919203479057
3.2715342946517127
3.36919203479057
2.392614633401999
1.6113527122911422
-0.04882887006942855
-1.513694972152285
-1.2207217517357138
-3.1738765545128556
-4.638742656595713
-4.345769436179141
-5.322346837567712
-6.103608758678568
-7.861448081177996
-9.326314183260854
-9.033340962844282
-10.009918364232853
-10.79118028534371
-10.595864805065995
-9.71694514381628
-8.935683222705425
-7.177843900205997
-5.615320057984283
-6.005951018539712
-1.1230640115968566
2.490272373540856
1.6113527122911422
7.568474860761425
11.963073167009995
17.627222095063708
23.096055542839704
21.826504921034562
28.760204470893417
33.93606469825284
32.764171816586554
39.69787136644541
44.873731593804834
48.48706797894255
52.39337758449683
51.51445792324712
53.56527046616312
55.03013656824598
54.7371633478294
55.713740749217976
56.39734493018997
54.346532387273975
52.881666285191116
53.17463950560769
50.24490730144198
47.998779278248264
48.48706797894255
43.604180971999696
39.893186846723125
34.91264209964141
30.322728313115128
31.2993057145037
24.365606164644845
19.18974593728542
20.361638818951704
15.381094071869994
11.670099946593423
6.787212939650568
2.0996414129854277
3.1738765545128556
-0.8300907911802854
-3.7598229953459983
-3.076218814373999
-7.080186160067139
-10.009918364232853
-12.158388647287708
-14.599832150759136
-14.013885709925994
-17.041275654230564
-19.18974593728542
-18.701457236591136
-20.752269779507134
-22.119478141451133
-22.803082322423133
-23.58434424353399
-23.389028763256274
-24.365606164644845
-25.146868085755703
-24.95155260547799
-25.92813000686656
-26.61173418783856
-27.49065384908827
-28.174258030060273
-28.076600289921416
-28.076600289921416
-28.076600289921416
-28.076600289921416
-28.95551995117113
-29.736781872281988
-31.494621194781413
-32.95948729686427
-32.56885633630884
-33.64309147783627
-34.32669565880827
-34.131380178530556
-36.0845349813077
-37.549401083390556
-38.23300526436255
-39.014267185473415
-38.818951705195694
-39.79552910658427
-40.479133287556266
-40.28381780727855
-41.26039520866713
-42.04165712977798
-40.86976424811169
-40.186160067139696
-40.28381780727855
-39.307240405889985
-38.525978484779124
-38.72129396505684
-34.81498435950255
-31.885252155336843
-26.807049668116274
-22.21713588158999
-23.19371328297856
-16.260013733119706
-11.181811245899137
-12.256046387426567
-5.322346837567712
-0.24414435034714274
4.248111696040284
9.033340962844282
7.959105821316854
12.939650568398566
16.650644693675137
15.771725032425422
17.920195315480278
19.287403677424276
19.971007858396277
20.752269779507134
20.55695429922942
18.701457236591136
17.236591134508277
17.52956435492485
14.599832150759136
12.353704127565424
8.05676356145571
4.248111696040284
5.127031357289998
-0.7324330510414282
-5.127031357289998
-4.150453955901427
-11.08415350576028
-16.16235599298085
-20.752269779507134
-25.439841306172273
-24.4632639047837
-29.443808651865414
-33.05714503700313
-32.27588311589227
-36.27985046158541
-39.20958266575113
-41.358052948805984
-43.70183871213855
-43.21355001144427
-45.16670481422141
-46.63157091630426
-46.33859769588769
-48.291752498664835
-49.75661860074769
-49.365987640192266
-49.46364538033112
-49.365987640192266
-50.34256504158083
-51.02616922255284
-50.928511482413974
-51.90508888380255
-52.588693064774546
-52.39337758449683
-52.39337758449683
-52.39337758449683
-52.39337758449683
-52.39337758449683
-52.39337758449683
-54.24887464713512
-55.713740749217976
-61.08491645685512
-65.57717250324254
-64.60059510185397
-68.60456244754711
-71.53429465171283
-70.85069047074083
-71.92492561226825
-72.60852979324025
-70.4600595101854
-68.99519340810254
-69.28816662851911
-65.38185702296482
-62.45212481879911
-63.03807125963226
-55.32310978866255
-49.365987640192266
-43.99481193255512
-38.42832074464027
-39.69787136644541
-34.61966887922484
-30.908674753948272
-31.787594415197987
-28.66254673075456
-26.514076447699704
-22.21713588158999
-18.40848401617456
-19.18974593728542
-12.353704127565424
-7.177843900205997
-8.349736781872283
0.43945983062485694
7.080186160067139
13.232623788815136
19.48271915770199
18.11551079575799
26.025787747005417
31.885252155336843
30.615701533531702
36.57282368200198
40.96742198825055
42.822919050888835
45.26436255436027
44.67841611352712
46.72922865644312
48.19409475852598
47.80346379797055
46.92454413672083
46.14328221560998
45.362020294499125
44.580758373388264
44.67841611352712
43.70183871213855
42.92057679102769
41.16273746852827
39.69787136644541
39.99084458686198
37.06111238269627
34.81498435950255
35.303273060196844
33.252460517280845
31.787594415197987
30.22507057297627
28.66254673075456
28.95551995117113
26.025787747005417
23.779659723811704
24.267948424505988
22.314793621728846
20.752269779507134
19.18974593728542
17.627222095063708
18.017853055619135
16.943617914091707
16.260013733119706
16.357671473258563
14.404516670481422
12.939650568398566
11.377126726176853
9.81460288395514
10.10757610437171
7.177843900205997
4.931715877012284
5.517662317845426
3.466849774929427
2.0019836728465705
-0.43945983062485694
-2.783245593957427
-2.197299153124285
-4.248111696040284
-5.71297779812314
-5.420004577706569
-6.39658197909514
-7.177843900205997
-7.959105821316854
-8.74036774242771
-8.545052262149996
-9.521629663538567
-10.302891584649425
-10.10757610437171
-10.10757610437171
-10.10757610437171
-10.10757610437171
-10.10757610437171
-10.10757610437171
-10.10757610437171
-10.10757610437171
-10.10757610437171
-10.10757610437171
-10.10757610437171
-10.10757610437171
-10.10757610437171
-10.10757610437171
-9.130998702983138
-8.349736781872283
-8.545052262149996
-7.568474860761425
-6.787212939650568
-6.005951018539712
-5.224689097428855
-5.420004577706569
-3.466849774929427
-2.0019836728465705
-2.2949568932631417
0.537117570763714
2.783245593957427
5.127031357289998
7.470817120622568
6.884870679789426
9.912260624093996
12.060730907148852
11.572442206454566
15.576409552147707
18.506141756313422
20.654612039368278
23.096055542839704
22.510109102006563
25.439841306172273
27.68596932936599
27.1976806286717
29.150835431448844
30.615701533531702
30.322728313115128
30.420386053253985
30.322728313115128
30.322728313115128
30.322728313115128
30.322728313115128
29.346150911726557
28.564888990615703
27.783627069504846
27.002365148393988
27.1976806286717
27.100022888532845
27.100022888532845
27.100022888532845
26.123445487144274
25.439841306172273
24.65857938506142
23.87731746395056
23.974975204089418
22.998397802700847
22.21713588158999
22.412451361867703
21.43587396047913
20.654612039368278
18.89677271686885
17.43190661478599
17.724879835202564
15.771725032425422
14.306858930342566
14.599832150759136
11.670099946593423
9.42397192339971
7.959105821316854
6.39658197909514
6.787212939650568
3.8574807354848555
1.6113527122911422
2.0996414129854277
0.04882887006942855
-1.3183794918745708
-2.8809033340962844
-4.443427176317998
-4.052796215762569
-5.127031357289998
-5.810635538261997
-5.71297779812314
-7.568474860761425
-9.130998702983138
-10.693522545204852
-12.256046387426567
-11.865415426871138
-12.939650568398566
-13.623254749370565
-13.427939269092851
-14.404516670481422
-15.185778591592278
-16.943617914091707
-18.40848401617456
-18.11551079575799
-21.045242999923705
-23.19371328297856
-22.705424582284277
-24.756237125200276
-26.22110322728313
-23.974975204089418
-22.510109102006563
-22.803082322423133
-18.017853055619135
-14.306858930342566
-15.088120851453422
-8.252079041733426
-3.076218814373999
5.224689097428855
12.939650568398566
11.181811245899137
21.14290074006256
28.467231250476843
26.807049668116274
33.838406958113985
38.91660944533455
41.651026169222554
44.873731593804834
44.09246967269398
47.11985961699855
49.26832990005341
48.78004119935912
49.85427634088655
50.53788052185855
49.46364538033112
48.68238345922026
48.877698939497975
47.80346379797055
47.11985961699855
47.21751735713741
44.28778515297169
42.04165712977798
38.72129396505684
35.69390402075227
36.27985046158541
32.37354085603113
29.443808651865414
30.029755092698558
27.002365148393988
24.853894865339132
22.412451361867703
20.068665598535134
20.55695429922942
17.627222095063708
15.381094071869994
15.869382772564279
12.939650568398566
10.693522545204852
9.326314183260854
7.666132600900283
8.05676356145571
5.127031357289998
2.8809033340962844
3.36919203479057
1.3183794918745708
-0.04882887006942855
-1.6113527122911422
-3.1738765545128556
-2.783245593957427
-4.834058136873426
-6.298924238956283
-5.908293278400855
-7.861448081177996
-9.42397192339971
-10.009918364232853
-10.79118028534371
-10.595864805065995
-12.549019607843137
-14.013885709925994
-13.720912489509422
-15.674067292286564
-17.13893339436942
-18.701457236591136
-20.263981078812847
-19.971007858396277
-21.92416266117342
-23.389028763256274
-22.998397802700847
-25.049210345616846
-26.514076447699704
-27.100022888532845
-27.881284809643702
-27.68596932936599
-26.807049668116274
-26.025787747005417
-26.22110322728313
-23.291371023117417
-21.045242999923705
-18.701457236591136
-16.357671473258563
-16.84596017395285
-12.939650568398566
-9.912260624093996
-10.595864805065995
-6.6895551995117115
-3.662165255207141
-1.513694972152285
0.8300907911802854
0.24414435034714274
2.2949568932631417
3.7598229953459983
3.466849774929427
6.39658197909514
8.545052262149996
9.033340962844282
9.912260624093996
9.71694514381628
10.693522545204852
11.377126726176853
11.279468986037996
12.256046387426567
12.939650568398566
11.865415426871138
11.08415350576028
11.279468986037996
9.326314183260854
7.861448081177996
8.154421301594567
5.224689097428855
2.9785610742351416
1.6113527122911422
0.04882887006942855
0.34180209048599985
-1.513694972152285
-2.9785610742351416
-2.68558785381857
-5.615320057984283
-7.861448081177996
-8.252079041733426
-9.130998702983138
-8.935683222705425
-9.912260624093996
-10.693522545204852
-10.498207064927138
-11.47478446631571
-12.256046387426567
-13.037308308537423
-13.81857022964828
-13.623254749370565
-14.599832150759136
-15.283436331731137
-15.185778591592278
-17.041275654230564
-18.60379949645228
-20.16632333867399
-21.728847180895706
-21.338216220340275
-23.291371023117417
-24.756237125200276
-24.4632639047837
-27.392996108949415
-29.541466392004274
-31.885252155336843
-34.22903791866941
-33.74074921797513
-35.69390402075227
-37.15877012283513
-36.86579690241855
-39.79552910658427
-41.943999389639124
-43.40886549172198
-44.97138933394369
-44.580758373388264
-46.533913176165406
-47.998779278248264
-47.705806057831694
-48.68238345922026
-49.365987640192266
-50.14724956130312
-50.928511482413974
-50.73319600213626
-50.73319600213626
-50.73319600213626
-50.73319600213626
-49.75661860074769
-48.97535667963683
-48.19409475852598
-47.412832837415124
-47.60814831769284
-44.67841611352712
-42.43228809033341
-42.92057679102769
-39.893186846723125
-37.64705882352941
-35.303273060196844
-32.95948729686427
-33.44777599755856
-29.541466392004274
-26.61173418783856
-27.1976806286717
-24.17029068436713
-22.021820401312276
-23.389028763256274
-24.072632944228275
-23.87731746395056
-27.783627069504846
-30.71335927367056
-30.029755092698558
-34.0337224383917
-36.96345464255741
-39.11192492561227
-41.45571068894484
-40.96742198825055
-42.04165712977798
-42.72526131074998
-42.529945830472265
-40.67444876783398
-39.11192492561227
-34.717326619363696
-30.908674753948272
-31.68993667505913
-27.68596932936599
-24.756237125200276
-25.439841306172273
-24.267948424505988
-23.58434424353399
-25.63515678644999
-27.100022888532845
-26.709391927977418
-27.783627069504846
-28.467231250476843
-28.27191577019913
-28.369573510337986
-28.369573510337986
-29.2484931715877
-30.029755092698558
-29.834439612420844
-30.811017013809415
-31.494621194781413
-31.396963454642556
-32.37354085603113
-33.05714503700313
-33.838406958113985
-34.61966887922484
-34.424353398947126
-35.4009308003357
-36.182192721446555
-35.98687724116884
-36.96345464255741
-37.64705882352941
-38.42832074464027
-39.20958266575113
-39.014267185473415
-39.99084458686198
-40.772106507972836
-40.57679102769512
-40.57679102769512
-40.57679102769512
-41.5533684290837
-42.236972610055695
-42.04165712977798
-42.04165712977798
-42.04165712977798
-42.04165712977798
-41.065079728389414
-40.28381780727855
-38.525978484779124
-37.06111238269627
-37.35408560311284
-35.4009308003357
-33.838406958113985
-34.22903791866941
-31.2993057145037
-29.053177691309987
-25.732814526588847
-22.60776684214542
-23.291371023117417
-18.310826276035705
-14.697489890897993
-15.47875181200885
-9.521629663538567
-5.127031357289998
-0.43945983062485694
4.150453955901427
3.1738765545128556
9.130998702983138
13.525597009231708
12.549019607843137
17.52956435492485
21.14290074006256
26.025787747005417
30.71335927367056
29.63912413214313
33.74074921797513
36.57282368200198
35.98687724116884
39.893186846723125
42.822919050888835
45.069047074082555
47.412832837415124
46.826886396581976
48.877698939497975
50.24490730144198
49.951934081025406
51.90508888380255
53.36995498588541
53.07698176546884
53.07698176546884
53.07698176546884
53.07698176546884
52.97932402532997
52.97932402532997
52.002746623941405
51.31914244296941
51.416800183108265
51.416800183108265
51.31914244296941
50.34256504158083
49.658960860608836
49.75661860074769
48.78004119935912
47.998779278248264
47.21751735713741
46.43625543602655
46.533913176165406
45.55733577477684
44.873731593804834
44.97138933394369
43.018234531166556
41.5533684290837
39.893186846723125
38.33066300450141
38.72129396505684
36.67048142214084
35.20561532005799
35.49858854047456
32.56885633630884
30.322728313115128
27.97894254978256
25.63515678644999
26.123445487144274
23.19371328297856
20.947585259784848
21.43587396047913
17.52956435492485
14.50217441062028
12.353704127565424
9.912260624093996
10.498207064927138
7.470817120622568
5.322346837567712
5.810635538261997
3.7598229953459983
2.2949568932631417
0.7324330510414282
-0.7324330510414282
-0.43945983062485694
-1.416037232013428
-2.197299153124285
-2.0019836728465705
-1.1230640115968566
-0.34180209048599985
2.2949568932631417
4.541084916456855
4.052796215762569
7.959105821316854
10.888838025482567
10.205233844510566
15.185778591592278
18.799114976729992
21.826504921034562
24.95155260547799
24.267948424505988
28.27191577019913
31.201647974364842
30.518043793392845
34.424353398947126
37.35408560311284
39.600213626306555
41.943999389639124
41.358052948805984
44.38544289311055
46.533913176165406
46.04562447547112
48.97535667963683
51.22148470283055
52.588693064774546
54.15121690699626
53.85824368657969
55.81139848935683
57.27626459143969
56.88563363088426
56.983291371023114
56.88563363088426
55.90905622949569
55.22545204852369
55.32310978866255
53.36995498588541
51.90508888380255
52.19806210421912
48.291752498664835
45.26436255436027
39.307240405889985
33.93606469825284
35.10795757991913
26.22110322728313
19.58037689784085
21.045242999923705
11.181811245899137
3.8574807354848555
-1.1230640115968566
-6.6895551995117115
-5.420004577706569
-9.521629663538567
-12.45136186770428
-11.767757686732281
-11.963073167009995
-11.963073167009995
-10.009918364232853
-8.545052262149996
-8.838025482566568
-6.884870679789426
-5.420004577706569
-5.71297779812314
-5.615320057984283
-5.615320057984283
-7.568474860761425
-9.033340962844282
-8.74036774242771
-10.693522545204852
-12.158388647287708
-11.865415426871138
-14.795147631036851
-16.943617914091707
-18.40848401617456
-19.971007858396277
-19.58037689784085
-20.654612039368278
-21.338216220340275
-21.14290074006256
-22.119478141451133
-22.90074006256199
-22.705424582284277
-22.705424582284277
-22.705424582284277
-23.682001983672848
-24.4632639047837
-24.267948424505988
-23.291371023117417
-22.60776684214542
-21.728847180895706
-20.947585259784848
-21.14290074006256
-18.21316853589685
-16.064698252841993
-16.55298695353628
-11.572442206454566
-7.959105821316854
-3.9551384756237127
-0.04882887006942855
-0.9277485313191425
4.931715877012284
9.326314183260854
8.349736781872283
15.185778591592278
20.361638818951704
24.95155260547799
29.63912413214313
28.564888990615703
33.545433737697415
37.256427862973986
36.37750820172427
40.38147554741741
43.311207751583126
44.580758373388264
46.14328221560998
45.75265125505455
46.826886396581976
47.51049057755398
47.31517509727627
47.412832837415124
47.31517509727627
46.33859769588769
45.654993514915695
45.75265125505455
43.79949645227741
42.33463035019455
42.62760357061112
40.67444876783398
39.11192492561227
36.57282368200198
34.32669565880827
34.81498435950255
31.787594415197987
29.63912413214313
30.029755092698558
26.123445487144274
23.19371328297856
19.971007858396277
16.84596017395285
17.52956435492485
13.623254749370565
10.693522545204852
11.279468986037996
8.252079041733426
6.103608758678568
4.638742656595713
3.076218814373999
3.466849774929427
1.416037232013428
0.04882887006942855
0.34180209048599985
-1.6113527122911422
-3.076218814373999
-3.662165255207141
-4.541084916456855
-4.345769436179141
-6.298924238956283
-7.763790341039139
-7.373159380483711
-9.42397192339971
-10.888838025482567
-12.45136186770428
-14.013885709925994
-13.623254749370565
-16.55298695353628
-18.799114976729992
-18.310826276035705
-21.24055848020142
-23.48668650339513
-25.830472266727703
-28.174258030060273
-27.588311589227132
-30.615701533531702
-32.764171816586554
-32.27588311589227
-35.20561532005799
-37.4517433432517
-38.818951705195694
-40.38147554741741
-40.08850232700084
-40.08850232700084
-40.08850232700084
-40.08850232700084
-38.1353475242237
-36.67048142214084
-34.131380178530556
-31.787594415197987
-32.27588311589227
-27.392996108949415
-23.682001983672848
-24.560921644922562
-20.55695429922942
-17.52956435492485
-13.427939269092851
-9.619287403677424
-10.400549324788281
-6.39658197909514
-3.466849774929427
-4.150453955901427
-0.14648661020828566
2.68558785381857
4.834058136873426
7.275501640344854
6.6895551995117115
8.74036774242771
10.205233844510566
9.912260624093996
10.888838025482567
11.572442206454566
10.498207064927138
9.81460288395514
9.912260624093996
8.935683222705425
8.252079041733426
8.349736781872283
6.39658197909514
4.931715877012284
2.392614633401999
0.14648661020828566
0.6347753109025711
-2.2949568932631417
-4.443427176317998
-3.9551384756237127
-8.838025482566568
-12.549019607843137
-16.45532921339742
-20.361638818951704
-19.48271915770199
-23.48668650339513
-26.416418707560844
-25.732814526588847
-29.736781872281988
-32.6665140764477
-35.79156176089113
-38.91660944533455
-38.23300526436255
-41.26039520866713
-43.40886549172198
-42.92057679102769
-44.873731593804834
-46.33859769588769
-50.83085374227512
-54.54184786755169
-53.66292820630198
-59.62005035477226
-64.01464866102083
-63.03807125963226
-67.92095826657511
-71.63195239185168
-72.70618753337911
-74.36636911573969
-73.97573815518425
-72.99916075379568
-72.21789883268482
-72.41321431296254
-69.48348210879682
-67.23735408560312
-61.96383611810483
-57.37392233157855
-58.350499732967116
-53.36995498588541
-49.658960860608836
-50.53788052185855
-48.38941023880369
-46.92454413672083
-47.21751735713741
-47.11985961699855
-47.11985961699855
-46.14328221560998
-45.45967803463798
-45.55733577477684
-42.62760357061112
-40.38147554741741
-37.06111238269627
-34.0337224383917
-34.61966887922484
-29.736781872281988
-26.025787747005417
-26.807049668116274
-20.947585259784848
-16.55298695353628
-11.767757686732281
-7.080186160067139
-8.154421301594567
-2.197299153124285
2.197299153124285
1.2207217517357138
5.224689097428855
8.154421301594567
11.279468986037996
14.404516670481422
13.720912489509422
15.771725032425422
17.236591134508277
16.84596017395285
18.89677271686885
20.361638818951704
20.947585259784848
21.728847180895706
21.533531700617992
21.63118944075685
21.63118944075685
21.63118944075685
21.533531700617992
21.533531700617992
19.678034637979707
18.21316853589685
18.506141756313422
15.576409552147707
13.330281528953995
13.81857022964828
10.79118028534371
8.642710002288853
7.177843900205997
5.615320057984283
6.005951018539712
3.9551384756237127
2.490272373540856
2.8809033340962844
0.8300907911802854
-0.537117570763714
-1.1230640115968566
-2.0019836728465705
-1.8066681925688564
-1.8066681925688564
-1.8066681925688564
-1.8066681925688564
-0.8300907911802854
-0.14648661020828566
-0.24414435034714274
-0.24414435034714274
-0.24414435034714274
-0.24414435034714274
-0.24414435034714274
-0.24414435034714274
-0.24414435034714274
-0.24414435034714274
-0.24414435034714274
-0.24414435034714274
-0.24414435034714274
-0.24414435034714274
-0.24414435034714274
-0.24414435034714274
0.6347753109025711
1.3183794918745708
1.2207217517357138
1.2207217517357138
1.2207217517357138
2.197299153124285
2.8809033340962844
2.783245593957427
2.783245593957427
2.783245593957427
2.783245593957427
2.783245593957427
2.783245593957427
2.783245593957427
2.783245593957427
2.783245593957427
3.7598229953459983
4.443427176317998
5.224689097428855
6.005951018539712
5.810635538261997
8.74036774242771
10.986495765621424
10.498207064927138
15.381094071869994
18.994430457007706
23.974975204089418
28.564888990615703
27.49065384908827
34.424353398947126
39.600213626306555
38.42832074464027
46.33859769588769
52.19806210421912
57.56923781185626
63.03807125963226
61.768520637827116
67.7256427862974
72.12024109254597
71.1436636911574
73.19447623407339
74.65934233615626
74.26871137560083
74.36636911573969
74.26871137560083
72.31555657282368
70.85069047074083
71.1436636911574
68.21393148699168
65.96780346379796
63.6240177004654
61.182574196993976
61.67086289768826
57.764553292133975
54.83482108796826
55.420767528801406
52.39337758449683
50.24490730144198
48.78004119935912
47.11985961699855
47.51049057755398
44.580758373388264
42.33463035019455
42.822919050888835
40.772106507972836
39.307240405889985
35.79156176089113
32.764171816586554
33.3501182574197
30.322728313115128
28.174258030060273
28.66254673075456
24.65857938506142
21.728847180895706
18.60379949645228
15.47875181200885
16.16235599298085
11.181811245899137
7.568474860761425
8.349736781872283
3.36919203479057
-0.14648661020828566
-2.197299153124285
-4.638742656595713
-4.150453955901427
-8.05676356145571
-10.986495765621424
-10.302891584649425
-12.353704127565424
-13.81857022964828
-15.381094071869994
-16.943617914091707
-16.650644693675137
-17.627222095063708
-18.310826276035705
-18.21316853589685
-20.16632333867399
-21.63118944075685
-24.17029068436713
-26.416418707560844
-25.92813000686656
-30.811017013809415
-34.424353398947126
-33.64309147783627
-36.67048142214084
-38.818951705195694
-37.35408560311284
-36.768139162279695
-36.86579690241855
-31.103990234225986
-26.61173418783856
-27.588311589227132
-18.799114976729992
-12.158388647287708
-3.1738765545128556
5.224689097428855
3.36919203479057
14.306858930342566
22.412451361867703
20.55695429922942
27.68596932936599
32.764171816586554
35.4009308003357
38.62363622491798
37.94003204394598
39.99084458686198
41.358052948805984
41.065079728389414
43.018234531166556
44.48310063324941
44.19012741283284
44.19012741283284
44.19012741283284
44.19012741283284
44.19012741283284
44.09246967269398
43.21355001144427
42.43228809033341
40.67444876783398
39.11192492561227
39.40489814602884
35.49858854047456
32.56885633630884
33.252460517280845
29.2484931715877
26.318760967421987
22.119478141451133
18.310826276035705
19.18974593728542
15.185778591592278
12.158388647287708
12.84199282825971
8.838025482566568
5.908293278400855
2.783245593957427
-0.24414435034714274
0.34180209048599985
-1.6113527122911422
-3.076218814373999
-2.783245593957427
-4.736400396734569
-6.201266498817426
-7.763790341039139
-9.326314183260854
-8.935683222705425
-10.009918364232853
-10.693522545204852
-10.595864805065995
-12.549019607843137
-14.013885709925994
-14.599832150759136
-15.381094071869994
-15.185778591592278
-16.260013733119706
-16.943617914091707
-16.748302433813993
-18.701457236591136
-20.16632333867399
-20.84992751964599
-21.63118944075685
-21.43587396047913
-22.412451361867703
-23.096055542839704
-22.998397802700847
-22.998397802700847
-22.998397802700847
-22.998397802700847
-22.998397802700847
-22.998397802700847
-22.998397802700847
-22.998397802700847
-22.90074006256199
-23.87731746395056
-24.65857938506142
-23.48668650339513
-22.803082322423133
-22.90074006256199
-22.90074006256199
-22.90074006256199
-22.90074006256199
-20.947585259784848
-19.48271915770199
-16.943617914091707
-14.599832150759136
-15.088120851453422
-12.158388647287708
-9.912260624093996
-10.400549324788281
-6.494239719233997
-3.5645075150682843
-1.3183794918745708
0.9277485313191425
0.43945983062485694
3.36919203479057
5.615320057984283
5.127031357289998
7.080186160067139
8.545052262149996
9.228656443121995
10.009918364232853
9.81460288395514
8.935683222705425
8.154421301594567
8.349736781872283
7.275501640344854
6.591897459372854
5.810635538261997
5.0293736171511405
5.224689097428855
2.2949568932631417
0.04882887006942855
0.537117570763714
-2.2949568932631417
-4.541084916456855
-6.884870679789426
-9.228656443121995
-8.74036774242771
-11.670099946593423
-13.916227969787137
-13.427939269092851
-16.357671473258563
-18.60379949645228
-20.947585259784848
-23.291371023117417
-22.705424582284277
-25.732814526588847
-27.881284809643702
-27.392996108949415
-30.322728313115128
-32.56885633630884
-34.91264209964141
-37.256427862973986
-36.67048142214084
-39.69787136644541
-41.84634164950027
-41.358052948805984
-44.28778515297169
-46.533913176165406
-48.877698939497975
-51.22148470283055
-50.635538261997404
-52.6863508049134
-54.15121690699626
-53.760585946440834
-54.83482108796826
-55.51842526894026
-57.178606851300835
-58.74113069352254
-58.350499732967116
-59.42473487449455
-60.108339055466544
-59.91302357518883
-60.8896009765774
-61.5732051575494
-63.33104448004883
-64.79591058213168
-64.50293736171511
-65.47951476310368
-66.16311894407569
-65.96780346379796
-66.94438086518655
-67.7256427862974
-66.55374990463112
-65.77248798352025
-65.96780346379796
-64.9912260624094
-64.20996414129854
-64.3076218814374
-61.37788967727169
-59.13176165407798
-54.83482108796826
-51.02616922255284
-51.90508888380255
-46.92454413672083
-43.21355001144427
-43.99481193255512
-38.03768978408484
-33.64309147783627
-31.787594415197987
-29.346150911726557
-29.834439612420844
-30.615701533531702
-31.396963454642556
-31.201647974364842
-31.2993057145037
-31.2993057145037
-28.369573510337986
-26.123445487144274
-26.61173418783856
-21.728847180895706
-18.017853055619135
-18.89677271686885
-12.939650568398566
-8.545052262149996
-1.9043259327077133
4.150453955901427
2.783245593957427
8.838025482566568
13.232623788815136
12.256046387426567
13.427939269092851
14.11154345006485
12.060730907148852
10.595864805065995
10.888838025482567
7.959105821316854
5.810635538261997
6.298924238956283
4.248111696040284
2.783245593957427
0.24414435034714274
-2.0019836728465705
-1.416037232013428
-3.466849774929427
-4.931715877012284
-4.638742656595713
-5.615320057984283
-6.39658197909514
-8.154421301594567
-9.619287403677424
-9.326314183260854
-10.302891584649425
-10.986495765621424
-10.888838025482567
-11.865415426871138
-12.549019607843137
-12.45136186770428
-12.45136186770428
-12.45136186770428
-13.427939269092851
-14.11154345006485
-13.916227969787137
-14.990463111314565
-15.674067292286564
-15.47875181200885
-15.576409552147707
-15.576409552147707
-16.45532921339742
-17.236591134508277
-17.041275654230564
-18.017853055619135
-18.799114976729992
-19.58037689784085
-20.361638818951704
-20.16632333867399
-21.14290074006256
-21.826504921034562
-21.728847180895706
-21.728847180895706
-21.728847180895706
-21.728847180895706
-21.728847180895706
-21.728847180895706
-20.752269779507134
-19.971007858396277
-20.16632333867399
-17.236591134508277
-14.990463111314565
-11.670099946593423
-8.545052262149996
-9.228656443121995
-4.345769436179141
-0.6347753109025711
-1.513694972152285
4.345769436179141
8.74036774242771
12.549019607843137
16.45532921339742
15.576409552147707
21.533531700617992
25.92813000686656
24.95155260547799
30.908674753948272
35.303273060196844
39.014267185473415
42.92057679102769
42.04165712977798
46.04562447547112
48.97535667963683
48.291752498664835
51.31914244296941
53.467612726024264
53.95590142671855
54.7371633478294
54.54184786755169
54.639505607690545
54.54184786755169
54.54184786755169
53.56527046616312
52.78400854505226
51.02616922255284
49.56130312046998
49.85427634088655
47.80346379797055
46.33859769588769
46.63157091630426
43.70183871213855
41.45571068894484
40.08850232700084
38.42832074464027
38.818951705195694
37.74471656366827
37.06111238269627
37.15877012283513
36.182192721446555
35.4009308003357
34.61966887922484
33.838406958113985
34.0337224383917
32.95948729686427
32.27588311589227
32.37354085603113
30.420386053253985
28.95551995117113
26.416418707560844
24.072632944228275
24.560921644922562
21.63118944075685
19.385061417563133
19.87335011825742
15.967040512703136
13.037308308537423
10.79118028534371
8.44739452201114
8.935683222705425
6.005951018539712
3.7598229953459983
4.248111696040284
1.3183794918745708
-0.8300907911802854
-2.2949568932631417
-3.8574807354848555
-3.466849774929427
-4.541084916456855
-5.224689097428855
-5.127031357289998
-6.103608758678568
-6.787212939650568
-6.6895551995117115
-6.6895551995117115
-6.6895551995117115
-3.7598229953459983
-1.6113527122911422
-2.0996414129854277
3.662165255207141
8.05676356145571
16.650644693675137
24.267948424505988
22.60776684214542
34.424353398947126
43.21355001144427
41.26039520866713
54.053559166857404
63.6240177004654
72.99916075379568
82.27664606698711
80.2258335240711
90.18692301823454
97.51125352864881
95.85107194628824
101.90585183489738
106.2027924010071
109.03486686503395
112.15991454947738
111.47631036850538
112.5505455100328
113.2341496910048
113.03883421072709
111.08567940794995
109.52315556572823
106.98405432211796
104.64026855878538
105.12855725947966
99.26909285114824
94.77683680476082
95.75341420614939
88.81971465629053
83.6438544289311
74.26871137560083
65.8701457236591
67.62798504615854
53.85824368657969
43.50652323186084
45.85030899519341
32.86182955672541
23.389028763256274
15.869382772564279
7.959105821316854
9.71694514381628
3.662165255207141
-0.6347753109025711
0.24414435034714274
-1.8066681925688564
-3.2715342946517127
-1.9043259327077133
-1.3183794918745708
-1.416037232013428
-0.43945983062485694
0.24414435034714274
0.04882887006942855
-0.8300907911802854
-1.513694972152285
-4.248111696040284
-6.494239719233997
-6.005951018539712
-9.912260624093996
-12.84199282825971
-12.158388647287708
-16.16235599298085
-19.092088197146563
-22.21713588158999
-25.342183566033416
-24.65857938506142
-29.541466392004274
-33.252460517280845
-32.471198596169984
-36.37750820172427
-39.307240405889985
-42.529945830472265
-45.55733577477684
-44.873731593804834
-47.90112153810941
-50.04959182116426
-49.56130312046998
-51.61211566338598
-52.97932402532997
-52.6863508049134
-52.6863508049134
-52.6863508049134
-50.73319600213626
-49.26832990005341
-49.56130312046998
-43.79949645227741
-39.307240405889985
-31.68993667505913
-24.756237125200276
-26.318760967421987
-13.525597009231708
-3.9551384756237127
-6.103608758678568
8.642710002288853
19.678034637979707
30.518043793392845
41.45571068894484
39.014267185473415
50.04959182116426
58.057526512550545
56.29968719005112
65.28419928282597
71.8272678721294
75.14763103685054
79.15159838254368
78.17502098115511
81.20241092545967
83.4485389486534
82.86259250782025
82.96025024795911
82.96025024795911
81.00709544518196
79.44457160296025
79.83520256351568
75.83123521782254
72.90150301365682
73.48744945448996
67.62798504615854
63.233386739909974
58.44815747310597
53.760585946440834
54.7371633478294
47.80346379797055
42.62760357061112
43.79949645227741
36.86579690241855
31.68993667505913
28.076600289921416
24.072632944228275
24.95155260547799
19.971007858396277
16.260013733119706
17.13893339436942
13.13496604867628
10.205233844510566
7.959105821316854
5.615320057984283
6.103608758678568
3.076218814373999
0.9277485313191425
1.416037232013428
-0.537117570763714
-2.0019836728465705
-3.5645075150682843
-5.127031357289998
-4.736400396734569
-6.787212939650568
-8.252079041733426
-7.861448081177996
-10.79118028534371
-13.037308308537423
-15.381094071869994
-17.724879835202564
-17.236591134508277
-20.16632333867399
-22.412451361867703
-21.92416266117342
-24.853894865339132
-27.100022888532845
-29.443808651865414
-31.787594415197987
-31.201647974364842
-34.22903791866941
-36.37750820172427
-35.889219501029984
-37.84237430380713
-39.307240405889985
-39.99084458686198
-40.772106507972836
-40.57679102769512
-41.5533684290837
-42.236972610055695
-42.04165712977798
-42.13931486991684
-42.04165712977798
-40.186160067139696
-38.62363622491798
-39.014267185473415
-34.131380178530556
-30.420386053253985
-31.201647974364842
-22.412451361867703
-15.771725032425422
-7.763790341039139
0.04882887006942855
-1.7090104524299992
10.009918364232853
18.89677271686885
16.943617914091707
28.760204470893417
37.64705882352941
44.19012741283284
51.31914244296941
49.75661860074769
55.81139848935683
60.108339055466544
59.13176165407798
62.2568093385214
64.40527962157626
64.79591058213168
65.6748302433814
65.47951476310368
64.50293736171511
63.72167544060426
63.91699092088197
60.01068131532769
57.08094911116198
52.881666285191116
49.073014419775696
49.85427634088655
42.04165712977798
36.0845349813077
37.4517433432517
30.420386053253985
25.24452582589456
18.799114976729992
12.549019607843137
13.916227969787137
6.982528419928283
1.8066681925688564
2.9785610742351416
-2.8809033340962844
-7.275501640344854
-11.08415350576028
-14.990463111314565
-14.11154345006485
-17.236591134508277
-19.385061417563133
-18.89677271686885
-21.826504921034562
-24.072632944228275
-27.392996108949415
-30.420386053253985
-29.736781872281988
-36.57282368200198
-41.74868390936141
-40.57679102769512
-46.533913176165406
-50.928511482413974
-51.80743114366369
-53.56527046616312
-53.17463950560769
-52.295719844357976
-51.51445792324712
-51.61211566338598
-46.826886396581976
-43.11589227130541
-37.15877012283513
-31.787594415197987
-32.95948729686427
-27.002365148393988
-22.60776684214542
-23.58434424353399
-20.45929655909056
-18.310826276035705
-20.654612039368278
-22.021820401312276
-21.728847180895706
-22.705424582284277
-23.48668650339513
-23.291371023117417
-25.24452582589456
-26.709391927977418
-27.295338368810558
-28.174258030060273
-27.97894254978256
-27.97894254978256
-27.97894254978256
-27.97894254978256
-27.002365148393988
-26.22110322728313
-23.48668650339513
-21.24055848020142
-21.728847180895706
-17.82253757534142
-14.892805371175708
-15.47875181200885
-11.572442206454566
-8.642710002288853
-4.443427176317998
-0.6347753109025711
-1.513694972152285
2.392614633401999
5.322346837567712
4.736400396734569
7.763790341039139
9.912260624093996
11.377126726176853
12.939650568398566
12.549019607843137
13.623254749370565
14.306858930342566
14.11154345006485
14.209201190203707
14.209201190203707
12.256046387426567
10.79118028534371
11.08415350576028
9.130998702983138
7.666132600900283
7.959105821316854
5.0293736171511405
2.783245593957427
0.43945983062485694
-1.8066681925688564
-1.3183794918745708
-5.224689097428855
-8.154421301594567
-7.470817120622568
-10.498207064927138
-12.74433508812085
-15.088120851453422
-17.43190661478599
-16.84596017395285
-19.87335011825742
-22.021820401312276
-21.533531700617992
-23.58434424353399
-25.049210345616846
-26.61173418783856
-28.174258030060273
-27.783627069504846
-29.736781872281988
-31.201647974364842
-30.908674753948272
-32.86182955672541
-34.32669565880827
-35.889219501029984
-37.4517433432517
-37.06111238269627
-39.99084458686198
-42.236972610055695
-41.74868390936141
-43.70183871213855
-45.16670481422141
-47.705806057831694
-49.951934081025406
-49.46364538033112
-51.416800183108265
-52.881666285191116
-52.588693064774546
-54.54184786755169
-56.006713969634546
-55.61608300907912
-55.713740749217976
-55.61608300907912
-55.61608300907912
-55.61608300907912
-55.61608300907912
-55.61608300907912
-55.51842526894026
-54.54184786755169
-53.85824368657969
-53.95590142671855
-52.002746623941405
-50.53788052185855
-50.83085374227512
-47.90112153810941
-45.654993514915695
-42.33463035019455
-39.20958266575113
-39.893186846723125
-34.0337224383917
-29.541466392004274
-30.518043793392845
-24.560921644922562
-20.16632333867399
-15.381094071869994
-10.693522545204852
-11.767757686732281
-5.810635538261997
-1.416037232013428
-2.392614633401999
2.490272373540856
6.201266498817426
8.252079041733426
10.595864805065995
10.10757610437171
12.158388647287708
13.525597009231708
13.232623788815136
14.306858930342566
14.990463111314565
13.916227969787137
13.13496604867628
13.330281528953995
12.353704127565424
11.572442206454566
11.767757686732281
8.838025482566568
6.591897459372854
4.248111696040284
1.9043259327077133
2.392614633401999
-1.416037232013428
-4.345769436179141
-3.662165255207141
-8.642710002288853
-12.256046387426567
-15.283436331731137
-18.40848401617456
-17.724879835202564
-21.728847180895706
-24.65857938506142
-23.974975204089418
-27.97894254978256
-30.908674753948272
-32.08056763561456
-33.74074921797513
-33.3501182574197
-35.303273060196844
-36.768139162279695
-36.475165941863125
-38.42832074464027
-39.893186846723125
-40.479133287556266
-41.26039520866713
-41.065079728389414
-41.16273746852827
-41.065079728389414
-41.065079728389414
-41.065079728389414
-41.065079728389414
-42.04165712977798
-42.72526131074998
-42.529945830472265
-43.50652323186084
-44.28778515297169
-44.09246967269398
-45.069047074082555
-45.75265125505455
-49.46364538033112
-52.39337758449683
-51.709773403524835
-56.59266041046769
-60.30365453574426
-59.42473487449455
-63.42870222018769
-66.3584344243534
-66.65140764476998
-67.53032730601969
-67.33501182574197
-63.526359960326545
-60.49897001602197
-61.182574196993976
-53.36995498588541
-47.412832837415124
-39.11192492561227
-31.396963454642556
-33.15480277714199
-23.19371328297856
-15.869382772564279
-17.43190661478599
-9.42397192339971
-3.5645075150682843
-0.14648661020828566
3.7598229953459983
2.8809033340962844
7.861448081177996
11.47478446631571
10.693522545204852
14.697489890897993
17.627222095063708
21.728847180895706
25.63515678644999
24.756237125200276
30.615701533531702
35.010299839780274
34.0337224383917
39.99084458686198
44.38544289311055
48.19409475852598
52.10040436408026
51.22148470283055
56.1043717097734
59.815365835049974
58.936446173800256
60.987258716716255
62.45212481879911
63.03807125963226
63.819333180743115
63.6240177004654
62.745098039215684
61.96383611810483
62.061493858243686
60.108339055466544
58.643472953383686
57.08094911116198
55.420767528801406
55.81139848935683
53.760585946440834
52.295719844357976
52.588693064774546
49.658960860608836
47.412832837415124
46.04562447547112
44.38544289311055
44.77607385366598
42.72526131074998
41.26039520866713
41.5533684290837
39.600213626306555
38.03768978408484
36.475165941863125
34.91264209964141
35.303273060196844
34.22903791866941
33.44777599755856
33.64309147783627
31.68993667505913
30.22507057297627
28.564888990615703
27.002365148393988
27.392996108949415
24.4632639047837
22.21713588158999
22.705424582284277
19.678034637979707
17.52956435492485
15.088120851453422
12.74433508812085
13.330281528953995
10.302891584649425
8.05676356145571
8.545052262149996
6.591897459372854
5.127031357289998
3.466849774929427
2.0019836728465705
2.2949568932631417
1.2207217517357138
0.537117570763714
0.7324330510414282
0.6347753109025711
0.6347753109025711
1.6113527122911422
2.392614633401999
2.197299153124285
4.150453955901427
5.615320057984283
5.322346837567712
7.275501640344854
8.74036774242771
10.302891584649425
11.865415426871138
11.572442206454566
14.50217441062028
16.650644693675137
16.16235599298085
18.21316853589685
19.678034637979707
21.24055848020142
22.803082322423133
22.412451361867703
25.342183566033416
27.588311589227132
27.100022888532845
30.029755092698558
32.178225375753414
34.61966887922484
36.86579690241855
36.37750820172427
38.42832074464027
39.79552910658427
39.5025558861677
41.45571068894484
42.92057679102769
41.651026169222554
40.96742198825055
41.065079728389414
38.1353475242237
35.98687724116884
36.37750820172427
33.44777599755856
31.201647974364842
27.881284809643702
24.756237125200276
25.439841306172273
20.55695429922942
16.84596017395285
17.627222095063708
13.623254749370565
10.693522545204852
7.568474860761425
4.443427176317998
5.127031357289998
2.0996414129854277
0.04882887006942855
0.43945983062485694
-1.513694972152285
-2.9785610742351416
-3.5645075150682843
-4.443427176317998
-4.248111696040284
-5.224689097428855
-6.005951018539712
-5.810635538261997
-5.810635538261997
-5.810635538261997
-6.787212939650568
-7.568474860761425
-7.373159380483711
-7.373159380483711
-7.373159380483711
-7.373159380483711
-7.373159380483711
-7.373159380483711
-7.373159380483711
-7.373159380483711
-7.373159380483711
-8.349736781872283
-9.033340962844282
-8.935683222705425
-9.912260624093996
-10.595864805065995
-11.377126726176853
-12.158388647287708
-11.963073167009995
-13.916227969787137
-15.381094071869994
-15.088120851453422
-16.064698252841993
-16.84596017395285
-16.650644693675137
-16.650644693675137
-16.650644693675137
-15.674067292286564
-14.990463111314565
-15.088120851453422
-13.13496604867628
-11.670099946593423
-12.060730907148852
-11.963073167009995
-11.963073167009995
-13.81857022964828
-15.381094071869994
-14.990463111314565
-16.064698252841993
-16.748302433813993
-15.674067292286564
-14.892805371175708
-15.088120851453422
-11.181811245899137
-8.252079041733426
-8.935683222705425
-2.0996414129854277
2.9785610742351416
9.521629663538567
15.674067292286564
14.306858930342566
21.24055848020142
26.416418707560844
25.24452582589456
28.369573510337986
30.518043793392845
29.053177691309987
28.467231250476843
28.564888990615703
27.588311589227132
26.807049668116274
27.002365148393988
25.049210345616846
23.58434424353399
21.045242999923705
18.701457236591136
19.18974593728542
17.13893339436942
15.674067292286564
16.064698252841993
13.13496604867628
10.888838025482567
8.545052262149996
6.201266498817426
6.6895551995117115
4.638742656595713
3.1738765545128556
3.466849774929427
0.537117570763714
-1.513694972152285
-2.9785610742351416
-4.541084916456855
-4.150453955901427
-6.201266498817426
-7.666132600900283
-7.275501640344854
-10.302891584649425
-12.45136186770428
-13.916227969787137
-15.47875181200885
-15.088120851453422
-17.13893339436942
-18.506141756313422
-18.21316853589685
-21.14290074006256
-23.389028763256274
-25.732814526588847
-28.076600289921416
-27.49065384908827
-30.518043793392845
-32.6665140764477
-32.178225375753414
-35.10795757991913
-37.35408560311284
-38.72129396505684
-40.28381780727855
-39.99084458686198
-41.943999389639124
-43.40886549172198
-43.018234531166556
-44.09246967269398
-44.77607385366598
-45.55733577477684
-46.33859769588769
-46.14328221560998
-45.16670481422141
-44.48310063324941
-44.580758373388264
-42.62760357061112
-41.16273746852827
-39.5025558861677
-37.94003204394598
-38.33066300450141
-34.424353398947126
-31.396963454642556
-32.08056763561456
-28.076600289921416
-25.146868085755703
-21.045242999923705
-17.13893339436942
-18.017853055619135
-12.060730907148852
-7.666132600900283
-8.642710002288853
-3.662165255207141
-0.04882887006942855
3.8574807354848555
7.763790341039139
6.884870679789426
11.865415426871138
15.47875181200885
14.697489890897993
16.748302433813993
18.21316853589685
19.775692378118563
21.338216220340275
21.045242999923705
20.068665598535134
19.385061417563133
19.48271915770199
17.52956435492485
16.064698252841993
14.50217441062028
12.939650568398566
13.232623788815136
9.326314183260854
6.39658197909514
7.080186160067139
3.076218814373999
0.14648661020828566
-2.8809033340962844
-6.005951018539712
-5.322346837567712
-9.326314183260854
-12.256046387426567
-11.572442206454566
-15.576409552147707
-18.506141756313422
-21.63118944075685
-24.756237125200276
-24.072632944228275
-27.97894254978256
-30.908674753948272
-30.22507057297627
-33.252460517280845
-35.49858854047456
-36.86579690241855
-38.42832074464027
-38.03768978408484
-40.96742198825055
-43.21355001144427
-42.72526131074998
-44.67841611352712
-46.14328221560998
-46.72922865644312
-47.60814831769284
-47.412832837415124
-49.26832990005341
-50.73319600213626
-50.44022278171969
-52.39337758449683
-53.85824368657969
-55.420767528801406
-56.983291371023114
-56.59266041046769
-58.54581521324483
-60.01068131532769
-59.62005035477226
-60.694285496299685
-61.37788967727169
-62.15915159838254
-62.9404135194934
-62.745098039215684
-60.79194323643854
-59.32707713435569
-59.62005035477226
-57.66689555199512
-56.1043717097734
-52.588693064774546
-49.56130312046998
-50.24490730144198
-44.28778515297169
-39.893186846723125
-40.86976424811169
-35.889219501029984
-32.178225375753414
-27.295338368810558
-22.60776684214542
-23.682001983672848
-17.627222095063708
-13.232623788815136
-14.209201190203707
-8.252079041733426
-3.8574807354848555
0.7324330510414282
5.420004577706569
4.443427176317998
9.42397192339971
13.037308308537423
12.256046387426567
16.260013733119706
19.18974593728542
19.48271915770199
20.361638818951704
20.16632333867399
17.334248874647134
15.088120851453422
15.576409552147707
11.670099946593423
8.642710002288853
7.470817120622568
5.810635538261997
6.201266498817426
6.103608758678568
6.103608758678568
6.103608758678568
8.935683222705425
11.181811245899137
15.47875181200885
19.287403677424276
18.40848401617456
24.365606164644845
28.760204470893417
27.783627069504846
29.834439612420844
31.2993057145037
30.908674753948272
31.00633249408713
31.00633249408713
31.00633249408713
31.00633249408713
31.00633249408713
30.029755092698558
29.2484931715877
28.467231250476843
27.68596932936599
27.783627069504846
25.830472266727703
24.365606164644845
24.65857938506142
21.728847180895706
19.58037689784085
16.16235599298085
13.13496604867628
13.81857022964828
9.81460288395514
6.884870679789426
7.568474860761425
4.541084916456855
2.2949568932631417
-0.9277485313191425
-3.9551384756237127
-3.2715342946517127
-7.275501640344854
-10.205233844510566
-9.521629663538567
-12.549019607843137
-14.697489890897993
-16.16235599298085
-17.724879835202564
-17.43190661478599
-16.55298695353628
-15.771725032425422
-15.869382772564279
-13.916227969787137
-12.45136186770428
-8.935683222705425
-5.908293278400855
-6.591897459372854
-1.7090104524299992
1.9043259327077133
1.1230640115968566
6.005951018539712
9.71694514381628
14.599832150759136
19.287403677424276
18.21316853589685
23.19371328297856
26.90470740825513
26.025787747005417
30.029755092698558
32.95948729686427
35.20561532005799
37.549401083390556
36.96345464255741
39.014267185473415
40.479133287556266
40.08850232700084
41.16273746852827
41.84634164950027
42.62760357061112
43.40886549172198
43.21355001144427
44.19012741283284
44.873731593804834
44.67841611352712
44.77607385366598
44.67841611352712
44.67841611352712
44.67841611352712
44.67841611352712
42.72526131074998
41.26039520866713
41.5533684290837
40.479133287556266
39.79552910658427
37.06111238269627
34.81498435950255
35.303273060196844
31.396963454642556
28.369573510337986
29.053177691309987
25.049210345616846
22.119478141451133
18.994430457007706
15.869382772564279
16.55298695353628
12.549019607843137
9.619287403677424
10.205233844510566
6.298924238956283
3.36919203479057
1.1230640115968566
-1.1230640115968566
-0.6347753109025711
-2.68558785381857
-4.150453955901427
-3.7598229953459983
-5.810635538261997
-7.275501640344854
-8.838025482566568
-10.400549324788281
-10.009918364232853
-11.08415350576028
-11.767757686732281
-11.572442206454566
-13.525597009231708
-14.990463111314565
-15.674067292286564
-16.45532921339742
-16.260013733119706
-17.236591134508277
-18.017853055619135
-17.82253757534142
-17.82253757534142
-17.82253757534142
-17.82253757534142
-17.82253757534142
-17.82253757534142
-15.869382772564279
-14.404516670481422
-14.697489890897993
-11.767757686732281
-9.619287403677424
-5.322346837567712
-1.513694972152285
-2.2949568932631417
4.443427176317998
9.619287403677424
8.44739452201114
17.334248874647134
23.974975204089418
31.9829098954757
39.69787136644541
38.03768978408484
46.04562447547112
51.80743114366369
50.53788052185855
57.471580071717405
62.64744029907683
66.26077668421455
70.16708628976883
69.28816662851911
71.33897917143511
72.80384527351796
72.41321431296254
73.3897917143511
74.17105363546197
72.02258335240711
70.55771725032426
70.85069047074083
68.89753566796368
67.33501182574197
67.62798504615854
63.72167544060426
60.79194323643854
56.690318150606544
52.78400854505226
53.66292820630198
48.68238345922026
44.97138933394369
45.75265125505455
39.79552910658427
35.4009308003357
30.615701533531702
25.92813000686656
27.002365148393988
21.045242999923705
16.650644693675137
17.627222095063708
12.549019607843137
8.935683222705425
1.1230640115968566
-5.615320057984283
-4.052796215762569
-14.013885709925994
-21.338216220340275
-19.678034637979707
-29.63912413214313
-36.96345464255741
-40.96742198825055
-45.85030899519341
-44.77607385366598
-45.947966735332265
-46.63157091630426
-46.43625543602655
-43.604180971999696
-41.358052948805984
-36.0845349813077
-31.494621194781413
-32.471198596169984
-27.49065384908827
-23.87731746395056
-24.65857938506142
-22.510109102006563
-21.045242999923705
-23.291371023117417
-24.756237125200276
-24.365606164644845
-27.295338368810558
-29.541466392004274
-29.053177691309987
-31.9829098954757
-34.22903791866941
-35.596246280613414
-37.15877012283513
-36.768139162279695
-39.69787136644541
-41.943999389639124
-41.45571068894484
-42.529945830472265
-43.21355001144427
-43.018234531166556
-43.018234531166556
-43.018234531166556
-41.065079728389414
-39.600213626306555
-39.893186846723125
-36.96345464255741
-34.717326619363696
-31.396963454642556
-28.27191577019913
-28.95551995117113
-24.072632944228275
-20.361638818951704
-21.14290074006256
-17.13893339436942
-14.209201190203707
-10.10757610437171
-6.201266498817426
-7.080186160067139
-3.076218814373999
-0.14648661020828566
-0.8300907911802854
2.0996414129854277
4.248111696040284
5.71297779812314
7.275501640344854
6.982528419928283
8.935683222705425
10.400549324788281
10.10757610437171
10.10757610437171
10.10757610437171
10.10757610437171
10.10757610437171
10.10757610437171
8.154421301594567
6.6895551995117115
7.080186160067139
5.0293736171511405
3.5645075150682843
0.04882887006942855
-2.8809033340962844
-2.197299153124285
-7.080186160067139
-10.79118028534371
-9.912260624093996
-13.916227969787137
-16.84596017395285
-20.947585259784848
-24.853894865339132
-23.974975204089418
-27.97894254978256
-30.908674753948272
-30.22507057297627
-33.252460517280845
-35.4009308003357
-37.74471656366827
-40.08850232700084
-39.600213626306555
-41.5533684290837
-43.018234531166556
-42.72526131074998
-44.67841611352712
-46.14328221560998
-46.72922865644312
-47.51049057755398
-47.31517509727627
-48.291752498664835
-49.073014419775696
-48.877698939497975
-49.85427634088655
-50.53788052185855
-50.34256504158083
-50.44022278171969
-50.34256504158083
-51.31914244296941
-52.002746623941405
-51.90508888380255
-53.760585946440834
-55.22545204852369
-55.90905622949569
-56.690318150606544
-56.49500267032883
-57.471580071717405
-58.1551842526894
-57.95986877241169
-57.95986877241169
-57.95986877241169
-56.983291371023114
-56.20202944991226
-56.39734493018997
-54.44419012741283
-52.881666285191116
-53.27229724574655
-49.365987640192266
-46.33859769588769
-41.26039520866713
-36.67048142214084
-37.64705882352941
-30.71335927367056
-25.537499046311133
-26.709391927977418
-19.775692378118563
-14.599832150759136
-9.033340962844282
-3.662165255207141
-4.834058136873426
1.0254062714579995
5.420004577706569
4.443427176317998
10.400549324788281
14.795147631036851
17.627222095063708
20.84992751964599
20.16632333867399
22.21713588158999
23.682001983672848
23.291371023117417
24.365606164644845
25.049210345616846
24.853894865339132
24.853894865339132
24.853894865339132
22.998397802700847
21.43587396047913
21.826504921034562
20.752269779507134
20.068665598535134
18.310826276035705
16.748302433813993
17.041275654230564
15.088120851453422
13.623254749370565
13.916227969787137
11.963073167009995
10.498207064927138
9.81460288395514
9.033340962844282
9.228656443121995
8.252079041733426
7.470817120622568
7.666132600900283
6.6895551995117115
5.908293278400855
6.103608758678568
6.005951018539712
6.005951018539712
6.005951018539712
6.005951018539712
6.005951018539712
5.0293736171511405
4.345769436179141
2.5879301136797133
1.0254062714579995
1.416037232013428
-0.43945983062485694
-2.0019836728465705
-1.6113527122911422
-3.5645075150682843
-5.0293736171511405
-8.545052262149996
-11.572442206454566
-10.888838025482567
-16.84596017395285
-21.24055848020142
-20.263981078812847
-26.123445487144274
-30.615701533531702
-32.471198596169984
-34.91264209964141
-34.32669565880827
-34.424353398947126
-34.424353398947126
-34.424353398947126
-31.494621194781413
-29.2484931715877
-25.92813000686656
-22.90074006256199
-23.48668650339513
-17.627222095063708
-13.232623788815136
-14.209201190203707
-10.205233844510566
-7.275501640344854
-5.0293736171511405
-2.68558785381857
-3.1738765545128556
1.6113527122911422
5.322346837567712
4.541084916456855
10.400549324788281
14.795147631036851
19.58037689784085
24.267948424505988
23.19371328297856
29.150835431448844
33.545433737697415
32.56885633630884
36.57282368200198
39.5025558861677
41.651026169222554
43.99481193255512
43.50652323186084
44.580758373388264
45.26436255436027
45.069047074082555
45.069047074082555
45.069047074082555
44.09246967269398
43.311207751583126
43.50652323186084
41.5533684290837
40.08850232700084
40.38147554741741
39.307240405889985
38.62363622491798
36.86579690241855
35.303273060196844
35.596246280613414
34.61966887922484
33.838406958113985
34.0337224383917
32.95948729686427
32.27588311589227
30.518043793392845
28.95551995117113
29.2484931715877
26.318760967421987
24.17029068436713
24.65857938506142
21.63118944075685
19.385061417563133
17.041275654230564
14.697489890897993
15.185778591592278
12.256046387426567
10.009918364232853
10.498207064927138
7.568474860761425
5.322346837567712
2.9785610742351416
0.6347753109025711
1.1230640115968566
-1.7090104524299992
-3.9551384756237127
-3.466849774929427
-5.517662317845426
-6.982528419928283
-7.568474860761425
-8.349736781872283
-8.154421301594567
-9.228656443121995
-9.912260624093996
-9.71694514381628
-9.81460288395514
-9.81460288395514
-9.81460288395514
-9.81460288395514
-9.71694514381628
-9.71694514381628
-9.71694514381628
-9.71694514381628
-8.838025482566568
-8.05676356145571
-7.275501640344854
-6.494239719233997
-6.6895551995117115
-5.615320057984283
-4.931715877012284
-5.127031357289998
-1.2207217517357138
1.6113527122911422
6.6895551995117115
11.279468986037996
10.302891584649425
19.092088197146563
25.732814526588847
24.267948424505988
35.10795757991913
43.11589227130541
52.78400854505226
62.061493858243686
60.01068131532769
71.92492561226825
80.71412222476539
78.6633096818494
87.7454795147631
94.28854810406654
98.48783093003739
103.27306019684139
102.19882505531396
105.22621499961852
107.37468528267338
106.8863965819791
106.8863965819791
106.8863965819791
103.95666437781338
101.71053635461966
102.19882505531396
97.21828030823224
93.50728618295567
94.28854810406654
89.30800335698481
85.59700923170824
81.69069962615396
77.78439002059967
78.56565194171054
73.58510719462882
69.87411306935225
70.65537499046312
65.6748302433814
62.061493858243686
59.03410391393912
55.81139848935683
56.49500267032883
52.49103532463569
49.56130312046998
50.24490730144198
46.240939955748836
43.311207751583126
39.11192492561227
35.303273060196844
36.0845349813077
31.103990234225986
27.49065384908827
28.27191577019913
23.291371023117417
19.58037689784085
15.674067292286564
11.767757686732281
12.646677347981994
9.521629663538567
7.373159380483711
7.861448081177996
3.9551384756237127
0.9277485313191425
-1.1230640115968566
-3.466849774929427
-2.9785610742351416
-6.005951018539712
-8.154421301594567
-7.666132600900283
-10.595864805065995
-12.84199282825971
-15.185778591592278
-17.52956435492485
-17.041275654230564
-19.971007858396277
-22.21713588158999
-21.728847180895706
-24.65857938506142
-26.807049668116274
-29.2484931715877
-31.592278934920273
-31.00633249408713
-34.0337224383917
-36.182192721446555
-35.69390402075227
-37.64705882352941
-39.11192492561227
-42.62760357061112
-45.654993514915695
-44.97138933394369
-49.85427634088655
-53.56527046616312
-52.6863508049134
-55.713740749217976
-57.86221103227283
-55.51842526894026
-54.053559166857404
-54.346532387273975
-48.584725719081405
-44.09246967269398
-45.069047074082555
-36.27985046158541
-29.63912413214313
-19.58037689784085
-10.400549324788281
-12.45136186770428
-0.537117570763714
8.252079041733426
6.298924238956283
14.306858930342566
20.16632333867399
21.728847180895706
24.267948424505988
23.682001983672848
26.61173418783856
28.857862211032273
28.369573510337986
29.346150911726557
30.127412832837415
29.9320973525597
29.9320973525597
29.9320973525597
28.95551995117113
28.27191577019913
28.369573510337986
25.439841306172273
23.291371023117417
20.84992751964599
18.506141756313422
18.994430457007706
15.088120851453422
12.158388647287708
12.84199282825971
9.81460288395514
7.568474860761425
4.248111696040284
1.2207217517357138
1.9043259327077133
-1.0254062714579995
-3.2715342946517127
-2.783245593957427
-6.6895551995117115
-9.619287403677424
-12.84199282825971
-15.869382772564279
-15.185778591592278
-20.16632333867399
-23.779659723811704
-22.998397802700847
-27.97894254978256
-31.592278934920273
-34.61966887922484
-37.74471656366827
-37.06111238269627
-41.943999389639124
-45.55733577477684
-44.77607385366598
-48.78004119935912
-51.709773403524835
-54.83482108796826
-57.95986877241169
-57.178606851300835
-60.2059967956054
-62.35446707866026
-61.86617837796597
-63.91699092088197
-65.28419928282597
-65.96780346379796
-66.74906538490883
-66.55374990463112
-68.4092469672694
-69.87411306935225
-69.58113984893568
-71.53429465171283
-72.99916075379568
-73.58510719462882
-74.36636911573969
-74.17105363546197
-74.17105363546197
-74.17105363546197
-74.07339589532312
-72.21789883268482
-70.65537499046312
-69.0928511482414
-67.53032730601969
-67.82330052643626
-63.91699092088197
-60.8896009765774
-61.5732051575494
-56.59266041046769
-52.881666285191116
-47.0222018768597
-41.651026169222554
-42.822919050888835
-35.889219501029984
-30.71335927367056
-31.885252155336843
-24.95155260547799
-19.775692378118563
-14.209201190203707
-8.74036774242771
-9.912260624093996
-5.908293278400855
-2.9785610742351416
-3.5645075150682843
-2.490272373540856
-1.8066681925688564
-2.8809033340962844
-3.5645075150682843
-3.466849774929427
-5.420004577706569
-6.884870679789426
-6.494239719233997
-10.400549324788281
-13.427939269092851
-15.576409552147707
-17.920195315480278
-17.43190661478599
-21.338216220340275
-24.267948424505988
-23.58434424353399
-25.63515678644999
-27.100022888532845
-28.66254673075456
-30.22507057297627
-29.9320973525597
-30.908674753948272
-31.592278934920273
-31.494621194781413
-31.494621194781413
-31.494621194781413
-30.518043793392845
-29.736781872281988
-29.9320973525597
-29.834439612420844
-29.834439612420844
-29.834439612420844
-27.881284809643702
-26.416418707560844
-25.830472266727703
-24.95155260547799
-25.146868085755703
-23.19371328297856
-21.728847180895706
-22.021820401312276
-20.947585259784848
-20.263981078812847
-18.506141756313422
-16.943617914091707
-17.334248874647134
-16.260013733119706
-15.576409552147707
-15.674067292286564
-14.697489890897993
-14.013885709925994
-13.13496604867628
-12.353704127565424
-12.549019607843137
-12.549019607843137
-12.549019607843137
-12.549019607843137
-11.572442206454566
-10.79118028534371
-10.009918364232853
-9.228656443121995
-9.42397192339971
-7.470817120622568
-6.005951018539712
-6.298924238956283
-2.392614633401999
0.43945983062485694
6.494239719233997
11.865415426871138
10.595864805065995
19.48271915770199
26.123445487144274
24.65857938506142
36.37750820172427
45.26436255436027
54.7371633478294
64.01464866102083
61.96383611810483
72.90150301365682
80.9094377050431
79.15159838254368
88.03845273517967
94.67917906462196
96.04638742656596
98.48783093003739
97.90188448920424
94.19089036392768
91.1635004196231
91.8471046005951
85.88998245212481
81.49538414587624
76.71015487907225
72.02258335240711
72.99916075379568
67.0420386053254
62.64744029907683
63.526359960326545
59.522392614633404
56.59266041046769
56.20202944991226
55.32310978866255
55.51842526894026
54.54184786755169
53.760585946440834
53.85824368657969
51.90508888380255
50.44022278171969
46.92454413672083
43.89715419241627
44.580758373388264
42.43228809033341
40.96742198825055
41.26039520866713
39.307240405889985
37.84237430380713
36.27985046158541
34.61966887922484
35.010299839780274
32.95948729686427
31.494621194781413
31.885252155336843
27.97894254978256
24.95155260547799
21.826504921034562
18.701457236591136
19.385061417563133
14.404516670481422
10.79118028534371
11.572442206454566
7.568474860761425
4.638742656595713
0.537117570763714
-3.2715342946517127
-2.392614633401999
-6.39658197909514
-9.326314183260854
-8.642710002288853
-11.670099946593423
-13.916227969787137
-16.260013733119706
-18.60379949645228
-18.017853055619135
-20.068665598535134
-21.533531700617992
-21.14290074006256
-22.21713588158999
-22.90074006256199
-22.803082322423133
-22.803082322423133
-22.803082322423133
-20.84992751964599
-19.385061417563133
-19.678034637979707
-16.748302433813993
-14.50217441062028
-10.205233844510566
-6.39658197909514
-7.275501640344854
1.416037232013428
8.05676356145571
6.591897459372854
16.45532921339742
23.779659723811704
32.6665140764477
41.16273746852827
39.307240405889985
50.14724956130312
58.25284199282826
56.39734493018997
65.38185702296482
72.02258335240711
76.22186617837797
81.00709544518196
79.93286030365454
82.96025024795911
85.10872053101396
84.62043183031967
85.59700923170824
86.37827115281911
84.22980086976425
82.7649347676814
83.05790798809797
81.00709544518196
79.54222934309911
79.83520256351568
76.90547035934996
74.65934233615626
71.33897917143511
68.21393148699168
68.89753566796368
65.8701457236591
63.6240177004654
64.11230640115969
60.108339055466544
57.178606851300835
53.07698176546884
49.17067215991455
49.951934081025406
45.069047074082555
41.358052948805984
42.13931486991684
36.182192721446555
31.787594415197987
26.123445487144274
20.654612039368278
21.826504921034562
14.892805371175708
9.71694514381628
10.888838025482567
2.9785610742351416
-2.783245593957427
-8.154421301594567
-13.623254749370565
-12.45136186770428
-18.40848401617456
-22.803082322423133
-21.826504921034562
-27.783627069504846
-32.178225375753414
-35.98687724116884
-39.893186846723125
-39.014267185473415
-43.89715419241627
-47.60814831769284
-46.72922865644312
-50.73319600213626
-53.66292820630198
-56.7879758907454
-59.91302357518883
-59.22941939421683
-62.15915159838254
-64.40527962157626
-63.91699092088197
-65.8701457236591
-67.33501182574197
-66.94438086518655
-67.0420386053254
-66.94438086518655
-66.94438086518655
-66.94438086518655
-66.94438086518655
-64.9912260624094
-63.526359960326545
-60.01068131532769
-56.88563363088426
-57.56923781185626
-52.588693064774546
-48.97535667963683
-49.75661860074769
-42.822919050888835
-37.64705882352941
-31.201647974364842
-24.95155260547799
-26.318760967421987
-16.45532921339742
-9.130998702983138
-10.79118028534371
-1.8066681925688564
4.736400396734569
10.888838025482567
17.13893339436942
15.771725032425422
20.84992751964599
24.4632639047837
23.682001983672848
26.709391927977418
28.857862211032273
29.346150911726557
30.127412832837415
29.9320973525597
29.053177691309987
28.27191577019913
28.467231250476843
26.514076447699704
25.049210345616846
22.412451361867703
20.16632333867399
20.654612039368278
18.60379949645228
17.13893339436942
17.43190661478599
15.47875181200885
14.013885709925994
9.521629663538567
5.810635538261997
6.591897459372854
-0.14648661020828566
-5.322346837567712
-4.150453955901427
-11.08415350576028
-16.260013733119706
-18.89677271686885
-22.119478141451133
-21.43587396047913
-23.48668650339513
-24.95155260547799
-24.560921644922562
-23.682001983672848
-22.90074006256199
-19.287403677424276
-16.260013733119706
-16.943617914091707
-14.892805371175708
-13.427939269092851
-13.720912489509422
-13.623254749370565
-13.623254749370565
-17.43190661478599
-20.45929655909056
-19.775692378118563
-23.682001983672848
-26.61173418783856
-26.025787747005417
-29.9320973525597
-32.86182955672541
-35.98687724116884
-39.11192492561227
-38.42832074464027
-40.479133287556266
-41.943999389639124
-41.5533684290837
-43.50652323186084
-44.97138933394369
-46.533913176165406
-48.09643701838712
-47.705806057831694
-47.80346379797055
-47.80346379797055
-47.80346379797055
-46.826886396581976
-46.04562447547112
-44.28778515297169
-42.72526131074998
-43.11589227130541
-39.20958266575113
-36.182192721446555
-36.86579690241855
-31.885252155336843
-28.27191577019913
-23.291371023117417
-18.701457236591136
-19.678034637979707
-14.697489890897993
-10.986495765621424
-11.865415426871138
-6.884870679789426
-3.1738765545128556
-1.1230640115968566
1.2207217517357138
0.6347753109025711
2.68558785381857
4.150453955901427
3.7598229953459983
3.8574807354848555
3.8574807354848555
3.8574807354848555
3.8574807354848555
3.8574807354848555
3.8574807354848555
3.8574807354848555
3.8574807354848555
1.9043259327077133
0.43945983062485694
-0.04882887006942855
-0.9277485313191425
-0.7324330510414282
-3.5645075150682843
-5.810635538261997
-5.322346837567712
-8.349736781872283
-10.498207064927138
-13.81857022964828
-16.943617914091707
-16.260013733119706
-20.16632333867399
-23.096055542839704
-22.412451361867703
-25.439841306172273
-27.68596932936599
-30.029755092698558
-32.37354085603113
-31.787594415197987
-33.838406958113985
-35.303273060196844
-34.91264209964141
-35.010299839780274
-35.010299839780274
-35.010299839780274
-34.91264209964141
-34.91264209964141
-34.91264209964141
-34.91264209964141
-34.91264209964141
-35.889219501029984
-36.57282368200198
-36.37750820172427
-36.475165941863125
-36.37750820172427
-38.33066300450141
-39.79552910658427
-39.40489814602884
-39.5025558861677
-39.5025558861677
-39.5025558861677
-39.40489814602884
-39.40489814602884
-38.42832074464027
-37.74471656366827
-37.84237430380713
-34.91264209964141
-32.764171816586554
-29.346150911726557
-26.318760967421987
-27.002365148393988
-22.998397802700847
-20.068665598535134
-20.654612039368278
-16.748302433813993
-13.81857022964828
-10.595864805065995
-7.470817120622568
-8.154421301594567
-5.127031357289998
-2.9785610742351416
-3.466849774929427
-0.43945983062485694
1.6113527122911422
5.908293278400855
9.71694514381628
8.838025482566568
13.81857022964828
17.52956435492485
16.650644693675137
22.60776684214542
27.002365148393988
32.6665140764477
38.03768978408484
36.86579690241855
43.79949645227741
48.97535667963683
47.80346379797055
53.760585946440834
58.1551842526894
60.01068131532769
62.45212481879911
61.86617837796597
63.91699092088197
65.28419928282597
64.9912260624094
64.9912260624094
64.9912260624094
63.03807125963226
61.5732051575494
61.86617837796597
57.95986877241169
54.932478828107115
55.61608300907912
51.61211566338598
48.68238345922026
45.45967803463798
42.33463035019455
43.018234531166556
39.014267185473415
36.0845349813077
36.768139162279695
31.787594415197987
28.174258030060273
25.146868085755703
21.92416266117342
22.60776684214542
18.701457236591136
15.771725032425422
16.357671473258563
11.47478446631571
7.763790341039139
3.8574807354848555
0.04882887006942855
0.7324330510414282
-3.1738765545128556
-6.103608758678568
-5.420004577706569
-10.302891584649425
-14.013885709925994
-18.89677271686885
-23.58434424353399
-22.510109102006563
-31.2993057145037
-37.94003204394598
-36.475165941863125
-44.38544289311055
-50.24490730144198
-53.760585946440834
-57.66689555199512
-56.7879758907454
-59.815365835049974
-61.96383611810483
-61.475547417410546
-61.5732051575494
-61.5732051575494
-58.643472953383686
-56.39734493018997
-56.88563363088426
-54.83482108796826
-53.36995498588541
-53.66292820630198
-52.6863508049134
-51.90508888380255
-51.123826962691695
-50.24490730144198
-50.44022278171969
-47.51049057755398
-45.26436255436027
-45.75265125505455
-40.86976424811169
-37.15877012283513
-29.346150911726557
-22.510109102006563
-24.072632944228275
-13.232623788815136
-5.127031357289998
-6.884870679789426
5.810635538261997
15.381094071869994
24.756237125200276
34.131380178530556
31.9829098954757
43.89715419241627
52.6863508049134
50.73319600213626
59.71770809491112
66.26077668421455
71.53429465171283
77.00312809948882
75.73357747768368
78.85862516212711
81.00709544518196
80.51880674448768
81.49538414587624
82.27664606698711
81.10475318532082
80.32349126420996
80.51880674448768
77.58907454032196
75.34294651712825
75.83123521782254
71.8272678721294
68.89753566796368
65.6748302433814
62.54978255893797
63.233386739909974
58.25284199282826
54.54184786755169
55.420767528801406
49.46364538033112
44.97138933394369
41.26039520866713
37.256427862973986
38.1353475242237
33.15480277714199
29.443808651865414
30.322728313115128
26.22110322728313
23.291371023117417
20.16632333867399
17.041275654230564
17.724879835202564
14.697489890897993
12.45136186770428
12.939650568398566
9.033340962844282
6.103608758678568
3.8574807354848555
1.513694972152285
2.0019836728465705
-0.8300907911802854
-3.076218814373999
-2.5879301136797133
-4.541084916456855
-6.005951018539712
-7.568474860761425
-9.130998702983138
-8.838025482566568
-9.81460288395514
-10.595864805065995
-10.400549324788281
-11.377126726176853
-12.158388647287708
-12.939650568398566
-13.720912489509422
-13.525597009231708
-14.50217441062028
-15.185778591592278
-15.088120851453422
-15.088120851453422
-15.088120851453422
-14.11154345006485
-13.330281528953995
-13.525597009231708
-12.549019607843137
-11.767757686732281
-11.963073167009995
-9.033340962844282
-6.787212939650568
-2.5879301136797133
1.2207217517357138
0.34180209048599985
5.322346837567712
8.935683222705425
8.154421301594567
13.13496604867628
16.748302433813993
20.752269779507134
24.560921644922562
23.682001983672848
27.68596932936599
30.615701533531702
30.029755092698558
32.08056763561456
33.44777599755856
34.131380178530556
34.91264209964141
34.717326619363696
35.69390402075227
36.37750820172427
36.27985046158541
35.303273060196844
34.52201113908598
33.74074921797513
32.95948729686427
33.15480277714199
31.201647974364842
29.63912413214313
30.029755092698558
27.100022888532845
24.853894865339132
21.533531700617992
18.40848401617456
19.092088197146563
16.064698252841993
13.81857022964828
14.306858930342566
10.400549324788281
7.470817120622568
5.224689097428855
2.8809033340962844
3.36919203479057
0.43945983062485694
-1.7090104524299992
-1.2207217517357138
-5.127031357289998
-8.05676356145571
-11.181811245899137
-14.306858930342566
-13.623254749370565
-17.627222095063708
-20.55695429922942
-19.87335011825742
-22.90074006256199
-25.049210345616846
-28.369573510337986
-31.494621194781413
-30.811017013809415
-32.86182955672541
-34.22903791866941
-33.93606469825284
-36.86579690241855
-39.014267185473415
-40.479133287556266
-42.04165712977798
-41.651026169222554
-43.604180971999696
-45.069047074082555
-44.77607385366598
-46.72922865644312
-48.19409475852598
-49.75661860074769
-51.31914244296941
-50.928511482413974
-53.85824368657969
-56.006713969634546
-55.51842526894026
-57.56923781185626
-58.936446173800256
-62.45212481879911
-65.47951476310368
-64.79591058213168
-71.63195239185168
-76.71015487907225
-75.53826199740597
-80.61646448462653
-84.22980086976425
-83.35088120851454
-83.54619668879225
-83.4485389486534
-79.63988708323797
-76.61249713893339
-77.29610131990539
-69.48348210879682
-63.526359960326545
-54.346532387273975
-45.85030899519341
-47.705806057831694
-36.768139162279695
-28.66254673075456
-30.420386053253985
-22.412451361867703
-16.55298695353628
-14.013885709925994
-10.79118028534371
-11.47478446631571
-8.44739452201114
-6.298924238956283
-6.787212939650568
-4.736400396734569
-3.2715342946517127
-2.68558785381857
-1.8066681925688564
-2.0019836728465705
-2.0019836728465705
-2.0019836728465705
-2.0019836728465705
-2.0019836728465705
-2.0019836728465705
-2.8809033340962844
-3.662165255207141
-3.466849774929427
-4.443427176317998
-5.224689097428855
-5.0293736171511405
-6.982528419928283
-8.44739452201114
-10.009918364232853
-11.572442206454566
-11.279468986037996
-13.232623788815136
-14.697489890897993
-14.404516670481422
-17.334248874647134
-19.48271915770199
-21.92416266117342
-24.17029068436713
-23.682001983672848
-25.732814526588847
-27.100022888532845
-26.807049668116274
-28.760204470893417
-30.22507057297627
-30.908674753948272
-31.68993667505913
-31.494621194781413
-32.471198596169984
-33.15480277714199
-33.05714503700313
-34.0337224383917
-34.717326619363696
-34.52201113908598
-34.61966887922484
-34.52201113908598
-34.52201113908598
-34.52201113908598
-34.52201113908598
-34.52201113908598
-34.52201113908598
-34.52201113908598
-34.52201113908598
-34.424353398947126
-34.424353398947126
-34.424353398947126
-34.424353398947126
-33.44777599755856
-32.764171816586554
-32.86182955672541
-32.86182955672541
-32.86182955672541
-31.885252155336843
-31.103990234225986
-31.2993057145037
-30.22507057297627
-29.541466392004274
-27.783627069504846
-26.22110322728313
-26.514076447699704
-23.58434424353399
-21.43587396047913
-21.826504921034562
-16.943617914091707
-13.330281528953995
-9.326314183260854
-5.420004577706569
-6.298924238956283
-1.3183794918745708
2.197299153124285
1.416037232013428
5.420004577706569
8.349736781872283
11.47478446631571
14.599832150759136
13.916227969787137
16.943617914091707
19.092088197146563
18.60379949645228
20.654612039368278
22.119478141451133
22.705424582284277
23.58434424353399
23.389028763256274
23.389028763256274
23.389028763256274
23.389028763256274
22.412451361867703
21.63118944075685
19.87335011825742
18.40848401617456
18.701457236591136
16.748302433813993
15.283436331731137
15.576409552147707
13.525597009231708
12.060730907148852
9.521629663538567
7.275501640344854
7.763790341039139
5.71297779812314
4.248111696040284
4.638742656595713
2.5879301136797133
1.1230640115968566
-0.34180209048599985
-1.9043259327077133
-1.513694972152285
-2.5879301136797133
-3.2715342946517127
-3.1738765545128556
-4.150453955901427
-4.834058136873426
-5.615320057984283
-6.39658197909514
-6.298924238956283
-7.275501640344854
-7.959105821316854
-7.861448081177996
-8.838025482566568
-9.521629663538567
-11.279468986037996
-12.84199282825971
-12.45136186770428
-14.404516670481422
-15.869382772564279
-15.576409552147707
-17.52956435492485
-18.994430457007706
-20.55695429922942
-22.119478141451133
-21.826504921034562
-24.756237125200276
-26.90470740825513
-26.416418707560844
-29.346150911726557
-31.592278934920273
-32.95948729686427
-34.61966887922484
-34.22903791866941
-35.20561532005799
-35.98687724116884
-35.79156176089113
-34.81498435950255
-34.0337224383917
-31.396963454642556
-29.053177691309987
-29.63912413214313
-24.65857938506142
-21.045242999923705
-21.826504921034562
-16.84596017395285
-13.13496604867628
-8.252079041733426
-3.662165255207141
-4.638742656595713
1.2207217517357138
5.615320057984283
4.638742656595713
10.595864805065995
14.990463111314565
18.799114976729992
22.705424582284277
21.826504921034562
24.853894865339132
27.002365148393988
26.514076447699704
29.541466392004274
31.68993667505913
37.94003204394598
43.21355001144427
42.04165712977798
49.85427634088655
55.713740749217976
54.44419012741283
63.33104448004883
69.87411306935225
75.04997329671168
80.61646448462653
79.3469138628214
84.3274586099031
87.94079499504082
87.15953307392996
86.37827115281911
85.49935149156939
81.88601510643167
78.85862516212711
79.44457160296025
74.5616845960174
70.85069047074083
71.63195239185168
66.65140764476998
62.9404135194934
59.91302357518883
56.7879758907454
57.471580071717405
53.467612726024264
50.44022278171969
51.123826962691695
47.11985961699855
44.19012741283284
40.96742198825055
37.84237430380713
38.525978484779124
35.49858854047456
33.3501182574197
33.838406958113985
30.811017013809415
28.564888990615703
26.22110322728313
23.87731746395056
24.365606164644845
20.45929655909056
17.52956435492485
18.11551079575799
15.088120851453422
12.939650568398566
11.47478446631571
9.912260624093996
10.302891584649425
8.252079041733426
6.787212939650568
7.080186160067139
7.080186160067139
7.080186160067139
7.080186160067139
7.080186160067139
7.080186160067139
7.959105821316854
8.74036774242771
8.545052262149996
9.521629663538567
10.302891584649425
12.060730907148852
13.525597009231708
13.232623788815136
15.185778591592278
16.650644693675137
16.357671473258563
20.16632333867399
23.19371328297856
26.318760967421987
29.443808651865414
28.760204470893417
33.64309147783627
37.256427862973986
36.475165941863125
40.479133287556266
43.40886549172198
45.55733577477684
47.90112153810941
47.412832837415124
51.31914244296941
54.24887464713512
53.56527046616312
56.59266041046769
58.74113069352254
61.08491645685512
63.42870222018769
62.84275577935454
64.89356832227054
66.3584344243534
65.96780346379796
66.94438086518655
67.7256427862974
66.55374990463112
65.8701457236591
65.96780346379796
64.01464866102083
62.45212481879911
62.84275577935454
57.95986877241169
54.24887464713512
49.26832990005341
44.67841611352712
45.654993514915695
38.72129396505684
33.545433737697415
34.717326619363696
27.783627069504846
22.60776684214542
18.017853055619135
13.330281528953995
14.306858930342566
8.349736781872283
3.9551384756237127
4.931715877012284
0.9277485313191425
-1.9043259327077133
-5.0293736171511405
-8.154421301594567
-7.470817120622568
-10.498207064927138
-12.74433508812085
-12.256046387426567
-15.185778591592278
-17.334248874647134
-18.799114976729992
-20.361638818951704
-19.971007858396277
-21.045242999923705
-21.728847180895706
-21.63118944075685
-23.48668650339513
-25.049210345616846
-25.63515678644999
-26.416418707560844
-26.22110322728313
-26.318760967421987
-26.22110322728313
-26.22110322728313
-25.24452582589456
-24.560921644922562
-22.803082322423133
-21.24055848020142
-21.63118944075685
-20.55695429922942
-19.775692378118563
-19.971007858396277
-18.017853055619135
-16.55298695353628
-14.990463111314565
-13.427939269092851
-13.720912489509422
-11.767757686732281
-10.302891584649425
-10.595864805065995
-7.666132600900283
-5.420004577706569
-0.24414435034714274
4.248111696040284
3.2715342946517127
10.205233844510566
15.283436331731137
14.11154345006485
22.998397802700847
29.63912413214313
36.768139162279695
43.70183871213855
42.13931486991684
51.123826962691695
57.66689555199512
56.20202944991226
62.2568093385214
66.55374990463112
69.38582436865796
72.60852979324025
71.8272678721294
73.87808041504539
75.34294651712825
74.95231555657283
73.09681849393453
71.63195239185168
68.11627374685283
64.9912260624094
65.6748302433814
60.694285496299685
56.983291371023114
57.86221103227283
50.928511482413974
45.75265125505455
38.33066300450141
31.396963454642556
32.86182955672541
20.16632333867399
10.498207064927138
12.646677347981994
0.7324330510414282
-7.959105821316854
-14.599832150759136
-21.728847180895706
-20.16632333867399
-25.24452582589456
-28.857862211032273
-28.076600289921416
-30.127412832837415
-31.592278934920273
-30.322728313115128
-29.63912413214313
-29.736781872281988
-29.736781872281988
-29.736781872281988
-29.736781872281988
-32.56885633630884
-34.81498435950255
-39.99084458686198
-44.580758373388264
-43.50652323186084
-48.48706797894255
-52.10040436408026
-51.31914244296941
-55.32310978866255
-58.25284199282826
-59.42473487449455
-61.08491645685512
-60.694285496299685
-62.64744029907683
-64.11230640115969
-63.72167544060426
-65.6748302433814
-67.13969634546426
-67.7256427862974
-68.60456244754711
-68.4092469672694
-69.28816662851911
-70.06942854962998
-69.87411306935225
-69.87411306935225
-69.87411306935225
-69.87411306935225
-69.77645532921339
-69.77645532921339
-68.79987792782482
-68.01861600671397
-68.21393148699168
-63.33104448004883
-59.62005035477226
-52.78400854505226
-46.63157091630426
-47.998779278248264
-36.182192721446555
-27.392996108949415
-29.346150911726557
-15.47875181200885
-5.224689097428855
6.6895551995117115
18.40848401617456
15.771725032425422
27.783627069504846
36.57282368200198
34.61966887922484
43.604180971999696
50.24490730144198
52.49103532463569
55.81139848935683
55.03013656824598
56.20202944991226
56.88563363088426
56.690318150606544
55.713740749217976
54.932478828107115
52.295719844357976
49.951934081025406
50.44022278171969
44.580758373388264
40.186160067139696
41.16273746852827
35.20561532005799
30.811017013809415
25.049210345616846
19.58037689784085
20.84992751964599
13.81857022964828
8.74036774242771
9.81460288395514
3.8574807354848555
-0.43945983062485694
-4.248111696040284
-8.154421301594567
-7.275501640344854
-11.279468986037996
-14.209201190203707
-13.525597009231708
-16.55298695353628
-18.701457236591136
-21.14290074006256
-23.48668650339513
-22.90074006256199
-25.92813000686656
-28.076600289921416
-27.588311589227132
-29.63912413214313
-31.00633249408713
-32.6665140764477
-34.131380178530556
-33.838406958113985
-35.79156176089113
-37.256427862973986
-36.86579690241855
-37.94003204394598
-38.62363622491798
-39.40489814602884
-40.186160067139696
-39.99084458686198
-40.96742198825055
-41.74868390936141
-41.5533684290837
-41.5533684290837
-41.5533684290837
-40.57679102769512
-39.79552910658427
-39.99084458686198
-39.893186846723125
-39.893186846723125
-39.893186846723125
-40.86976424811169
-41.5533684290837
-42.33463035019455
-43.11589227130541
-42.92057679102769
-44.873731593804834
-46.33859769588769
-45.947966735332265
-47.0222018768597
-47.705806057831694
-47.51049057755398
-47.51049057755398
-47.51049057755398
-45.55733577477684
-44.09246967269398
-44.38544289311055
-40.479133287556266
-37.549401083390556
-32.471198596169984
-27.881284809643702
-28.857862211032273
-20.947585259784848
-15.088120851453422
-16.357671473258563
-7.470817120622568
-0.9277485313191425
5.224689097428855
11.47478446631571
10.009918364232853
18.994430457007706
25.537499046311133
24.072632944228275
30.127412832837415
34.52201113908598
37.35408560311284
40.479133287556266
39.79552910658427
40.86976424811169
41.5533684290837
41.45571068894484
39.5025558861677
38.03768978408484
34.52201113908598
31.494621194781413
32.178225375753414
26.22110322728313
21.826504921034562
22.803082322423133
17.82253757534142
14.11154345006485
10.205233844510566
6.298924238956283
7.080186160067139
2.197299153124285
-1.416037232013428
-0.6347753109025711
-3.662165255207141
-5.810635538261997
-7.275501640344854
-8.838025482566568
-8.44739452201114
-10.498207064927138
-11.963073167009995
-11.572442206454566
-13.623254749370565
-15.088120851453422
-17.627222095063708
-19.87335011825742
-19.385061417563133
-24.267948424505988
-27.881284809643702
-27.100022888532845
-31.103990234225986
-34.0337224383917
-34.32669565880827
-35.20561532005799
-35.010299839780274
-34.0337224383917
-33.252460517280845
-33.44777599755856
-29.541466392004274
-26.61173418783856
-21.533531700617992
-16.943617914091707
-17.920195315480278
-12.939650568398566
-9.228656443121995
-10.10757610437171
-8.935683222705425
-8.252079041733426
-9.326314183260854
-10.009918364232853
-9.912260624093996
-11.767757686732281
-13.330281528953995
-12.939650568398566
-14.013885709925994
-14.697489890897993
-13.623254749370565
-12.84199282825971
-13.037308308537423
-11.08415350576028
-9.619287403677424
-9.912260624093996
-6.982528419928283
-4.736400396734569
-0.43945983062485694
3.2715342946517127
2.392614633401999
9.228656443121995
14.404516670481422
13.232623788815136
20.16632333867399
25.342183566033416
31.787594415197987
38.03768978408484
36.57282368200198
44.580758373388264
50.44022278171969
49.073014419775696
56.006713969634546
61.182574196993976
65.77248798352025
70.4600595101854
69.38582436865796
72.41321431296254
74.5616845960174
74.07339589532312
74.17105363546197
74.07339589532312
73.09681849393453
72.41321431296254
72.5108720531014
69.58113984893568
67.33501182574197
67.82330052643626
63.91699092088197
60.8896009765774
56.7879758907454
52.881666285191116
53.760585946440834
48.78004119935912
45.069047074082555
45.85030899519341
40.86976424811169
37.256427862973986
32.27588311589227
27.68596932936599
28.66254673075456
23.682001983672848
19.971007858396277
20.752269779507134
14.892805371175708
10.498207064927138
6.6895551995117115
2.68558785381857
3.5645075150682843
-2.197299153124285
-6.6895551995117115
-5.615320057984283
-10.693522545204852
-14.306858930342566
-18.310826276035705
-22.119478141451133
-21.24055848020142
-26.22110322728313
-29.9320973525597
-29.053177691309987
-33.05714503700313
-35.98687724116884
-38.23300526436255
-40.57679102769512
-39.99084458686198
-42.04165712977798
-43.50652323186084
-43.11589227130541
-44.19012741283284
-44.873731593804834
-44.67841611352712
-44.67841611352712
-44.67841611352712
-44.67841611352712
-44.67841611352712
-44.67841611352712
-43.70183871213855
-42.92057679102769
-40.186160067139696
-37.94003204394598
-38.42832074464027
-33.545433737697415
-29.834439612420844
-30.615701533531702
-20.84992751964599
-13.525597009231708
-2.68558785381857
7.177843900205997
4.931715877012284
20.752269779507134
32.471198596169984
29.834439612420844
45.75265125505455
57.471580071717405
69.19050888838025
80.81177996490425
78.17502098115511
89.30800335698481
97.3159380483711
95.46044098573282
101.51522087434195
105.90981918059052
107.76531624322881
110.20675974670024
109.62081330586709
107.76531624322881
106.2027924010071
106.49576562142367
103.56603341725796
101.31990539406424
96.04638742656596
91.45647364003968
92.43305104142824
85.49935149156939
80.32349126420996
81.39772640573739
73.48744945448996
67.62798504615854
62.2568093385214
56.690318150606544
57.86221103227283
50.928511482413974
45.75265125505455
46.92454413672083
39.99084458686198
34.81498435950255
30.22507057297627
25.537499046311133
26.514076447699704
20.55695429922942
16.16235599298085
17.13893339436942
11.181811245899137
6.787212939650568
2.0019836728465705
-2.5879301136797133
-1.513694972152285
-8.44739452201114
-13.623254749370565
-12.45136186770428
-17.43190661478599
-21.14290074006256
-25.049210345616846
-28.95551995117113
-28.076600289921416
-32.08056763561456
-35.010299839780274
-34.32669565880827
-36.37750820172427
-37.84237430380713
-38.42832074464027
-39.20958266575113
-39.014267185473415
-39.99084458686198
-40.772106507972836
-40.57679102769512
-39.600213626306555
-38.91660944533455
-40.96742198825055
-42.33463035019455
-42.04165712977798
-46.92454413672083
-50.53788052185855
-49.75661860074769
-54.639505607690545
-58.350499732967116
-58.44815747310597
-59.32707713435569
-59.13176165407798
-56.29968719005112
-54.053559166857404
-54.54184786755169
-48.68238345922026
-44.19012741283284
-34.717326619363696
-26.318760967421987
-28.174258030060273
-18.11551079575799
-10.79118028534371
-12.45136186770428
-4.443427176317998
1.3183794918745708
3.8574807354848555
7.080186160067139
6.39658197909514
9.42397192339971
11.572442206454566
11.08415350576028
13.13496604867628
14.599832150759136
16.16235599298085
17.724879835202564
17.334248874647134
17.43190661478599
17.43190661478599
17.43190661478599
16.45532921339742
15.674067292286564
14.892805371175708
14.11154345006485
14.306858930342566
11.377126726176853
9.130998702983138
9.619287403677424
6.6895551995117115
4.443427176317998
1.1230640115968566
-1.9043259327077133
-1.2207217517357138
-5.127031357289998
-8.05676356145571
-7.470817120622568
-11.377126726176853
-14.306858930342566
-18.40848401617456
-22.314793621728846
-21.43587396047913
-25.439841306172273
-28.369573510337986
-27.68596932936599
-32.56885633630884
-36.27985046158541
-40.186160067139696
-44.09246967269398
-43.21355001144427
-47.21751735713741
-50.14724956130312
-49.46364538033112
-53.36995498588541
-56.29968719005112
-58.54581521324483
-60.8896009765774
-60.30365453574426
-62.35446707866026
-63.819333180743115
-63.42870222018769
-65.38185702296482
-66.84672312504769
-68.4092469672694
-69.9717708094911
-69.58113984893568
-69.67879758907453
-69.58113984893568
-69.58113984893568
-69.58113984893568
-69.48348210879682
-69.48348210879682
-69.48348210879682
-69.48348210879682
-68.50690470740825
-67.7256427862974
-67.82330052643626
-67.82330052643626
-67.82330052643626
-66.84672312504769
-66.06546120393683
-66.16311894407569
-66.16311894407569
-66.16311894407569
-66.06546120393683
-65.08888380254825
-64.40527962157626
-61.67086289768826
-59.32707713435569
-59.815365835049974
-55.90905622949569
-52.97932402532997
-53.56527046616312
-49.56130312046998
-46.63157091630426
-42.529945830472265
-38.62363622491798
-39.5025558861677
-34.52201113908598
-30.811017013809415
-31.592278934920273
-27.588311589227132
-24.65857938506142
-21.533531700617992
-18.40848401617456
-19.092088197146563
-15.088120851453422
-12.158388647287708
-12.84199282825971
-10.693522545204852
-9.326314183260854
-7.666132600900283
-6.103608758678568
-6.494239719233997
-6.39658197909514
-6.39658197909514
-6.39658197909514
-6.39658197909514
-6.39658197909514
-8.349736781872283
-9.81460288395514
-9.42397192339971
-12.353704127565424
-14.599832150759136
-14.11154345006485
-17.041275654230564
-19.287403677424276
-21.63118944075685
-23.974975204089418
-23.48668650339513
-25.439841306172273
-26.90470740825513
-26.61173418783856
-28.564888990615703
-30.029755092698558
-29.63912413214313
-29.736781872281988
-29.736781872281988
-30.71335927367056
-31.396963454642556
-31.201647974364842
-31.201647974364842
-31.201647974364842
-31.201647974364842
-31.201647974364842
-31.201647974364842
-31.201647974364842
-31.201647974364842
-31.201647974364842
-30.22507057297627
-29.443808651865414
-29.63912413214313
-29.541466392004274
-29.541466392004274
-28.564888990615703
-27.881284809643702
-27.97894254978256
-27.002365148393988
-26.22110322728313
-26.416418707560844
-26.416418707560844
-26.416418707560844
-25.439841306172273
-24.65857938506142
-24.853894865339132
-23.779659723811704
-23.096055542839704
-23.19371328297856
-23.19371328297856
-23.19371328297856
-21.24055848020142
-19.775692378118563
-20.068665598535134
-18.11551079575799
-16.650644693675137
-13.13496604867628
-10.10757610437171
-10.79118028534371
-4.931715877012284
-0.43945983062485694
-1.416037232013428
7.275501640344854
13.916227969787137
20.068665598535134
26.318760967421987
24.95155260547799
31.885252155336843
37.06111238269627
35.889219501029984
42.822919050888835
47.90112153810941
53.467612726024264
58.936446173800256
57.66689555199512
64.60059510185397
69.67879758907453
68.50690470740825
74.46402685587854
78.85862516212711
82.66727702754254
86.57358663309682
85.6946669718471
86.76890211337454
87.45250629434653
87.25719081406882
84.42511635004196
82.17898832684826
74.95231555657283
68.89753566796368
70.26474402990769
62.2568093385214
56.39734493018997
57.66689555199512
48.78004119935912
42.13931486991684
36.86579690241855
31.396963454642556
32.56885633630884
26.61173418783856
22.21713588158999
23.19371328297856
18.11551079575799
14.50217441062028
10.498207064927138
6.591897459372854
7.470817120622568
4.443427176317998
2.197299153124285
2.68558785381857
0.7324330510414282
-0.6347753109025711
-3.1738765545128556
-5.517662317845426
-5.0293736171511405
-6.982528419928283
-8.44739452201114
-8.154421301594567
-10.10757610437171
-11.572442206454566
-13.13496604867628
-14.697489890897993
-14.404516670481422
-16.357671473258563
-17.82253757534142
-17.43190661478599
-19.48271915770199
-20.947585259784848
-21.533531700617992
-22.314793621728846
-22.119478141451133
-22.21713588158999
-22.21713588158999
-22.21713588158999
-22.119478141451133
-22.119478141451133
-22.119478141451133
-22.119478141451133
-22.119478141451133
-20.263981078812847
-18.701457236591136
-19.092088197146563
-16.064698252841993
-13.916227969787137
-8.642710002288853
-4.052796215762569
-5.127031357289998
2.68558785381857
8.545052262149996
7.275501640344854
18.994430457007706
27.783627069504846
38.23300526436255
48.38941023880369
46.04562447547112
59.91302357518883
70.16708628976883
67.92095826657511
80.81177996490425
90.2845807583734
96.72999160753795
103.85900663767453
102.29648279545282
108.35126268406195
112.64820325017166
111.6716258487831
114.69901579308767
116.84748607614252
116.26153963530938
116.35919737544823
116.35919737544823
114.4060425726711
112.84351873044938
113.13649195086595
111.08567940794995
109.62081330586709
107.08171206225681
104.73792629892424
105.22621499961852
101.22224765392538
98.29251544975968
98.87846189059282
94.87449454489968
91.94476234073396
88.72205691615167
85.59700923170824
86.28061341268025
80.32349126420996
75.9288929579614
76.8078126192111
71.8272678721294
68.11627374685283
62.2568093385214
56.88563363088426
58.057526512550545
52.002746623941405
47.60814831769284
48.584725719081405
42.62760357061112
38.23300526436255
34.424353398947126
30.420386053253985
31.2993057145037
25.342183566033416
20.947585259784848
21.92416266117342
15.967040512703136
11.572442206454566
7.763790341039139
3.8574807354848555
4.736400396734569
-1.1230640115968566
-5.517662317845426
-4.541084916456855
-9.521629663538567
-13.232623788815136
-16.16235599298085
-19.385061417563133
-18.60379949645228
-21.63118944075685
-23.87731746395056
-23.389028763256274
-26.318760967421987
-28.467231250476843
-28.95551995117113
-29.834439612420844
-29.63912413214313
-29.63912413214313
-29.63912413214313
-29.63912413214313
-28.66254673075456
-27.881284809643702
-27.100022888532845
-26.318760967421987
-26.514076447699704
-24.560921644922562
-22.998397802700847
-23.389028763256274
-21.338216220340275
-19.87335011825742
-18.310826276035705
-16.748302433813993
-17.041275654230564
-15.088120851453422
-13.623254749370565
-13.916227969787137
-10.986495765621424
-8.74036774242771
-4.541084916456855
-0.6347753109025711
-1.513694972152285
3.36919203479057
6.982528419928283
6.201266498817426
12.060730907148852
16.55298695353628
21.24055848020142
25.92813000686656
24.853894865339132
28.95551995117113
31.787594415197987
31.201647974364842
33.252460517280845
34.61966887922484
31.494621194781413
29.2484931715877
29.736781872281988
22.998397802700847
17.82253757534142
18.89677271686885
11.963073167009995
6.884870679789426
5.127031357289998
2.5879301136797133
3.1738765545128556
2.0996414129854277
1.416037232013428
1.513694972152285
2.490272373540856
3.1738765545128556
6.884870679789426
9.912260624093996
9.228656443121995
12.256046387426567
14.404516670481422
13.916227969787137
13.037308308537423
12.256046387426567
8.642710002288853
5.615320057984283
6.298924238956283
2.2949568932631417
-0.537117570763714
0.04882887006942855
-3.8574807354848555
-6.787212939650568
-10.888838025482567
-14.697489890897993
-13.916227969787137
-18.799114976729992
-22.510109102006563
-21.728847180895706
-26.61173418783856
-30.322728313115128
-34.22903791866941
-38.1353475242237
-37.256427862973986
-40.28381780727855
-42.43228809033341
-41.943999389639124
-44.97138933394369
-47.11985961699855
-48.48706797894255
-50.04959182116426
-49.75661860074769
-50.73319600213626
-51.416800183108265
-51.31914244296941
-52.295719844357976
-52.97932402532997
-51.80743114366369
-51.123826962691695
-51.22148470283055
-50.24490730144198
-49.46364538033112
-49.658960860608836
-48.68238345922026
-47.90112153810941
-45.16670481422141
-42.92057679102769
-43.40886549172198
-40.38147554741741
-38.1353475242237
-38.62363622491798
-34.717326619363696
-31.787594415197987
-29.541466392004274
-27.1976806286717
-27.68596932936599
-24.65857938506142
-22.510109102006563
-22.998397802700847
-19.971007858396277
-17.724879835202564
-16.357671473258563
-14.697489890897993
-15.088120851453422
-14.013885709925994
-13.330281528953995
-13.525597009231708
-13.427939269092851
-13.427939269092851
-14.404516670481422
-15.088120851453422
-14.990463111314565
-16.943617914091707
-18.40848401617456
-18.017853055619135
-19.971007858396277
-21.43587396047913
-23.974975204089418
-26.318760967421987
-25.830472266727703
-27.783627069504846
-29.2484931715877
-28.95551995117113
-31.885252155336843
-34.0337224383917
-35.49858854047456
-37.06111238269627
-36.67048142214084
-38.62363622491798
-40.08850232700084
-39.79552910658427
-41.74868390936141
-43.21355001144427
-44.77607385366598
-46.33859769588769
-45.947966735332265
-46.92454413672083
-47.705806057831694
-47.51049057755398
-47.51049057755398
-47.51049057755398
-47.51049057755398
-47.51049057755398
-47.412832837415124
-47.412832837415124
-47.412832837415124
-47.412832837415124
-47.412832837415124
-47.412832837415124
-47.31517509727627
-47.31517509727627
-47.31517509727627
-47.31517509727627
-47.31517509727627
-47.31517509727627
-47.31517509727627
-47.21751735713741
-47.21751735713741
-47.21751735713741
-47.21751735713741
-47.21751735713741
-47.21751735713741
-47.11985961699855
-48.09643701838712
-48.877698939497975
-48.68238345922026
-48.68238345922026
-48.68238345922026
-48.68238345922026
-48.584725719081405
-48.584725719081405
-46.72922865644312
-45.16670481422141
-41.651026169222554
-38.62363622491798
-39.307240405889985
-34.32669565880827
-30.615701533531702
-31.494621194781413
-25.537499046311133
-21.14290074006256
-17.334248874647134
-13.427939269092851
-14.306858930342566
-9.326314183260854
-5.615320057984283
-6.39658197909514
-2.392614633401999
0.43945983062485694
2.5879301136797133
5.0293736171511405
4.443427176317998
6.494239719233997
7.959105821316854
7.666132600900283
8.642710002288853
9.326314183260854
9.228656443121995
9.228656443121995
9.228656443121995
9.228656443121995
9.228656443121995
9.228656443121995
8.252079041733426
7.470817120622568
5.810635538261997
4.248111696040284
4.541084916456855
2.5879301136797133
1.1230640115968566
1.416037232013428
-0.43945983062485694
-1.9043259327077133
-4.443427176317998
-6.6895551995117115
-6.201266498817426
-9.228656443121995
-11.377126726176853
-10.888838025482567
-13.916227969787137
-16.064698252841993
-20.361638818951704
-24.17029068436713
-23.291371023117417
-29.2484931715877
-33.64309147783627
-32.6665140764477
-38.525978484779124
-42.92057679102769
-43.89715419241627
-45.55733577477684
-45.16670481422141
-43.311207751583126
-41.84634164950027
-42.13931486991684
-36.27985046158541
-31.885252155336843
-25.24452582589456
-19.092088197146563
-20.361638818951704
-13.427939269092851
-8.252079041733426
-9.42397192339971
-6.298924238956283
-4.150453955901427
-5.517662317845426
-6.201266498817426
-6.005951018539712
-8.935683222705425
-11.181811245899137
-10.693522545204852
-12.646677347981994
-14.11154345006485
-15.674067292286564
-17.236591134508277
-16.943617914091707
-16.943617914091707
-16.943617914091707
-16.943617914091707
-15.088120851453422
-13.525597009231708
-9.130998702983138
-5.322346837567712
-6.201266498817426
-0.24414435034714274
4.052796215762569
3.076218814373999
10.986495765621424
16.84596017395285
22.21713588158999
27.68596932936599
26.416418707560844
31.494621194781413
35.10795757991913
34.32669565880827
39.20958266575113
42.92057679102769
44.97138933394369
47.31517509727627
46.826886396581976
49.75661860074769
51.90508888380255
51.416800183108265
54.44419012741283
56.59266041046769
59.91302357518883
62.9404135194934
62.2568093385214
64.3076218814374
65.77248798352025
65.38185702296482
67.33501182574197
68.79987792782482
69.38582436865796
70.16708628976883
69.9717708094911
69.9717708094911
69.9717708094911
69.9717708094911
68.99519340810254
68.21393148699168
66.45609216449226
64.89356832227054
65.18654154268711
62.2568093385214
60.01068131532769
60.49897001602197
56.59266041046769
53.56527046616312
49.46364538033112
45.55733577477684
46.43625543602655
42.43228809033341
39.5025558861677
40.08850232700084
35.20561532005799
31.494621194781413
27.49065384908827
23.58434424353399
24.4632639047837
19.48271915770199
15.771725032425422
16.650644693675137
11.670099946593423
7.959105821316854
4.052796215762569
0.14648661020828566
1.0254062714579995
-2.8809033340962844
-5.810635538261997
-5.224689097428855
-10.10757610437171
-13.81857022964828
-15.869382772564279
-18.21316853589685
-17.724879835202564
-21.63118944075685
-24.560921644922562
-23.87731746395056
-27.881284809643702
-30.811017013809415
-33.93606469825284
-37.06111238269627
-36.37750820172427
-38.42832074464027
-39.79552910658427
-39.5025558861677
-40.479133287556266
-41.26039520866713
-39.11192492561227
-37.64705882352941
-37.94003204394598
-32.178225375753414
-27.68596932936599
-28.66254673075456
-18.89677271686885
-11.572442206454566
0.04882887006942855
10.888838025482567
8.44739452201114
24.267948424505988
35.98687724116884
33.3501182574197
48.291752498664835
59.22941939421683
70.16708628976883
81.10475318532082
78.6633096818494
88.72205691615167
95.9487296864271
94.28854810406654
99.46440833142596
103.07774471656367
103.17540245670253
104.05432211795224
103.76134889753567
101.90585183489738
100.34332799267567
100.63630121309224
95.75341420614939
92.04242008087282
86.1829556725414
80.81177996490425
81.98367284657053
73.09681849393453
66.45609216449226
67.82330052643626
58.936446173800256
52.295719844357976
45.16670481422141
38.1353475242237
39.69787136644541
31.68993667505913
25.830472266727703
27.100022888532845
20.16632333867399
14.990463111314565
11.377126726176853
7.373159380483711
8.252079041733426
5.224689097428855
2.9785610742351416
3.466849774929427
0.537117570763714
-1.6113527122911422
-2.0996414129854277
-2.8809033340962844
-2.68558785381857
-4.638742656595713
-6.103608758678568
-5.810635538261997
-5.908293278400855
-5.908293278400855
-6.787212939650568
-7.568474860761425
-7.373159380483711
-8.349736781872283
-9.130998702983138
-8.935683222705425
-8.935683222705425
-8.935683222705425
-11.865415426871138
-14.013885709925994
-13.525597009231708
-19.385061417563133
-23.779659723811704
-22.803082322423133
-28.760204470893417
-33.15480277714199
-34.131380178530556
-35.79156176089113
-35.4009308003357
-34.52201113908598
-33.74074921797513
-33.93606469825284
-30.029755092698558
-27.100022888532845
-22.021820401312276
-17.334248874647134
-18.40848401617456
-11.47478446631571
-6.298924238956283
-7.470817120622568
-2.392614633401999
1.1230640115968566
3.1738765545128556
5.615320057984283
5.0293736171511405
10.888838025482567
15.283436331731137
14.306858930342566
21.24055848020142
26.416418707560844
32.86182955672541
39.014267185473415
37.64705882352941
45.55733577477684
51.416800183108265
50.14724956130312
56.1043717097734
60.49897001602197
62.35446707866026
64.79591058213168
64.20996414129854
63.33104448004883
62.54978255893797
62.745098039215684
58.8387884336614
55.90905622949569
49.85427634088655
44.48310063324941
45.654993514915695
37.74471656366827
31.885252155336843
33.15480277714199
23.291371023117417
15.967040512703136
8.935683222705425
1.9043259327077133
3.466849774929427
-5.322346837567712
-11.963073167009995
-10.498207064927138
-17.52956435492485
-22.60776684214542
-27.1976806286717
-31.885252155336843
-30.811017013809415
-36.768139162279695
-41.16273746852827
-40.186160067139696
-44.19012741283284
-47.11985961699855
-50.24490730144198
-53.36995498588541
-52.6863508049134
-55.713740749217976
-57.86221103227283
-57.37392233157855
-60.30365453574426
-62.45212481879911
-64.79591058213168
-67.13969634546426
-66.65140764476998
-68.60456244754711
-70.06942854962998
-69.67879758907453
-70.75303273060197
-71.43663691157397
-71.24132143129626
-71.24132143129626
-71.24132143129626
-72.12024109254597
-72.90150301365682
-72.70618753337911
-72.70618753337911
-72.70618753337911
-72.60852979324025
-72.60852979324025
-72.60852979324025
-72.60852979324025
-72.5108720531014
-72.5108720531014
-71.53429465171283
-70.75303273060197
-68.11627374685283
-65.77248798352025
-66.26077668421455
-60.401312275883114
-55.90905622949569
-56.88563363088426
-47.11985961699855
-39.79552910658427
-27.97894254978256
-17.236591134508277
-19.58037689784085
-3.8574807354848555
7.861448081177996
5.224689097428855
20.16632333867399
31.103990234225986
40.186160067139696
49.56130312046998
47.51049057755398
55.51842526894026
61.37788967727169
60.108339055466544
64.11230640115969
67.0420386053254
66.3584344243534
66.45609216449226
66.45609216449226
63.526359960326545
61.28023193713283
61.768520637827116
57.86221103227283
54.83482108796826
49.75661860074769
45.16670481422141
46.14328221560998
40.186160067139696
35.79156176089113
36.768139162279695
29.834439612420844
24.65857938506142
19.092088197146563
13.720912489509422
14.892805371175708
6.982528419928283
1.1230640115968566
2.392614633401999
-4.443427176317998
-9.619287403677424
-14.209201190203707
-18.89677271686885
-17.82253757534142
-22.803082322423133
-26.514076447699704
-25.63515678644999
-29.63912413214313
-32.56885633630884
-34.81498435950255
-37.15877012283513
-36.57282368200198
-38.62363622491798
-40.08850232700084
-39.69787136644541
-42.62760357061112
-44.873731593804834
-47.21751735713741
-49.56130312046998
-48.97535667963683
-51.02616922255284
-52.49103532463569
-52.10040436408026
-55.03013656824598
-57.27626459143969
-58.643472953383686
-60.2059967956054
-59.815365835049974
-61.768520637827116
-63.233386739909974
-62.9404135194934
-64.89356832227054
-66.3584344243534
-66.94438086518655
-67.7256427862974
-67.53032730601969
-67.53032730601969
-67.53032730601969
-67.53032730601969
-65.57717250324254
-64.01464866102083
-59.62005035477226
-55.81139848935683
-56.59266041046769
-48.78004119935912
-42.822919050888835
-44.19012741283284
-30.518043793392845
-20.16632333867399
-10.009918364232853
0.04882887006942855
-2.0996414129854277
9.71694514381628
18.506141756313422
16.55298695353628
28.467231250476843
