ppg
0.8300907911802854
1.6113527122911422
1.416037232013428
0.537117570763714
-0.14648661020828566
0.04882887006942855
-1.9043259327077133
-3.36919203479057
-4.931715877012284
-6.494239719233997
-6.201266498817426
-7.177843900205997
-7.959105821316854
-7.763790341039139
-8.74036774242771
-9.521629663538567
-9.326314183260854
-9.326314183260854
-9.326314183260854
-10.302891584649425
-10.986495765621424
-10.888838025482567
-11.865415426871138
-12.549019607843137
-13.330281528953995
-14.11154345006485
-13.916227969787137
-15.869382772564279
-17.334248874647134
-17.041275654230564
-18.994430457007706
-20.45929655909056
-21.14290074006256
-21.92416266117342
-21.728847180895706
-23.682001983672848
-25.146868085755703
-24.756237125200276
-25.830472266727703
-26.514076447699704
-28.27191577019913
-29.834439612420844
-29.443808651865414
-30.420386053253985
-31.201647974364842
-31.00633249408713
-31.9829098954757
-32.6665140764477
-33.44777599755856
-34.22903791866941
-34.0337224383917
-35.10795757991913
-35.79156176089113
-35.596246280613414
-35.596246280613414
-35.596246280613414
-35.596246280613414
-35.596246280613414
-35.596246280613414
-33.64309147783627
-32.178225375753414
-32.471198596169984
-29.541466392004274
-27.295338368810558
-23.974975204089418
-20.84992751964599
-21.533531700617992
-14.697489890897993
-9.521629663538567
-10.693522545204852
-3.7598229953459983
1.3183794918745708
7.763790341039139
14.013885709925994
12.549019607843137
19.58037689784085
24.65857938506142
23.58434424353399
31.396963454642556
37.35408560311284
41.74868390936141
46.43625543602655
45.362020294499125
50.34256504158083
54.053559166857404
53.17463950560769
56.20202944991226
58.350499732967116
59.815365835049974
61.37788967727169
60.987258716716255
61.08491645685512
60.987258716716255
60.987258716716255
59.03410391393912
57.56923781185626
56.006713969634546
54.346532387273975
54.7371633478294
50.83085374227512
47.80346379797055
48.48706797894255
45.45967803463798
43.21355001144427
39.893186846723125
36.768139162279695
37.4517433432517
33.545433737697415
30.518043793392845
31.201647974364842
27.1976806286717
24.267948424505988
22.021820401312276
19.678034637979707
20.16632333867399
17.236591134508277
14.990463111314565
15.47875181200885
11.572442206454566
8.642710002288853
6.39658197909514
4.052796215762569
4.541084916456855
2.490272373540856
1.0254062714579995
1.416037232013428
-0.537117570763714
-2.0019836728465705
-2.5879301136797133
-3.36919203479057
-3.2715342946517127
-6.103608758678568
-8.349736781872283
-7.861448081177996
-11.767757686732281
-14.697489890897993
-18.799114976729992
-22.705424582284277
-21.826504921034562
-23.87731746395056
-25.342183566033416
-25.049210345616846
-25.049210345616846
-25.049210345616846
-22.21713588158999
-19.971007858396277
-20.45929655909056
-14.599832150759136
-10.205233844510566
-11.181811245899137
-5.224689097428855
-0.8300907911802854
2.8809033340962844
6.787212939650568
6.005951018539712
10.009918364232853
12.939650568398566
12.256046387426567
17.13893339436942
20.84992751964599
24.756237125200276
28.66254673075456
27.783627069504846
33.74074921797513
38.1353475242237
37.15877012283513
43.018234531166556
47.412832837415124
51.22148470283055
55.127794308384836
54.24887464713512
59.22941939421683
62.84275577935454
61.96383611810483
65.96780346379796
68.89753566796368
72.02258335240711
75.14763103685054
74.46402685587854
76.41718165865568
77.88204776073853
77.58907454032196
77.58907454032196
77.58907454032196
77.4914168001831
77.4914168001831
77.4914168001831
75.53826199740597
74.07339589532312
74.36636911573969
71.33897917143511
69.19050888838025
66.74906538490883
64.40527962157626
64.89356832227054
60.987258716716255
57.95986877241169
58.643472953383686
54.639505607690545
51.709773403524835
48.48706797894255
45.362020294499125
46.04562447547112
40.186160067139696
35.69390402075227
36.67048142214084
31.68993667505913
27.97894254978256
23.096055542839704
18.40848401617456
19.48271915770199
13.525597009231708
9.130998702983138
10.10757610437171
4.150453955901427
-0.24414435034714274
-4.931715877012284
-9.619287403677424
-8.545052262149996
-12.646677347981994
-15.576409552147707
-14.892805371175708
-18.799114976729992
-21.728847180895706
-22.998397802700847
-24.65857938506142
-24.267948424505988
-26.22110322728313
-27.68596932936599
-27.392996108949415
-29.346150911726557
-30.811017013809415
-31.396963454642556
-32.27588311589227
-32.08056763561456
-33.05714503700313
-33.74074921797513
-33.545433737697415
-32.6665140764477
-31.885252155336843
-30.127412832837415
-28.564888990615703
-28.95551995117113
-24.072632944228275
-20.361638818951704
-21.14290074006256
-15.283436331731137
-10.888838025482567
-4.150453955901427
1.9043259327077133
0.537117570763714
10.302891584649425
17.724879835202564
16.064698252841993
26.90470740825513
35.010299839780274
43.70183871213855
52.295719844357976
50.34256504158083
60.30365453574426
67.62798504615854
65.96780346379796
74.85465781643397
81.49538414587624
85.6946669718471
90.47989623865111
89.40566109712367
92.43305104142824
94.5815213244831
94.09323262378882
93.2143129625391
92.43305104142824
88.72205691615167
85.6946669718471
86.28061341268025
81.39772640573739
77.68673228046082
78.46799420157168
73.48744945448996
69.77645532921339
65.77248798352025
61.86617837796597
62.745098039215684
56.7879758907454
52.39337758449683
53.36995498588541
48.291752498664835
44.67841611352712
39.69787136644541
35.10795757991913
36.0845349813077
30.127412832837415
25.732814526588847
26.709391927977418
19.775692378118563
14.599832150759136
9.033340962844282
3.5645075150682843
4.834058136873426
-1.1230640115968566
-5.517662317845426
-4.541084916456855
-10.400549324788281
-14.892805371175708
-19.58037689784085
-24.267948424505988
-23.19371328297856
-29.150835431448844
-33.545433737697415
-32.56885633630884
-37.549401083390556
-41.16273746852827
-45.16670481422141
-49.073014419775696
-48.19409475852598
-53.07698176546884
-56.7879758907454
-55.90905622949569
-59.91302357518883
-62.84275577935454
-65.96780346379796
-69.0928511482414
-68.31158922713054
-70.36240177004655
-71.8272678721294
-71.43663691157397
-72.5108720531014
-73.19447623407339
-72.02258335240711
-71.33897917143511
-71.43663691157397
-71.33897917143511
-71.33897917143511
-71.33897917143511
-71.33897917143511
-71.33897917143511
-70.36240177004655
-69.58113984893568
-69.67879758907453
-62.9404135194934
-57.764553292133975
-58.8387884336614
-50.04959182116426
-43.40886549172198
-33.3501182574197
-24.17029068436713
-26.22110322728313
-13.330281528953995
-3.7598229953459983
-5.908293278400855
6.005951018539712
14.795147631036851
18.506141756313422
23.389028763256274
22.314793621728846
24.4632639047837
25.92813000686656
25.537499046311133
25.63515678644999
25.63515678644999
23.682001983672848
22.21713588158999
22.510109102006563
19.58037689784085
17.334248874647134
17.82253757534142
14.892805371175708
12.646677347981994
10.302891584649425
7.959105821316854
8.44739452201114
5.517662317845426
3.2715342946517127
3.7598229953459983
-0.04882887006942855
-2.9785610742351416
-5.224689097428855
-7.568474860761425
-7.080186160067139
-10.009918364232853
-12.256046387426567
-11.767757686732281
-15.674067292286564
-18.60379949645228
-22.705424582284277
-26.61173418783856
-25.732814526588847
-29.736781872281988
-32.6665140764477
-31.9829098954757
-36.86579690241855
-40.57679102769512
-44.48310063324941
-48.38941023880369
-47.51049057755398
-50.53788052185855
-52.6863508049134
-52.19806210421912
-55.127794308384836
-57.37392233157855
-58.74113069352254
-60.30365453574426
-59.91302357518883
-61.86617837796597
-63.33104448004883
-63.03807125963226
-64.9912260624094
-66.45609216449226
-67.0420386053254
-67.82330052643626
-67.62798504615854
-68.60456244754711
-69.28816662851911
-69.0928511482414
-69.0928511482414
-69.0928511482414
-68.11627374685283
-67.33501182574197
-67.53032730601969
-63.6240177004654
-60.694285496299685
-61.28023193713283
-55.420767528801406
-50.928511482413974
-45.26436255436027
-39.79552910658427
-40.96742198825055
-32.178225375753414
-25.537499046311133
-27.002365148393988
-17.041275654230564
-9.71694514381628
-2.783245593957427
4.150453955901427
2.5879301136797133
11.572442206454566
18.11551079575799
16.650644693675137
24.65857938506142
30.518043793392845
35.889219501029984
41.358052948805984
40.08850232700084
45.16670481422141
48.78004119935912
47.998779278248264
51.90508888380255
54.83482108796826
56.1043717097734
57.764553292133975
57.37392233157855
58.350499732967116
59.03410391393912
58.8387884336614
58.936446173800256
58.8387884336614
58.8387884336614
58.8387884336614
58.8387884336614
57.86221103227283
57.08094911116198
57.27626459143969
54.346532387273975
52.10040436408026
48.78004119935912
45.654993514915695
46.33859769588769
42.33463035019455
39.40489814602884
39.99084458686198
35.10795757991913
31.396963454642556
27.392996108949415
23.48668650339513
24.365606164644845
19.385061417563133
15.771725032425422
16.55298695353628
11.572442206454566
7.861448081177996
2.9785610742351416
-1.513694972152285
-0.537117570763714
-5.517662317845426
-9.228656443121995
-8.349736781872283
-14.306858930342566
-18.701457236591136
-21.533531700617992
-24.65857938506142
-23.974975204089418
-27.97894254978256
-30.908674753948272
-30.22507057297627
-33.252460517280845
-35.4009308003357
-36.768139162279695
-38.42832074464027
-38.03768978408484
-39.99084458686198
-41.45571068894484
-41.16273746852827
-41.16273746852827
-41.16273746852827
-40.186160067139696
-39.40489814602884
-39.600213626306555
-36.67048142214084
-34.424353398947126
-34.91264209964141
-29.053177691309987
-24.65857938506142
-18.89677271686885
-13.525597009231708
-14.697489890897993
-6.787212939650568
-0.9277485313191425
-2.197299153124285
6.591897459372854
13.232623788815136
20.263981078812847
27.295338368810558
25.732814526588847
34.717326619363696
41.26039520866713
39.79552910658427
46.826886396581976
51.90508888380255
57.471580071717405
62.84275577935454
61.67086289768826
64.69825284199283
66.84672312504769
66.3584344243534
64.60059510185397
63.03807125963226
60.49897001602197
58.1551842526894
58.643472953383686
57.56923781185626
56.7879758907454
56.983291371023114
57.86221103227283
58.643472953383686
60.30365453574426
61.86617837796597
61.475547417410546
65.38185702296482
68.31158922713054
67.62798504615854
68.70222018768597
69.38582436865796
66.3584344243534
64.11230640115969
64.60059510185397
56.7879758907454
50.928511482413974
52.19806210421912
45.16670481422141
40.08850232700084
34.52201113908598
29.053177691309987
30.22507057297627
24.267948424505988
19.775692378118563
20.752269779507134
14.795147631036851
10.400549324788281
6.591897459372854
2.68558785381857
3.5645075150682843
-1.3183794918745708
-4.931715877012284
-4.150453955901427
-8.154421301594567
-11.08415350576028
-15.185778591592278
-19.092088197146563
-18.21316853589685
-22.21713588158999
-25.146868085755703
-24.4632639047837
-27.49065384908827
-29.63912413214313
-31.00633249408713
-32.6665140764477
-32.27588311589227
-33.252460517280845
-34.0337224383917
-33.838406958113985
-33.838406958113985
-33.838406958113985
-32.86182955672541
-32.08056763561456
-32.27588311589227
-28.369573510337986
-25.439841306172273
-26.123445487144274
-22.119478141451133
-19.18974593728542
-14.11154345006485
-9.521629663538567
-10.498207064927138
-4.541084916456855
-0.14648661020828566
-1.1230640115968566
5.71297779812314
10.79118028534371
15.381094071869994
20.068665598535134
19.092088197146563
25.92813000686656
31.103990234225986
29.9320973525597
35.010299839780274
38.62363622491798
42.529945830472265
46.43625543602655
45.55733577477684
48.584725719081405
50.73319600213626
50.24490730144198
51.31914244296941
52.002746623941405
51.80743114366369
51.90508888380255
51.80743114366369
48.97535667963683
46.72922865644312
47.21751735713741
43.21355001144427
40.28381780727855
36.182192721446555
32.27588311589227
33.15480277714199
28.174258030060273
24.4632639047837
25.342183566033416
20.361638818951704
16.650644693675137
12.74433508812085
8.838025482566568
9.619287403677424
5.615320057984283
2.68558785381857
3.36919203479057
0.34180209048599985
-1.7090104524299992
-5.0293736171511405
-8.154421301594567
-7.470817120622568
-10.498207064927138
-12.646677347981994
-12.158388647287708
-16.064698252841993
-18.994430457007706
-21.24055848020142
-23.58434424353399
-23.096055542839704
-26.025787747005417
-28.27191577019913
-27.783627069504846
-29.736781872281988
-31.201647974364842
-32.764171816586554
-34.32669565880827
-33.93606469825284
-35.010299839780274
-35.69390402075227
-35.49858854047456
-36.475165941863125
-37.256427862973986
-37.06111238269627
-37.06111238269627
-37.06111238269627
-37.06111238269627
-37.06111238269627
-37.06111238269627
-37.06111238269627
-36.96345464255741
-36.96345464255741
-36.96345464255741
-36.96345464255741
-35.98687724116884
-35.20561532005799
-35.4009308003357
-32.471198596169984
-30.22507057297627
-27.881284809643702
-25.537499046311133
-26.025787747005417
-21.14290074006256
-17.43190661478599
-18.310826276035705
-14.306858930342566
-11.377126726176853
-7.177843900205997
-3.36919203479057
-4.248111696040284
-0.14648661020828566
2.68558785381857
2.0019836728465705
5.908293278400855
8.838025482566568
10.10757610437171
11.767757686732281
11.377126726176853
13.427939269092851
14.892805371175708
14.50217441062028
16.45532921339742
17.920195315480278
19.58037689784085
21.045242999923705
20.752269779507134
20.84992751964599
20.752269779507134
20.752269779507134
18.89677271686885
17.334248874647134
14.795147631036851
12.549019607843137
13.037308308537423
9.130998702983138
6.103608758678568
6.787212939650568
1.9043259327077133
-1.7090104524299992
-5.615320057984283
-9.521629663538567
-8.642710002288853
-14.599832150759136
-18.994430457007706
-18.017853055619135
-25.830472266727703
-31.787594415197987
-38.03768978408484
-44.28778515297169
-42.92057679102769
-47.998779278248264
-51.61211566338598
-50.73319600213626
-53.760585946440834
-56.006713969634546
-56.39734493018997
-57.27626459143969
-57.08094911116198
-56.1043717097734
-55.32310978866255
-55.51842526894026
-54.44419012741283
-53.760585946440834
-55.81139848935683
-57.178606851300835
-56.88563363088426
-60.79194323643854
-63.72167544060426
-63.03807125963226
-65.96780346379796
-68.21393148699168
-69.58113984893568
-71.1436636911574
-70.75303273060197
-72.70618753337911
-74.17105363546197
-73.78042267490653
-74.85465781643397
-75.53826199740597
-75.34294651712825
-75.34294651712825
-75.34294651712825
-74.36636911573969
-73.58510719462882
-73.68276493476768
-70.85069047074083
-68.60456244754711
-64.3076218814374
-60.401312275883114
-61.28023193713283
-54.346532387273975
-49.17067215991455
-50.34256504158083
-41.45571068894484
-34.81498435950255
-27.68596932936599
-20.654612039368278
-22.21713588158999
-12.353704127565424
-4.931715877012284
-6.591897459372854
0.34180209048599985
5.517662317845426
10.986495765621424
16.45532921339742
15.283436331731137
20.263981078812847
23.974975204089418
23.096055542839704
26.123445487144274
28.369573510337986
28.760204470893417
29.63912413214313
29.443808651865414
29.443808651865414
29.443808651865414
29.443808651865414
28.467231250476843
27.68596932936599
25.049210345616846
22.705424582284277
23.19371328297856
19.287403677424276
16.357671473258563
17.041275654230564
12.060730907148852
8.349736781872283
4.443427176317998
0.537117570763714
1.416037232013428
-3.466849774929427
-7.177843900205997
-6.298924238956283
-11.279468986037996
-14.892805371175708
-17.920195315480278
-21.045242999923705
-20.361638818951704
-24.365606164644845
-27.295338368810558
-26.61173418783856
-30.518043793392845
-33.44777599755856
-34.717326619363696
-36.37750820172427
-35.98687724116884
-37.94003204394598
-39.40489814602884
-39.11192492561227
-41.065079728389414
-42.529945830472265
-43.11589227130541
-43.89715419241627
-43.70183871213855
-44.67841611352712
-45.45967803463798
-45.26436255436027
-46.240939955748836
-46.92454413672083
-46.72922865644312
-46.826886396581976
-46.72922865644312
-46.72922865644312
-46.72922865644312
-46.72922865644312
-45.75265125505455
-44.97138933394369
-43.21355001144427
-41.74868390936141
-42.04165712977798
-40.96742198825055
-40.28381780727855
-40.38147554741741
-37.4517433432517
-35.20561532005799
-31.00633249408713
-27.100022888532845
-27.97894254978256
-22.998397802700847
-19.287403677424276
-20.16632333867399
-13.232623788815136
-8.05676356145571
-1.6113527122911422
4.541084916456855
3.076218814373999
12.060730907148852
18.60379949645228
17.13893339436942
27.97894254978256
36.0845349813077
45.75265125505455
55.03013656824598
52.881666285191116
63.819333180743115
71.92492561226825
70.06942854962998
79.05394064240483
85.59700923170824
89.89394979781795
94.5815213244831
93.50728618295567
97.51125352864881
100.44098573281453
99.75738155184253
99.85503929198138
99.85503929198138
98.87846189059282
98.09719996948196
98.19485770962082
95.2651255054551
93.01899748226138
93.50728618295567
88.52674143587396
84.81574731059739
80.9094377050431
76.90547035934996
77.78439002059967
72.80384527351796
69.0928511482414
69.87411306935225
63.91699092088197
59.522392614633404
55.713740749217976
51.80743114366369
52.588693064774546
49.56130312046998
47.31517509727627
47.80346379797055
44.873731593804834
42.62760357061112
41.16273746852827
39.600213626306555
39.893186846723125
36.96345464255741
34.717326619363696
35.20561532005799
32.27588311589227
30.029755092698558
27.68596932936599
25.342183566033416
25.830472266727703
19.971007858396277
15.47875181200885
16.45532921339742
7.666132600900283
1.0254062714579995
-5.0293736171511405
-11.279468986037996
-9.912260624093996
-14.013885709925994
-16.943617914091707
-16.260013733119706
-16.357671473258563
-16.357671473258563
-13.525597009231708
-11.279468986037996
-11.767757686732281
-4.931715877012284
0.14648661020828566
-0.9277485313191425
5.908293278400855
11.08415350576028
14.697489890897993
18.60379949645228
17.724879835202564
19.87335011825742
21.24055848020142
20.947585259784848
23.87731746395056
26.123445487144274
30.322728313115128
34.131380178530556
33.3501182574197
39.20958266575113
43.604180971999696
42.62760357061112
49.46364538033112
54.639505607690545
61.08491645685512
67.33501182574197
65.8701457236591
73.78042267490653
79.63988708323797
78.37033646143283
85.30403601129167
90.38223849851225
92.14007782101167
94.5815213244831
93.99557488364995
94.09323262378882
93.99557488364995
93.99557488364995
90.08926527809568
87.15953307392996
82.0813305867094
77.39375906004425
78.37033646143283
71.43663691157397
66.26077668421455
67.43266956588083
59.522392614633404
53.56527046616312
47.21751735713741
40.96742198825055
42.43228809033341
34.424353398947126
28.564888990615703
29.834439612420844
22.90074006256199
17.724879835202564
14.11154345006485
10.10757610437171
10.986495765621424
6.005951018539712
2.2949568932631417
3.1738765545128556
0.14648661020828566
-2.0019836728465705
-2.490272373540856
-3.2715342946517127
-3.076218814373999
-4.150453955901427
-4.834058136873426
-4.638742656595713
-3.7598229953459983
-2.9785610742351416
-3.1738765545128556
-3.1738765545128556
-3.1738765545128556
-2.197299153124285
-1.416037232013428
-1.6113527122911422
-1.513694972152285
-1.6113527122911422
-2.490272373540856
-3.2715342946517127
-3.076218814373999
-4.052796215762569
-4.834058136873426
-4.638742656595713
-6.591897459372854
-8.05676356145571
-10.595864805065995
-12.939650568398566
-12.353704127565424
-13.427939269092851
-14.209201190203707
-14.013885709925994
-14.013885709925994
-14.013885709925994
-13.037308308537423
-12.353704127565424
-12.45136186770428
-9.619287403677424
-7.373159380483711
-7.861448081177996
-3.9551384756237127
-0.9277485313191425
2.0996414129854277
5.224689097428855
4.541084916456855
8.44739452201114
11.47478446631571
10.79118028534371
13.81857022964828
15.967040512703136
19.287403677424276
22.412451361867703
21.63118944075685
25.63515678644999
28.564888990615703
27.881284809643702
31.885252155336843
34.81498435950255
36.96345464255741
39.307240405889985
38.818951705195694
40.86976424811169
42.236972610055695
41.943999389639124
42.04165712977798
41.943999389639124
40.96742198825055
40.28381780727855
40.38147554741741
36.57282368200198
33.545433737697415
34.22903791866941
30.22507057297627
27.295338368810558
23.19371328297856
19.287403677424276
20.16632333867399
15.185778591592278
11.47478446631571
12.256046387426567
6.39658197909514
2.0019836728465705
-2.68558785381857
-7.373159380483711
-6.298924238956283
-13.232623788815136
-18.40848401617456
-17.236591134508277
-23.19371328297856
-27.588311589227132
-32.37354085603113
-36.96345464255741
-35.98687724116884
-41.84634164950027
-46.240939955748836
-45.26436255436027
-51.22148470283055
-55.61608300907912
-59.42473487449455
-63.33104448004883
-62.35446707866026
-67.33501182574197
-71.04600595101854
-70.16708628976883
-74.17105363546197
-77.00312809948882
-80.2258335240711
-83.25322346837568
-82.56961928740368
-85.59700923170824
-87.7454795147631
-87.15953307392996
-91.06584267948425
-93.99557488364995
-96.24170290684367
-98.58548867017625
-97.99954222934309
-99.95269703212024
-101.41756313420309
-101.02693217364767
-101.12458991378652
-101.02693217364767
-100.0503547722591
-99.26909285114824
-99.46440833142596
-98.39017318989853
-97.60891126878766
-97.80422674906538
-96.72999160753795
-95.9487296864271
-93.2143129625391
-90.96818493934539
-91.45647364003968
-84.62043183031967
-79.44457160296025
-80.51880674448768
-69.77645532921339
-61.5732051575494
-51.02616922255284
-40.86976424811169
-43.11589227130541
-27.392996108949415
-15.576409552147707
-18.21316853589685
-3.2715342946517127
7.666132600900283
14.697489890897993
22.705424582284277
20.947585259784848
27.97894254978256
33.05714503700313
31.9829098954757
36.96345464255741
40.57679102769512
42.62760357061112
45.069047074082555
44.48310063324941
45.55733577477684
46.240939955748836
46.04562447547112
47.0222018768597
47.80346379797055
45.654993514915695
44.19012741283284
44.580758373388264
41.5533684290837
39.40489814602884
39.79552910658427
35.889219501029984
32.95948729686427
28.857862211032273
24.95155260547799
25.830472266727703
19.87335011825742
15.47875181200885
16.45532921339742
10.498207064927138
6.103608758678568
1.3183794918745708
-3.2715342946517127
-2.197299153124285
-7.275501640344854
-10.888838025482567
-10.10757610437171
-15.967040512703136
-20.361638818951704
-23.19371328297856
-26.416418707560844
-25.63515678644999
-30.615701533531702
-34.22903791866941
-33.44777599755856
-36.475165941863125
-38.62363622491798
-41.943999389639124
-45.069047074082555
-44.38544289311055
-46.43625543602655
-47.80346379797055
-47.51049057755398
-49.46364538033112
-50.928511482413974
-52.49103532463569
-54.053559166857404
-53.66292820630198
-54.639505607690545
-55.420767528801406
-55.22545204852369
-54.24887464713512
-53.467612726024264
-52.6863508049134
-51.90508888380255
-52.10040436408026
-49.17067215991455
-46.92454413672083
-47.412832837415124
-43.40886549172198
-40.479133287556266
-36.37750820172427
-32.471198596169984
-33.3501182574197
-27.392996108949415
-22.998397802700847
-23.974975204089418
-18.017853055619135
-13.623254749370565
-8.838025482566568
-4.150453955901427
-5.224689097428855
0.6347753109025711
5.127031357289998
4.150453955901427
9.130998702983138
12.74433508812085
16.748302433813993
20.55695429922942
19.678034637979707
22.803082322423133
24.95155260547799
24.4632639047837
26.514076447699704
27.881284809643702
29.541466392004274
31.00633249408713
30.71335927367056
30.71335927367056
30.71335927367056
30.71335927367056
29.736781872281988
29.053177691309987
26.318760967421987
24.072632944228275
24.560921644922562
21.533531700617992
19.287403677424276
19.775692378118563
15.869382772564279
12.939650568398566
10.693522545204852
8.349736781872283
8.838025482566568
6.787212939650568
5.420004577706569
5.71297779812314
3.7598229953459983
2.197299153124285
1.6113527122911422
0.8300907911802854
1.0254062714579995
0.04882887006942855
-0.6347753109025711
-0.537117570763714
-1.513694972152285
-2.197299153124285
-3.9551384756237127
-5.517662317845426
-5.127031357289998
-7.080186160067139
-8.545052262149996
-8.252079041733426
-11.181811245899137
-13.427939269092851
-14.795147631036851
-16.357671473258563
-16.064698252841993
-18.994430457007706
-21.14290074006256
-20.654612039368278
-22.705424582284277
-24.17029068436713
-26.709391927977418
-28.95551995117113
-28.467231250476843
-29.541466392004274
-30.22507057297627
-30.029755092698558
-30.127412832837415
-30.029755092698558
-28.174258030060273
-26.61173418783856
-27.002365148393988
-24.072632944228275
-21.826504921034562
-22.314793621728846
-16.45532921339742
-12.060730907148852
-5.322346837567712
0.7324330510414282
-0.537117570763714
7.275501640344854
13.13496604867628
11.865415426871138
19.775692378118563
25.63515678644999
30.029755092698558
34.81498435950255
33.74074921797513
38.72129396505684
42.33463035019455
41.5533684290837
44.580758373388264
46.72922865644312
48.19409475852598
49.75661860074769
49.365987640192266
47.51049057755398
46.04562447547112
46.33859769588769
40.479133287556266
36.0845349813077
31.2993057145037
26.61173418783856
27.68596932936599
24.560921644922562
22.314793621728846
22.803082322423133
21.728847180895706
21.045242999923705
22.119478141451133
22.803082322423133
22.705424582284277
25.537499046311133
27.783627069504846
27.295338368810558
28.369573510337986
29.053177691309987
26.025787747005417
23.779659723811704
24.267948424505988
17.52956435492485
12.353704127565424
13.427939269092851
5.517662317845426
-0.24414435034714274
-5.615320057984283
-11.08415350576028
-9.912260624093996
-15.869382772564279
-20.263981078812847
-19.287403677424276
-24.267948424505988
-27.881284809643702
-29.9320973525597
-32.37354085603113
-31.787594415197987
-34.81498435950255
-36.96345464255741
-36.475165941863125
-37.549401083390556
-38.23300526436255
-39.99084458686198
-41.45571068894484
-41.16273746852827
-42.13931486991684
-42.822919050888835
-42.62760357061112
-43.604180971999696
-44.38544289311055
-45.16670481422141
-45.947966735332265
-45.75265125505455
-45.75265125505455
-45.75265125505455
-45.75265125505455
-44.77607385366598
-43.99481193255512
-42.236972610055695
-40.67444876783398
-41.065079728389414
-36.182192721446555
-32.471198596169984
-33.252460517280845
-27.392996108949415
-22.90074006256199
-16.260013733119706
-10.10757610437171
-11.47478446631571
-3.466849774929427
2.2949568932631417
0.9277485313191425
9.81460288395514
16.45532921339742
21.63118944075685
27.1976806286717
25.92813000686656
31.9829098954757
36.27985046158541
35.303273060196844
39.40489814602884
42.236972610055695
44.48310063324941
46.826886396581976
46.240939955748836
47.31517509727627
47.998779278248264
47.90112153810941
47.90112153810941
47.90112153810941
47.90112153810941
47.80346379797055
47.80346379797055
46.826886396581976
46.14328221560998
46.240939955748836
44.28778515297169
42.822919050888835
41.16273746852827
39.600213626306555
39.99084458686198
36.96345464255741
34.81498435950255
35.303273060196844
31.2993057145037
28.369573510337986
24.267948424505988
20.361638818951704
21.24055848020142
16.260013733119706
12.549019607843137
13.427939269092851
8.44739452201114
4.736400396734569
1.8066681925688564
-1.3183794918745708
-0.6347753109025711
-3.662165255207141
-5.810635538261997
-5.322346837567712
-8.252079041733426
-10.498207064927138
-12.84199282825971
-15.185778591592278
-14.697489890897993
-17.627222095063708
-19.87335011825742
-19.385061417563133
-21.338216220340275
-22.803082322423133
-25.342183566033416
-27.588311589227132
-27.100022888532845
-30.127412832837415
-32.27588311589227
-31.787594415197987
-35.69390402075227
-38.62363622491798
-41.74868390936141
-44.873731593804834
-44.19012741283284
-49.073014419775696
-52.78400854505226
-51.90508888380255
-55.90905622949569
-58.8387884336614
-60.01068131532769
-61.67086289768826
-61.28023193713283
-60.401312275883114
-59.62005035477226
-59.71770809491112
-55.90905622949569
-52.881666285191116
-47.80346379797055
-43.21355001144427
-44.19012741283284
-36.37750820172427
-30.420386053253985
-31.68993667505913
-23.779659723811704
-17.920195315480278
-11.572442206454566
-5.322346837567712
-6.6895551995117115
0.14648661020828566
5.322346837567712
4.150453955901427
11.08415350576028
16.260013733119706
20.84992751964599
25.537499046311133
24.4632639047837
29.443808651865414
33.15480277714199
32.27588311589227
36.27985046158541
39.20958266575113
40.479133287556266
42.04165712977798
41.651026169222554
41.74868390936141
41.74868390936141
41.74868390936141
38.818951705195694
36.57282368200198
34.22903791866941
31.885252155336843
32.37354085603113
27.49065384908827
23.779659723811704
24.560921644922562
19.678034637979707
15.967040512703136
10.986495765621424
6.39658197909514
7.373159380483711
-0.34180209048599985
-6.201266498817426
-4.931715877012284
-13.81857022964828
-20.45929655909056
-27.49065384908827
-34.52201113908598
-32.95948729686427
-38.03768978408484
-41.74868390936141
-40.86976424811169
-42.92057679102769
-44.38544289311055
-43.11589227130541
-42.43228809033341
-42.529945830472265
-39.600213626306555
-37.4517433432517
-37.94003204394598
-33.93606469825284
-31.00633249408713
-30.71335927367056
-29.834439612420844
-29.9320973525597
-30.908674753948272
-31.592278934920273
-31.396963454642556
-33.3501182574197
-34.81498435950255
-35.49858854047456
-36.27985046158541
-36.0845349813077
-37.06111238269627
-37.74471656366827
-37.64705882352941
-38.62363622491798
-39.307240405889985
-39.11192492561227
-39.11192492561227
-39.11192492561227
-37.256427862973986
-35.69390402075227
-35.98687724116884
-32.178225375753414
-29.150835431448844
-25.049210345616846
-21.14290074006256
-22.021820401312276
-15.185778591592278
-10.009918364232853
-11.08415350576028
-4.150453955901427
0.8300907911802854
7.373159380483711
13.525597009231708
12.158388647287708
19.18974593728542
24.267948424505988
23.096055542839704
29.053177691309987
33.44777599755856
37.256427862973986
41.16273746852827
40.28381780727855
43.311207751583126
45.55733577477684
45.069047074082555
46.04562447547112
46.826886396581976
46.63157091630426
46.63157091630426
46.63157091630426
44.67841611352712
43.21355001144427
43.50652323186084
40.57679102769512
38.33066300450141
35.010299839780274
31.885252155336843
32.56885633630884
28.564888990615703
25.63515678644999
26.318760967421987
23.291371023117417
21.045242999923705
18.701457236591136
16.357671473258563
16.84596017395285
13.916227969787137
11.670099946593423
12.158388647287708
10.10757610437171
8.642710002288853
8.05676356145571
7.177843900205997
7.373159380483711
6.39658197909514
5.615320057984283
5.810635538261997
3.8574807354848555
2.392614633401999
1.8066681925688564
0.9277485313191425
1.1230640115968566
1.1230640115968566
1.1230640115968566
1.1230640115968566
0.14648661020828566
-0.537117570763714
-0.34180209048599985
-0.34180209048599985
-0.34180209048599985
-0.34180209048599985
-0.34180209048599985
-0.34180209048599985
-0.34180209048599985
-0.34180209048599985
-0.34180209048599985
-0.34180209048599985
-0.34180209048599985
-1.3183794918745708
-2.0996414129854277
-1.9043259327077133
-1.9043259327077133
-1.9043259327077133
-0.9277485313191425
-0.24414435034714274
-0.43945983062485694
1.416037232013428
2.9785610742351416
2.5879301136797133
5.517662317845426
7.763790341039139
12.060730907148852
15.869382772564279
14.990463111314565
21.826504921034562
27.002365148393988
25.830472266727703
33.74074921797513
39.600213626306555
47.80346379797055
55.51842526894026
53.760585946440834
64.69825284199283
72.70618753337911
70.94834821087969
79.93286030365454
86.47592889295797
92.62836652170596
98.87846189059282
97.41359578850995
102.49179827573053
106.10513466086825
105.22621499961852
107.27702754253453
108.74189364461738
106.39810788128482
105.0308995193408
105.22621499961852
100.44098573281453
96.6323338673991
97.41359578850995
90.57755397878996
85.40169375143053
77.88204776073853
70.94834821087969
72.41321431296254
63.526359960326545
56.88563363088426
58.350499732967116
49.365987640192266
42.72526131074998
37.549401083390556
31.9829098954757
33.252460517280845
27.1976806286717
22.803082322423133
23.779659723811704
17.82253757534142
13.427939269092851
10.595864805065995
7.373159380483711
8.05676356145571
4.052796215762569
1.1230640115968566
1.8066681925688564
-1.1230640115968566
-3.2715342946517127
-5.71297779812314
-7.959105821316854
-7.470817120622568
-10.498207064927138
-12.646677347981994
-12.158388647287708
-15.088120851453422
-17.334248874647134
-18.701457236591136
-20.361638818951704
-19.971007858396277
-24.853894865339132
-28.467231250476843
-27.68596932936599
-34.52201113908598
-39.69787136644541
-43.311207751583126
-47.21751735713741
-46.33859769588769
-46.533913176165406
-46.43625543602655
-46.43625543602655
-42.62760357061112
-39.69787136644541
-30.71335927367056
-23.19371328297856
-24.853894865339132
-13.037308308537423
-4.150453955901427
-6.103608758678568
6.591897459372854
16.16235599298085
23.58434424353399
31.494621194781413
29.736781872281988
36.768139162279695
41.84634164950027
40.772106507972836
47.60814831769284
52.78400854505226
56.39734493018997
60.30365453574426
59.42473487449455
63.42870222018769
66.3584344243534
65.6748302433814
68.70222018768597
70.85069047074083
72.21789883268482
73.78042267490653
73.3897917143511
73.48744945448996
73.48744945448996
73.3897917143511
72.41321431296254
71.72961013199054
70.85069047074083
70.06942854962998
70.26474402990769
67.33501182574197
65.08888380254825
65.47951476310368
62.54978255893797
60.30365453574426
56.983291371023114
53.85824368657969
54.54184786755169
49.56130312046998
45.85030899519341
46.72922865644312
41.74868390936141
38.03768978408484
33.15480277714199
28.467231250476843
29.443808651865414
23.48668650339513
19.092088197146563
20.068665598535134
14.11154345006485
9.71694514381628
4.931715877012284
0.34180209048599985
1.3183794918745708
-4.541084916456855
-8.935683222705425
-7.959105821316854
-13.916227969787137
-18.310826276035705
-22.998397802700847
-27.68596932936599
-26.61173418783856
-31.68993667505913
-35.303273060196844
-34.52201113908598
-38.42832074464027
-41.358052948805984
-44.580758373388264
-47.60814831769284
-46.92454413672083
-49.951934081025406
-52.10040436408026
-51.61211566338598
-54.54184786755169
-56.7879758907454
-59.13176165407798
-61.475547417410546
-60.8896009765774
-63.819333180743115
-66.06546120393683
-65.47951476310368
-69.38582436865796
-72.31555657282368
-74.5616845960174
-76.90547035934996
-76.31952391851682
-78.37033646143283
-79.73754482337682
-79.44457160296025
-79.44457160296025
-79.44457160296025
-77.4914168001831
-76.02655069810025
-76.31952391851682
-73.29213397421225
-71.1436636911574
-71.53429465171283
-66.65140764476998
-62.9404135194934
-59.91302357518883
-56.7879758907454
-57.471580071717405
-51.51445792324712
-47.11985961699855
-48.09643701838712
-40.186160067139696
-34.32669565880827
-27.97894254978256
-21.728847180895706
-23.096055542839704
-15.185778591592278
-9.228656443121995
-10.595864805065995
-3.5645075150682843
1.416037232013428
5.0293736171511405
9.033340962844282
8.154421301594567
10.302891584649425
11.670099946593423
11.377126726176853
10.498207064927138
9.71694514381628
7.959105821316854
6.494239719233997
6.787212939650568
3.8574807354848555
1.6113527122911422
2.0996414129854277
-0.7324330510414282
-2.9785610742351416
-5.322346837567712
-7.666132600900283
-7.177843900205997
-9.130998702983138
-10.595864805065995
-10.302891584649425
-11.279468986037996
-12.060730907148852
-12.84199282825971
-13.623254749370565
-13.427939269092851
-13.427939269092851
-13.427939269092851
-13.427939269092851
-14.404516670481422
-15.088120851453422
-15.869382772564279
-16.650644693675137
-16.55298695353628
-18.40848401617456
-19.971007858396277
-19.58037689784085
-22.510109102006563
-24.756237125200276
-27.100022888532845
-29.443808651865414
-28.857862211032273
-32.86182955672541
-35.79156176089113
-35.10795757991913
-38.03768978408484
-40.28381780727855
-42.62760357061112
-44.97138933394369
-44.38544289311055
-46.43625543602655
-47.90112153810941
-47.51049057755398
-48.584725719081405
-49.26832990005341
-50.04959182116426
-50.83085374227512
-50.635538261997404
-50.635538261997404
-50.635538261997404
-50.635538261997404
-48.68238345922026
-47.11985961699855
-44.580758373388264
-42.33463035019455
-42.822919050888835
-40.772106507972836
-39.307240405889985
-39.600213626306555
-38.525978484779124
-37.84237430380713
-33.15480277714199
-29.443808651865414
-30.22507057297627
-21.43587396047913
-14.795147631036851
-16.260013733119706
-4.541084916456855
4.248111696040284
16.55298695353628
28.174258030060273
25.537499046311133
41.45571068894484
53.17463950560769
50.53788052185855
61.5732051575494
69.58113984893568
72.60852979324025
76.71015487907225
75.73357747768368
74.95231555657283
74.17105363546197
74.26871137560083
70.36240177004655
67.43266956588083
64.20996414129854
61.08491645685512
61.768520637827116
57.764553292133975
54.83482108796826
55.420767528801406
52.49103532463569
50.24490730144198
48.78004119935912
47.21751735713741
47.51049057755398
46.43625543602655
45.75265125505455
45.85030899519341
45.85030899519341
45.85030899519341
43.89715419241627
42.43228809033341
42.72526131074998
39.79552910658427
37.549401083390556
38.03768978408484
34.131380178530556
31.103990234225986
26.025787747005417
21.43587396047913
22.412451361867703
16.45532921339742
12.060730907148852
13.037308308537423
6.103608758678568
1.0254062714579995
-4.443427176317998
-9.912260624093996
-8.642710002288853
-14.697489890897993
-19.092088197146563
-18.11551079575799
-23.096055542839704
-26.709391927977418
-29.736781872281988
-32.86182955672541
-32.178225375753414
-36.0845349813077
-39.014267185473415
-38.33066300450141
-40.38147554741741
-41.84634164950027
-43.40886549172198
-44.97138933394369
-44.580758373388264
-44.67841611352712
-44.67841611352712
-44.67841611352712
-42.72526131074998
-41.26039520866713
-38.62363622491798
-36.37750820172427
-36.86579690241855
-31.9829098954757
-28.27191577019913
-29.053177691309987
-23.19371328297856
-18.701457236591136
-14.892805371175708
-10.986495765621424
-11.865415426871138
-5.908293278400855
-1.513694972152285
-2.490272373540856
1.416037232013428
4.345769436179141
8.44739452201114
12.353704127565424
11.47478446631571
14.50217441062028
16.748302433813993
16.260013733119706
19.18974593728542
21.338216220340275
20.84992751964599
20.947585259784848
20.947585259784848
20.947585259784848
20.947585259784848
20.947585259784848
18.994430457007706
17.52956435492485
14.990463111314565
12.646677347981994
13.232623788815136
10.205233844510566
7.959105821316854
8.44739452201114
6.494239719233997
5.0293736171511405
3.466849774929427
1.9043259327077133
2.197299153124285
1.2207217517357138
0.43945983062485694
0.6347753109025711
-1.2207217517357138
-2.68558785381857
-5.224689097428855
-7.568474860761425
-6.982528419928283
-9.033340962844282
-10.498207064927138
-10.205233844510566
-14.11154345006485
-17.041275654230564
-19.18974593728542
-21.63118944075685
-21.045242999923705
-24.95155260547799
-27.881284809643702
-27.295338368810558
-31.201647974364842
-34.131380178530556
-37.256427862973986
-40.38147554741741
-39.69787136644541
-42.72526131074998
-44.873731593804834
-44.38544289311055
-47.31517509727627
-49.56130312046998
-50.928511482413974
-52.49103532463569
-52.10040436408026
-53.17463950560769
-53.85824368657969
-53.66292820630198
-52.78400854505226
-52.002746623941405
-50.24490730144198
-48.68238345922026
-48.97535667963683
-45.069047074082555
-42.13931486991684
-42.72526131074998
-37.84237430380713
-34.131380178530556
-28.27191577019913
-22.90074006256199
-24.072632944228275
-18.11551079575799
-13.623254749370565
-14.599832150759136
-7.763790341039139
-2.5879301136797133
1.9043259327077133
6.591897459372854
5.517662317845426
11.47478446631571
15.967040512703136
14.892805371175708
19.971007858396277
23.58434424353399
26.61173418783856
29.736781872281988
29.053177691309987
31.9829098954757
34.22903791866941
33.74074921797513
35.69390402075227
37.15877012283513
36.86579690241855
36.86579690241855
36.86579690241855
33.05714503700313
30.029755092698558
30.71335927367056
21.92416266117342
15.283436331731137
8.154421301594567
1.1230640115968566
2.68558785381857
-2.2949568932631417
-5.908293278400855
-5.127031357289998
-9.130998702983138
-12.060730907148852
-11.377126726176853
-11.572442206454566
-11.47478446631571
-9.619287403677424
-8.05676356145571
-8.44739452201114
-6.39658197909514
-4.931715877012284
-6.298924238956283
-6.884870679789426
-6.787212939650568
-11.572442206454566
-15.283436331731137
-14.404516670481422
-19.385061417563133
-23.096055542839704
-26.025787747005417
-29.2484931715877
-28.467231250476843
-32.471198596169984
-35.4009308003357
-34.717326619363696
-38.72129396505684
-41.5533684290837
-42.822919050888835
-44.48310063324941
-44.09246967269398
-46.04562447547112
-47.51049057755398
-47.21751735713741
-47.21751735713741
-47.21751735713741
-48.09643701838712
-48.877698939497975
-48.68238345922026
-48.68238345922026
-48.68238345922026
-48.68238345922026
-48.68238345922026
-48.68238345922026
-48.584725719081405
-48.584725719081405
-48.584725719081405
-47.60814831769284
-46.826886396581976
-47.0222018768597
-44.09246967269398
-41.84634164950027
-37.549401083390556
-33.74074921797513
-34.61966887922484
-27.68596932936599
-22.510109102006563
-23.682001983672848
-16.748302433813993
-11.572442206454566
-5.127031357289998
1.0254062714579995
-0.24414435034714274
6.591897459372854
11.767757686732281
10.595864805065995
15.674067292286564
19.287403677424276
23.19371328297856
27.100022888532845
26.22110322728313
30.22507057297627
33.15480277714199
32.471198596169984
35.49858854047456
37.74471656366827
39.11192492561227
40.67444876783398
40.28381780727855
41.358052948805984
42.04165712977798
41.84634164950027
41.943999389639124
41.84634164950027
39.014267185473415
36.768139162279695
37.256427862973986
34.22903791866941
32.08056763561456
32.56885633630884
27.588311589227132
23.974975204089418
18.994430457007706
14.404516670481422
15.381094071869994
10.400549324788281
6.6895551995117115
7.568474860761425
1.6113527122911422
-2.68558785381857
-6.494239719233997
-10.400549324788281
-9.521629663538567
-14.50217441062028
-18.11551079575799
-17.334248874647134
-21.338216220340275
-24.267948424505988
-26.416418707560844
-28.857862211032273
-28.27191577019913
-31.2993057145037
-33.44777599755856
-32.95948729686427
-34.91264209964141
-36.37750820172427
-37.06111238269627
-37.84237430380713
-37.64705882352941
-38.62363622491798
-39.307240405889985
-39.20958266575113
-40.186160067139696
-40.86976424811169
-41.651026169222554
-42.43228809033341
-42.236972610055695
-43.21355001144427
-43.89715419241627
-43.79949645227741
-43.79949645227741
-43.79949645227741
-42.822919050888835
-42.04165712977798
-42.13931486991684
-41.16273746852827
-40.38147554741741
-40.57679102769512
-36.67048142214084
-33.74074921797513
-30.518043793392845
-27.392996108949415
-28.076600289921416
-22.21713588158999
-17.82253757534142
-18.799114976729992
-11.865415426871138
-6.6895551995117115
-1.2207217517357138
4.150453955901427
2.9785610742351416
9.912260624093996
15.088120851453422
13.916227969787137
19.87335011825742
24.267948424505988
29.9320973525597
35.4009308003357
34.131380178530556
40.186160067139696
44.48310063324941
43.50652323186084
49.46364538033112
53.85824368657969
56.690318150606544
59.815365835049974
59.13176165407798
63.03807125963226
65.96780346379796
65.28419928282597
67.33501182574197
68.79987792782482
68.4092469672694
68.50690470740825
68.50690470740825
66.55374990463112
64.9912260624094
65.38185702296482
61.37788967727169
58.44815747310597
56.20202944991226
53.85824368657969
54.346532387273975
50.44022278171969
47.412832837415124
48.09643701838712
44.09246967269398
41.16273746852827
38.91660944533455
36.57282368200198
37.06111238269627
31.201647974364842
26.709391927977418
27.68596932936599
19.87335011825742
13.916227969787137
7.666132600900283
1.416037232013428
2.783245593957427
-3.1738765545128556
-7.568474860761425
-6.591897459372854
-8.642710002288853
-10.10757610437171
-9.81460288395514
-9.912260624093996
-9.81460288395514
-6.982528419928283
-4.736400396734569
-5.224689097428855
-2.2949568932631417
-0.04882887006942855
-0.537117570763714
-0.43945983062485694
-0.43945983062485694
-4.248111696040284
-7.275501640344854
-6.591897459372854
-9.619287403677424
-11.767757686732281
-14.209201190203707
-16.45532921339742
-15.967040512703136
-17.041275654230564
-17.724879835202564
-17.627222095063708
-17.627222095063708
-17.627222095063708
-15.674067292286564
-14.209201190203707
-14.50217441062028
-8.74036774242771
-4.248111696040284
-5.224689097428855
3.466849774929427
10.10757610437171
19.092088197146563
27.588311589227132
25.732814526588847
38.525978484779124
48.09643701838712
45.947966735332265
58.8387884336614
68.31158922713054
75.73357747768368
83.6438544289311
81.78835736629281
87.94079499504082
92.23773556115053
91.26115815976196
93.31197070267795
94.77683680476082
93.50728618295567
92.72602426184481
92.92133974212253
88.03845273517967
84.3274586099031
85.10872053101396
78.17502098115511
72.99916075379568
66.55374990463112
60.30365453574426
61.67086289768826
51.80743114366369
44.38544289311055
46.04562447547112
37.06111238269627
30.420386053253985
23.291371023117417
16.260013733119706
17.82253757534142
9.912260624093996
3.9551384756237127
5.322346837567712
-0.6347753109025711
-5.0293736171511405
-7.861448081177996
-11.08415350576028
-10.302891584649425
-12.353704127565424
-13.81857022964828
-13.525597009231708
-14.50217441062028
-15.283436331731137
-15.088120851453422
-15.088120851453422
-15.088120851453422
-15.088120851453422
-15.088120851453422
-15.088120851453422
-16.064698252841993
-16.748302433813993
-18.506141756313422
-20.068665598535134
-19.678034637979707
-22.60776684214542
-24.853894865339132
-24.365606164644845
-27.295338368810558
-29.443808651865414
-31.885252155336843
-34.22903791866941
-33.64309147783627
-35.69390402075227
-37.15877012283513
-36.768139162279695
-36.86579690241855
-36.768139162279695
-35.889219501029984
-35.10795757991913
-35.20561532005799
-31.396963454642556
-28.369573510337986
-29.053177691309987
-21.24055848020142
-15.381094071869994
-5.224689097428855
3.8574807354848555
1.9043259327077133
17.627222095063708
29.346150911726557
26.709391927977418
43.50652323186084
56.006713969634546
68.50690470740825
81.00709544518196
78.17502098115511
92.14007782101167
102.39414053559167
100.0503547722591
109.1325246051728
115.67559319447624
119.87487602044709
124.66010528725108
123.4882124055848
124.66010528725108
125.34370946822308
125.14839398794537
124.1718165865568
123.39055466544595
120.65613794155794
118.31235217822538
118.80064087891967
113.9177538719768
110.20675974670024
110.9880216678111
105.0308995193408
100.53864347295338
94.87449454489968
89.40566109712367
90.57755397878996
82.66727702754254
76.71015487907225
77.97970550087739
69.0928511482414
62.45212481879911
56.29968719005112
49.951934081025406
51.31914244296941
44.38544289311055
39.20958266575113
40.38147554741741
34.32669565880827
29.9320973525597
27.100022888532845
23.87731746395056
24.560921644922562
20.55695429922942
17.627222095063708
18.310826276035705
14.306858930342566
11.377126726176853
6.298924238956283
1.7090104524299992
2.68558785381857
-3.1738765545128556
-7.568474860761425
-6.591897459372854
-13.427939269092851
-18.60379949645228
-24.17029068436713
-29.541466392004274
-28.369573510337986
-34.32669565880827
-38.72129396505684
-37.74471656366827
-43.70183871213855
-48.09643701838712
-51.80743114366369
-55.713740749217976
-54.83482108796826
-61.768520637827116
-66.84672312504769
-65.6748302433814
-74.5616845960174
-81.10475318532082
-86.28061341268025
-91.8471046005951
-90.57755397878996
-92.72602426184481
-94.09323262378882
-93.70260166323338
-89.99160753795681
-86.96421759365225
-78.07736324101626
-70.4600595101854
-72.12024109254597
-56.39734493018997
-44.580758373388264
-47.21751735713741
-28.467231250476843
-14.50217441062028
-1.416037232013428
11.865415426871138
8.838025482566568
22.90074006256199
33.15480277714199
30.811017013809415
42.822919050888835
51.61211566338598
58.25284199282826
65.28419928282597
63.72167544060426
68.79987792782482
72.41321431296254
71.63195239185168
73.68276493476768
75.04997329671168
74.75700007629511
74.75700007629511
74.75700007629511
71.8272678721294
69.58113984893568
70.06942854962998
67.13969634546426
64.89356832227054
60.59662775616083
56.690318150606544
57.56923781185626
53.56527046616312
50.53788052185855
51.22148470283055
47.21751735713741
44.28778515297169
41.065079728389414
37.94003204394598
38.62363622491798
34.717326619363696
31.68993667505913
32.37354085603113
27.392996108949415
23.779659723811704
18.799114976729992
14.209201190203707
15.185778591592278
9.228656443121995
4.834058136873426
5.810635538261997
-1.0254062714579995
-6.103608758678568
-11.670099946593423
-17.13893339436942
-15.869382772564279
-22.803082322423133
-27.97894254978256
-26.807049668116274
-33.74074921797513
-38.91660944533455
-44.38544289311055
-49.85427634088655
-48.584725719081405
-55.51842526894026
-60.694285496299685
-59.522392614633404
-66.45609216449226
-71.53429465171283
-76.12420843823911
-80.81177996490425
-79.73754482337682
-86.67124437323568
-91.74944686045625
-90.57755397878996
-95.55809872587167
-99.17143511100939
-102.19882505531396
-105.32387273975738
-104.54261081864652
-106.59342336156253
-108.05828946364538
-107.66765850308995
-107.66765850308995
-107.66765850308995
-106.69108110170139
-105.90981918059052
-106.00747692072939
-102.1011673151751
-99.17143511100939
-99.75738155184253
-95.75341420614939
-92.82368200198367
-87.64782177462425
-83.05790798809797
-84.03448538948653
-78.07736324101626
-73.68276493476768
-74.5616845960174
-68.60456244754711
-64.20996414129854
-57.56923781185626
-51.31914244296941
-52.6863508049134
-44.77607385366598
-38.818951705195694
-40.186160067139696
-33.15480277714199
-27.97894254978256
-21.533531700617992
-15.283436331731137
-16.650644693675137
-10.595864805065995
-6.298924238956283
-7.177843900205997
-3.1738765545128556
-0.24414435034714274
1.8066681925688564
4.248111696040284
3.662165255207141
4.736400396734569
5.517662317845426
5.322346837567712
5.322346837567712
5.322346837567712
5.322346837567712
5.322346837567712
5.322346837567712
4.345769436179141
3.662165255207141
3.7598229953459983
2.783245593957427
2.0996414129854277
2.197299153124285
2.197299153124285
2.197299153124285
1.2207217517357138
0.537117570763714
0.6347753109025711
-1.1230640115968566
-2.68558785381857
-4.248111696040284
-5.810635538261997
-5.420004577706569
-8.349736781872283
-10.595864805065995
-10.10757610437171
-14.013885709925994
-16.943617914091707
-20.068665598535134
-23.19371328297856
-22.510109102006563
-26.514076447699704
-29.443808651865414
-28.760204470893417
-32.6665140764477
-35.596246280613414
-37.84237430380713
-40.186160067139696
-39.69787136644541
-43.604180971999696
-46.533913176165406
-45.85030899519341
-48.877698939497975
-51.02616922255284
-53.36995498588541
-55.713740749217976
-55.127794308384836
-57.178606851300835
-58.643472953383686
-58.25284199282826
-59.32707713435569
-60.01068131532769
-57.86221103227283
-56.39734493018997
-56.690318150606544
-52.78400854505226
-49.85427634088655
-50.53788052185855
-45.55733577477684
-41.84634164950027
-36.96345464255741
-32.27588311589227
-33.3501182574197
-29.2484931715877
-26.318760967421987
-27.002365148393988
-26.807049668116274
-26.807049668116274
-25.830472266727703
-25.146868085755703
-25.24452582589456
-23.291371023117417
-21.826504921034562
-22.119478141451133
-17.334248874647134
-13.623254749370565
-8.642710002288853
-4.052796215762569
-5.127031357289998
2.68558785381857
8.545052262149996
7.275501640344854
13.330281528953995
17.627222095063708
19.58037689784085
22.021820401312276
21.43587396047913
20.55695429922942
19.87335011825742
19.971007858396277
18.017853055619135
16.55298695353628
13.037308308537423
10.009918364232853
10.693522545204852
6.6895551995117115
3.7598229953459983
4.443427176317998
0.43945983062485694
-2.392614633401999
-5.517662317845426
-8.642710002288853
-7.959105821316854
-10.986495765621424
-13.13496604867628
-12.646677347981994
-14.697489890897993
-16.16235599298085
-16.748302433813993
-17.627222095063708
-17.43190661478599
-17.43190661478599
-17.43190661478599
-17.43190661478599
-18.40848401617456
-19.092088197146563
-19.87335011825742
-20.654612039368278
-20.45929655909056
-22.412451361867703
-23.87731746395056
-23.58434424353399
-25.537499046311133
-27.002365148393988
-29.541466392004274
-31.787594415197987
-31.2993057145037
-33.252460517280845
-34.717326619363696
-34.424353398947126
-36.37750820172427
-37.84237430380713
-37.549401083390556
-37.549401083390556
-37.549401083390556
-37.549401083390556
-37.549401083390556
-37.549401083390556
-34.61966887922484
-32.37354085603113
-28.076600289921416
-24.267948424505988
-25.146868085755703
-18.21316853589685
-13.037308308537423
-14.209201190203707
-6.298924238956283
-0.43945983062485694
6.787212939650568
13.720912489509422
12.158388647287708
20.16632333867399
26.025787747005417
24.65857938506142
32.6665140764477
38.525978484779124
42.92057679102769
47.60814831769284
46.533913176165406
50.635538261997404
53.467612726024264
52.881666285191116
55.81139848935683
57.95986877241169
60.401312275883114
62.64744029907683
62.15915159838254
63.233386739909974
63.91699092088197
63.72167544060426
63.72167544060426
63.72167544060426
61.768520637827116
60.30365453574426
60.59662775616083
57.66689555199512
55.420767528801406
55.90905622949569
51.90508888380255
48.97535667963683
45.75265125505455
42.62760357061112
43.311207751583126
39.307240405889985
36.37750820172427
37.06111238269627
33.05714503700313
30.127412832837415
26.90470740825513
23.779659723811704
24.4632639047837
21.43587396047913
19.287403677424276
19.775692378118563
15.771725032425422
12.84199282825971
11.572442206454566
10.009918364232853
10.302891584649425
8.349736781872283
6.884870679789426
7.177843900205997
6.201266498817426
5.420004577706569
4.638742656595713
3.8574807354848555
4.052796215762569
3.076218814373999
2.2949568932631417
2.490272373540856
1.513694972152285
0.7324330510414282
0.04882887006942855
-0.7324330510414282
-0.537117570763714
-2.490272373540856
-3.9551384756237127
-3.662165255207141
-4.638742656595713
-5.420004577706569
-7.177843900205997
-8.642710002288853
-8.349736781872283
-8.44739452201114
-8.349736781872283
-8.349736781872283
-7.470817120622568
-6.6895551995117115
-2.9785610742351416
-0.04882887006942855
-0.7324330510414282
6.005951018539712
11.181811245899137
10.10757610437171
19.87335011825742
27.1976806286717
37.06111238269627
46.33859769588769
44.19012741283284
58.057526512550545
68.31158922713054
65.96780346379796
79.83520256351568
90.08926527809568
99.26909285114824
108.64423590447852
106.49576562142367
115.57793545433738
122.12100404364081
120.55848020141909
125.63668268863965
129.25001907377737
128.37109941252766
128.56641489280537
128.4687571526665
126.51560234988938
124.95307850766766
125.24605172808423
121.33974212252994
118.31235217822538
115.18730449378195
111.96459906919966
112.64820325017166
104.8355840390631
98.87846189059282
100.14801251239795
88.4290836957351
79.54222934309911
70.94834821087969
62.35446707866026
64.20996414129854
56.1043717097734
50.24490730144198
51.51445792324712
45.55733577477684
41.16273746852827
38.23300526436255
35.10795757991913
35.79156176089113
33.64309147783627
32.178225375753414
32.56885633630884
30.518043793392845
29.053177691309987
24.560921644922562
20.84992751964599
21.63118944075685
12.84199282825971
6.201266498817426
7.666132600900283
-0.14648661020828566
-6.005951018539712
-11.377126726176853
-16.943617914091707
-15.674067292286564
-22.60776684214542
-27.783627069504846
-26.61173418783856
-33.545433737697415
-38.62363622491798
-45.16670481422141
-51.31914244296941
-49.951934081025406
-56.88563363088426
-62.061493858243686
-60.8896009765774
-66.84672312504769
-71.24132143129626
-75.9288929579614
-80.61646448462653
-79.54222934309911
-83.54619668879225
-86.47592889295797
-85.79232471198596
-86.8665598535134
-87.55016403448539
-85.40169375143053
-83.93682764934768
-84.22980086976425
-80.32349126420996
-77.39375906004425
-77.97970550087739
-71.1436636911574
-65.96780346379796
-60.401312275883114
-54.932478828107115
-56.1043717097734
-48.19409475852598
-42.236972610055695
-43.604180971999696
-37.549401083390556
-33.15480277714199
-28.369573510337986
-23.682001983672848
-24.756237125200276
-20.654612039368278
-17.724879835202564
-18.40848401617456
-15.381094071869994
-13.13496604867628
-11.767757686732281
-10.10757610437171
-10.498207064927138
-8.545052262149996
-7.080186160067139
-7.373159380483711
-5.420004577706569
-3.9551384756237127
-4.248111696040284
-4.150453955901427
-4.150453955901427
-3.1738765545128556
-2.490272373540856
-2.5879301136797133
-2.5879301136797133
-2.5879301136797133
-2.5879301136797133
-2.5879301136797133
-2.5879301136797133
-4.541084916456855
-6.005951018539712
-5.615320057984283
-8.642710002288853
-10.79118028534371
-14.11154345006485
-17.236591134508277
-16.55298695353628
-21.43587396047913
-25.146868085755703
-24.267948424505988
-29.2484931715877
-32.86182955672541
-35.889219501029984
-39.014267185473415
-38.33066300450141
-41.358052948805984
-43.50652323186084
-43.018234531166556
-45.947966735332265
-48.19409475852598
-49.56130312046998
-51.123826962691695
-50.73319600213626
-52.6863508049134
-54.15121690699626
-53.85824368657969
-56.7879758907454
-58.936446173800256
-61.28023193713283
-63.6240177004654
-63.13572899977112
-66.06546120393683
-68.21393148699168
-67.7256427862974
-70.65537499046312
-72.80384527351796
-74.26871137560083
-75.83123521782254
-75.44060425726711
-76.41718165865568
-77.19844357976653
-77.00312809948882
-76.02655069810025
-75.2452887769894
-72.5108720531014
-70.26474402990769
-70.75303273060197
-66.74906538490883
-63.819333180743115
-64.40527962157626
-58.54581521324483
-54.053559166857404
-49.365987640192266
-44.67841611352712
-45.654993514915695
-38.72129396505684
-33.545433737697415
-34.717326619363696
-27.783627069504846
-22.60776684214542
-18.017853055619135
-13.330281528953995
-14.306858930342566
-10.302891584649425
-7.373159380483711
-8.05676356145571
-5.0293736171511405
-2.783245593957427
-2.392614633401999
-1.513694972152285
-1.7090104524299992
-1.6113527122911422
-1.6113527122911422
-1.6113527122911422
-2.5879301136797133
-3.36919203479057
-4.150453955901427
-4.931715877012284
-4.736400396734569
-5.71297779812314
-6.494239719233997
-6.298924238956283
-7.275501640344854
-8.05676356145571
-9.71694514381628
-11.279468986037996
-10.888838025482567
-13.916227969787137
-16.064698252841993
-15.576409552147707
-18.506141756313422
-20.752269779507134
-24.072632944228275
-27.100022888532845
-26.416418707560844
-29.443808651865414
-31.68993667505913
-31.103990234225986
-34.131380178530556
-36.27985046158541
-36.768139162279695
-37.549401083390556
-37.35408560311284
-41.26039520866713
-44.19012741283284
-43.50652323186084
-48.38941023880369
-52.10040436408026
-55.03013656824598
-58.25284199282826
-57.471580071717405
-57.66689555199512
-57.56923781185626
-57.56923781185626
-54.639505607690545
-52.39337758449683
-47.21751735713741
-42.62760357061112
-43.604180971999696
-34.81498435950255
-28.174258030060273
-29.63912413214313
-21.63118944075685
-15.771725032425422
-12.256046387426567
-8.252079041733426
-9.130998702983138
-7.080186160067139
-5.615320057984283
-5.908293278400855
-2.0019836728465705
0.8300907911802854
3.9551384756237127
7.080186160067139
6.39658197909514
13.232623788815136
18.40848401617456
17.236591134508277
25.146868085755703
31.00633249408713
38.33066300450141
45.26436255436027
43.70183871213855
51.61211566338598
57.471580071717405
56.20202944991226
63.13572899977112
68.21393148699168
72.80384527351796
77.4914168001831
76.41718165865568
80.42114900434882
83.35088120851454
82.66727702754254
85.6946669718471
87.84313725490196
90.18692301823454
92.5307087815671
91.94476234073396
92.04242008087282
91.94476234073396
91.94476234073396
90.96818493934539
90.18692301823454
88.4290836957351
86.8665598535134
87.15953307392996
82.27664606698711
78.56565194171054
79.3469138628214
74.36636911573969
70.75303273060197
64.79591058213168
59.42473487449455
60.59662775616083
53.66292820630198
48.48706797894255
49.56130312046998
42.62760357061112
37.4517433432517
32.86182955672541
28.174258030060273
29.2484931715877
22.314793621728846
17.13893339436942
18.310826276035705
12.256046387426567
7.861448081177996
4.052796215762569
0.14648661020828566
1.0254062714579995
-3.8574807354848555
-7.470817120622568
-6.6895551995117115
-9.71694514381628
-11.963073167009995
-14.306858930342566
-16.650644693675137
-16.064698252841993
-19.092088197146563
-21.24055848020142
-20.752269779507134
-21.826504921034562
-22.510109102006563
-24.267948424505988
-25.830472266727703
-25.439841306172273
-26.514076447699704
-27.1976806286717
-27.002365148393988
-27.97894254978256
-28.760204470893417
-28.564888990615703
-28.564888990615703
-28.564888990615703
-26.61173418783856
-25.146868085755703
-25.439841306172273
-23.48668650339513
-22.021820401312276
-18.506141756313422
-15.47875181200885
-16.16235599298085
-11.181811245899137
-7.568474860761425
-8.349736781872283
-1.513694972152285
3.5645075150682843
9.130998702983138
14.599832150759136
13.330281528953995
20.263981078812847
25.439841306172273
24.267948424505988
31.201647974364842
36.37750820172427
41.84634164950027
47.31517509727627
46.04562447547112
50.14724956130312
53.07698176546884
52.39337758449683
56.29968719005112
59.22941939421683
59.522392614633404
60.401312275883114
60.2059967956054
61.182574196993976
61.86617837796597
61.67086289768826
59.815365835049974
58.25284199282826
55.713740749217976
53.467612726024264
53.95590142671855
49.951934081025406
47.0222018768597
47.60814831769284
42.72526131074998
39.014267185473415
35.010299839780274
31.103990234225986
31.9829098954757
27.002365148393988
23.389028763256274
24.17029068436713
19.18974593728542
15.47875181200885
11.572442206454566
7.666132600900283
8.545052262149996
2.5879301136797133
-1.7090104524299992
-0.7324330510414282
-5.71297779812314
-9.42397192339971
-14.306858930342566
-18.89677271686885
-17.920195315480278
-22.90074006256199
-26.514076447699704
-25.732814526588847
-29.736781872281988
-32.6665140764477
-35.79156176089113
-38.91660944533455
-38.23300526436255
-42.13931486991684
-45.069047074082555
-44.38544289311055
-47.412832837415124
-49.56130312046998
-51.02616922255284
-52.588693064774546
-52.19806210421912
-54.15121690699626
-55.61608300907912
-55.32310978866255
-56.29968719005112
-56.983291371023114
-56.7879758907454
-56.7879758907454
-56.7879758907454
-58.74113069352254
-60.2059967956054
-59.815365835049974
-62.745098039215684
-64.89356832227054
-66.3584344243534
-67.92095826657511
-67.53032730601969
-64.69825284199283
-62.45212481879911
-62.9404135194934
-56.1043717097734
-50.928511482413974
-41.5533684290837
-33.15480277714199
-35.010299839780274
-22.119478141451133
-12.549019607843137
-14.697489890897993
-1.8066681925688564
7.666132600900283
13.13496604867628
19.58037689784085
18.11551079575799
22.21713588158999
25.146868085755703
24.4632639047837
28.467231250476843
31.396963454642556
32.6665140764477
34.22903791866941
33.838406958113985
35.889219501029984
37.35408560311284
36.96345464255741
37.06111238269627
36.96345464255741
36.0845349813077
35.303273060196844
35.4009308003357
33.44777599755856
31.9829098954757
32.27588311589227
28.369573510337986
25.439841306172273
22.314793621728846
19.18974593728542
19.87335011825742
15.869382772564279
12.939650568398566
13.623254749370565
9.619287403677424
6.6895551995117115
4.443427176317998
2.0996414129854277
2.5879301136797133
0.537117570763714
-0.8300907911802854
-0.43945983062485694
-2.392614633401999
-3.9551384756237127
-6.494239719233997
-8.74036774242771
-8.252079041733426
-12.158388647287708
-15.088120851453422
-14.404516670481422
-18.40848401617456
-21.338216220340275
-25.439841306172273
-29.346150911726557
-28.467231250476843
-33.3501182574197
-37.06111238269627
-36.182192721446555
-40.186160067139696
-43.11589227130541
-45.362020294499125
-47.705806057831694
-47.11985961699855
-48.19409475852598
-48.877698939497975
-48.68238345922026
-49.658960860608836
-50.44022278171969
-51.22148470283055
-52.002746623941405
-51.80743114366369
-50.83085374227512
-50.04959182116426
-50.24490730144198
-48.291752498664835
-46.72922865644312
-43.21355001144427
-40.186160067139696
-40.86976424811169
-35.010299839780274
-30.518043793392845
-31.494621194781413
-25.537499046311133
-21.14290074006256
-14.50217441062028
-8.349736781872283
-9.71694514381628
-1.7090104524299992
4.052796215762569
2.68558785381857
9.71694514381628
14.795147631036851
20.361638818951704
25.830472266727703
24.560921644922562
31.494621194781413
36.67048142214084
35.49858854047456
42.43228809033341
47.60814831769284
51.22148470283055
55.127794308384836
54.24887464713512
59.22941939421683
62.84275577935454
61.96383611810483
64.9912260624094
67.23735408560312
68.60456244754711
70.16708628976883
69.77645532921339
69.87411306935225
69.77645532921339
69.77645532921339
68.79987792782482
68.01861600671397
66.26077668421455
64.79591058213168
65.08888380254825
62.061493858243686
59.91302357518883
60.30365453574426
57.37392233157855
55.127794308384836
51.80743114366369
48.68238345922026
49.365987640192266
44.38544289311055
40.772106507972836
41.5533684290837
37.549401083390556
34.61966887922484
31.396963454642556
28.27191577019913
28.95551995117113
26.90470740825513
25.439841306172273
25.732814526588847
23.779659723811704
22.314793621728846
21.63118944075685
20.84992751964599
20.947585259784848
19.971007858396277
19.287403677424276
19.385061417563133
18.40848401617456
17.627222095063708
15.967040512703136
14.404516670481422
14.697489890897993
11.767757686732281
9.521629663538567
10.009918364232853
7.080186160067139
4.834058136873426
4.443427176317998
3.5645075150682843
3.7598229953459983
2.783245593957427
2.0019836728465705
2.197299153124285
4.052796215762569
5.517662317845426
9.033340962844282
12.060730907148852
11.377126726176853
16.260013733119706
19.971007858396277
19.18974593728542
24.072632944228275
27.783627069504846
31.68993667505913
35.596246280613414
34.717326619363696
38.72129396505684
41.651026169222554
40.96742198825055
43.99481193255512
46.14328221560998
47.60814831769284
49.17067215991455
48.78004119935912
47.90112153810941
47.11985961699855
47.21751735713741
44.38544289311055
42.13931486991684
40.67444876783398
39.11192492561227
39.40489814602884
39.307240405889985
39.307240405889985
39.307240405889985
41.16273746852827
42.72526131074998
46.14328221560998
49.17067215991455
48.48706797894255
52.49103532463569
55.32310978866255
54.7371633478294
56.690318150606544
58.1551842526894
56.88563363088426
56.20202944991226
56.29968719005112
51.51445792324712
47.80346379797055
48.584725719081405
44.580758373388264
41.651026169222554
37.4517433432517
33.64309147783627
34.424353398947126
30.420386053253985
27.49065384908827
28.174258030060273
23.19371328297856
19.48271915770199
17.43190661478599
15.088120851453422
15.576409552147707
12.646677347981994
10.400549324788281
10.888838025482567
6.982528419928283
4.052796215762569
1.8066681925688564
-0.43945983062485694
0.04882887006942855
-4.834058136873426
-8.545052262149996
-7.666132600900283
-12.646677347981994
-16.357671473258563
-20.263981078812847
-24.17029068436713
-23.291371023117417
-28.27191577019913
-31.885252155336843
-31.103990234225986
-35.10795757991913
-38.03768978408484
-41.16273746852827
-44.28778515297169
-43.50652323186084
-47.51049057755398
-50.44022278171969
-49.75661860074769
-51.80743114366369
-53.27229724574655
-53.85824368657969
-54.639505607690545
-54.44419012741283
-52.588693064774546
-51.02616922255284
-51.416800183108265
-47.51049057755398
-44.48310063324941
-39.40489814602884
-34.81498435950255
-35.79156176089113
-29.834439612420844
-25.439841306172273
-26.416418707560844
-20.45929655909056
-16.064698252841993
-12.256046387426567
-8.252079041733426
-9.130998702983138
-4.150453955901427
-0.537117570763714
-1.3183794918745708
2.5879301136797133
5.517662317845426
7.666132600900283
10.10757610437171
9.521629663538567
11.572442206454566
13.037308308537423
12.646677347981994
13.720912489509422
14.404516670481422
13.330281528953995
12.646677347981994
12.74433508812085
9.81460288395514
7.666132600900283
8.154421301594567
5.127031357289998
2.9785610742351416
-1.2207217517357138
-5.0293736171511405
-4.248111696040284
-9.130998702983138
-12.84199282825971
-12.060730907148852
-17.920195315480278
-22.314793621728846
-26.123445487144274
-30.029755092698558
-29.150835431448844
-35.10795757991913
-39.5025558861677
-38.525978484779124
-43.50652323186084
-47.11985961699855
-50.14724956130312
-53.27229724574655
-52.49103532463569
-56.49500267032883
-59.42473487449455
-58.74113069352254
-61.67086289768826
-63.91699092088197
-65.28419928282597
-66.84672312504769
-66.45609216449226
-67.53032730601969
-68.21393148699168
-68.01861600671397
-68.99519340810254
-69.67879758907453
-70.4600595101854
-71.24132143129626
-71.04600595101854
-72.02258335240711
-72.70618753337911
-72.5108720531014
-73.48744945448996
-74.17105363546197
-74.95231555657283
-75.73357747768368
-75.53826199740597
-75.53826199740597
-75.53826199740597
-75.53826199740597
-74.5616845960174
-73.78042267490653
-71.04600595101854
-68.70222018768597
-69.19050888838025
-63.33104448004883
-58.936446173800256
-59.91302357518883
-51.02616922255284
-44.38544289311055
-37.256427862973986
-30.22507057297627
-31.787594415197987
-22.803082322423133
-16.260013733119706
-17.724879835202564
-8.74036774242771
-2.197299153124285
2.9785610742351416
8.44739452201114
7.275501640344854
13.232623788815136
17.627222095063708
16.650644693675137
21.63118944075685
25.342183566033416
28.27191577019913
31.396963454642556
30.71335927367056
32.764171816586554
34.22903791866941
33.93606469825284
35.889219501029984
37.35408560311284
37.94003204394598
38.72129396505684
38.525978484779124
38.62363622491798
38.525978484779124
38.525978484779124
37.549401083390556
36.86579690241855
35.98687724116884
35.20561532005799
35.4009308003357
31.494621194781413
28.564888990615703
29.2484931715877
21.43587396047913
15.47875181200885
8.252079041733426
1.2207217517357138
2.783245593957427
-2.197299153124285
-5.908293278400855
-5.0293736171511405
-9.033340962844282
-11.963073167009995
-11.377126726176853
-11.47478446631571
-11.47478446631571
-9.521629663538567
-8.05676356145571
-8.349736781872283
-6.39658197909514
-4.931715877012284
-7.177843900205997
-8.545052262149996
-8.252079041733426
-14.013885709925994
-18.506141756313422
-17.52956435492485
-22.510109102006563
-26.123445487144274
-31.00633249408713
-35.69390402075227
-34.61966887922484
-39.600213626306555
-43.21355001144427
-42.43228809033341
-48.291752498664835
-52.6863508049134
-55.51842526894026
-58.74113069352254
-57.95986877241169
-61.96383611810483
-64.89356832227054
-64.20996414129854
-65.28419928282597
-65.96780346379796
-64.79591058213168
-64.11230640115969
-64.20996414129854
-60.401312275883114
-57.37392233157855
-58.057526512550545
-53.07698176546884
-49.365987640192266
-44.48310063324941
-39.79552910658427
-40.86976424811169
-33.93606469825284
-28.760204470893417
-29.834439612420844
-22.90074006256199
-17.82253757534142
-12.256046387426567
-6.787212939650568
-7.959105821316854
-1.0254062714579995
3.9551384756237127
2.8809033340962844
9.81460288395514
14.892805371175708
18.60379949645228
22.510109102006563
21.63118944075685
25.63515678644999
28.564888990615703
27.881284809643702
29.9320973525597
31.396963454642556
31.9829098954757
32.86182955672541
32.6665140764477
31.68993667505913
30.908674753948272
31.103990234225986
29.150835431448844
27.68596932936599
25.146868085755703
22.803082322423133
23.291371023117417
19.385061417563133
16.45532921339742
17.041275654230564
14.013885709925994
11.865415426871138
8.545052262149996
5.420004577706569
6.103608758678568
3.076218814373999
0.9277485313191425
1.416037232013428
-0.537117570763714
-2.0019836728465705
-3.5645075150682843
-5.127031357289998
-4.834058136873426
-5.810635538261997
-6.494239719233997
-6.39658197909514
-7.373159380483711
-8.05676356145571
-8.838025482566568
-9.619287403677424
-9.521629663538567
-9.521629663538567
-9.521629663538567
-9.521629663538567
-9.521629663538567
-9.521629663538567
-9.521629663538567
-9.521629663538567
-9.521629663538567
-8.545052262149996
-7.763790341039139
-7.959105821316854
-6.982528419928283
-6.201266498817426
-4.443427176317998
-2.9785610742351416
-3.2715342946517127
-2.2949568932631417
-1.513694972152285
-1.7090104524299992
0.14648661020828566
1.6113527122911422
4.150453955901427
6.494239719233997
5.908293278400855
9.912260624093996
12.84199282825971
12.158388647287708
17.041275654230564
20.752269779507134
24.756237125200276
28.564888990615703
27.68596932936599
33.64309147783627
38.03768978408484
37.06111238269627
43.89715419241627
49.073014419775696
54.639505607690545
60.01068131532769
58.8387884336614
65.77248798352025
70.85069047074083
69.67879758907453
76.61249713893339
81.69069962615396
88.13611047531853
94.38620584420539
92.92133974212253
99.95269703212024
105.0308995193408
103.85900663767453
109.8161287861448
114.11306935225453
115.9685664148928
118.41000991836424
117.82406347753108
117.92172121766994
117.82406347753108
117.82406347753108
115.87090867475395
114.30838483253224
111.76928358892195
109.42549782558937
109.91378652628366
105.90981918059052
102.98008697642481
103.56603341725796
99.56206607156481
96.6323338673991
93.40962844281681
90.2845807583734
90.96818493934539
86.96421759365225
83.93682764934768
84.62043183031967
79.63988708323797
75.9288929579614
71.04600595101854
66.3584344243534
67.33501182574197
60.401312275883114
55.32310978866255
56.39734493018997
48.48706797894255
42.62760357061112
35.303273060196844
28.27191577019913
29.834439612420844
18.994430457007706
10.888838025482567
12.646677347981994
0.8300907911802854
-7.861448081177996
-15.47875181200885
-23.291371023117417
-21.533531700617992
-27.68596932936599
-32.08056763561456
-31.103990234225986
-33.15480277714199
-34.61966887922484
-34.32669565880827
-34.32669565880827
-34.32669565880827
-32.37354085603113
-30.908674753948272
-31.201647974364842
-30.22507057297627
-29.443808651865414
-30.518043793392845
-31.2993057145037
-31.103990234225986
-33.05714503700313
-34.52201113908598
-34.131380178530556
-35.20561532005799
-35.889219501029984
-35.69390402075227
-35.69390402075227
-35.69390402075227
-33.838406958113985
-32.27588311589227
-32.56885633630884
-31.592278934920273
-30.811017013809415
-29.053177691309987
-27.588311589227132
-27.881284809643702
-25.92813000686656
-24.365606164644845
-24.756237125200276
-21.826504921034562
-19.58037689784085
-18.11551079575799
-16.55298695353628
-16.84596017395285
-14.892805371175708
-13.427939269092851
-13.720912489509422
-12.74433508812085
-11.963073167009995
-12.158388647287708
-12.060730907148852
-12.158388647287708
-14.013885709925994
-15.47875181200885
-15.185778591592278
-17.13893339436942
-18.60379949645228
-20.16632333867399
-21.728847180895706
-21.338216220340275
-22.412451361867703
-23.096055542839704
-22.998397802700847
-22.998397802700847
-22.998397802700847
-22.021820401312276
-21.24055848020142
-21.43587396047913
-21.338216220340275
-21.338216220340275
-21.338216220340275
-21.338216220340275
-21.338216220340275
-22.314793621728846
-22.998397802700847
-22.90074006256199
-23.87731746395056
-24.560921644922562
-24.365606164644845
-28.27191577019913
-31.201647974364842
-33.3501182574197
-35.79156176089113
-35.20561532005799
-39.11192492561227
-42.04165712977798
-41.45571068894484
-45.362020294499125
-48.291752498664835
-50.44022278171969
-52.881666285191116
-52.295719844357976
-54.346532387273975
-55.713740749217976
-55.420767528801406
-56.39734493018997
-57.08094911116198
-58.8387884336614
-60.401312275883114
-60.01068131532769
-60.987258716716255
-61.67086289768826
-61.5732051575494
-62.54978255893797
-63.233386739909974
-64.01464866102083
-64.79591058213168
-64.60059510185397
-62.64744029907683
-61.182574196993976
-61.475547417410546
-58.54581521324483
-56.29968719005112
-52.97932402532997
-49.85427634088655
-50.53788052185855
-44.580758373388264
-40.186160067139696
-41.16273746852827
-35.20561532005799
-30.811017013809415
-26.025787747005417
-21.338216220340275
-22.314793621728846
-16.357671473258563
-11.963073167009995
-12.939650568398566
-8.935683222705425
-6.005951018539712
-2.783245593957427
0.14648661020828566
-0.43945983062485694
2.490272373540856
4.736400396734569
4.248111696040284
6.201266498817426
7.666132600900283
8.349736781872283
9.130998702983138
8.935683222705425
9.033340962844282
8.935683222705425
8.935683222705425
7.080186160067139
5.615320057984283
3.9551384756237127
2.392614633401999
2.783245593957427
-1.0254062714579995
-3.9551384756237127
-3.2715342946517127
-6.298924238956283
-8.545052262149996
-10.888838025482567
-13.232623788815136
-12.646677347981994
-15.674067292286564
-17.82253757534142
-17.334248874647134
-19.385061417563133
-20.84992751964599
-22.412451361867703
-23.974975204089418
-23.58434424353399
-25.63515678644999
-27.100022888532845
-26.709391927977418
-28.66254673075456
-30.127412832837415
-31.68993667505913
-33.252460517280845
-32.95948729686427
-35.889219501029984
-38.03768978408484
-37.549401083390556
-40.479133287556266
-42.72526131074998
-44.09246967269398
-45.654993514915695
-45.362020294499125
-47.31517509727627
-48.78004119935912
-48.38941023880369
-50.34256504158083
-51.80743114366369
-52.39337758449683
-53.27229724574655
-53.07698176546884
-54.053559166857404
-54.7371633478294
-54.54184786755169
-54.54184786755169
-54.54184786755169
-53.56527046616312
-52.78400854505226
-52.97932402532997
-52.881666285191116
-52.881666285191116
-52.881666285191116
-54.7371633478294
-56.20202944991226
-53.95590142671855
-52.588693064774546
-52.881666285191116
-47.0222018768597
-42.62760357061112
-43.50652323186084
-33.74074921797513
-26.416418707560844
-14.697489890897993
-3.8574807354848555
-6.298924238956283
10.400549324788281
22.90074006256199
20.068665598535134
35.98687724116884
47.705806057831694
56.59266041046769
66.06546120393683
63.91699092088197
70.06942854962998
74.36636911573969
73.3897917143511
78.37033646143283
81.98367284657053
83.05790798809797
84.71808957045853
84.3274586099031
84.42511635004196
84.3274586099031
84.3274586099031
83.35088120851454
82.56961928740368
80.81177996490425
79.24925612268254
79.54222934309911
77.58907454032196
76.02655069810025
76.31952391851682
73.3897917143511
71.1436636911574
68.79987792782482
66.45609216449226
66.94438086518655
63.91699092088197
61.67086289768826
62.15915159838254
59.13176165407798
56.983291371023114
53.56527046616312
50.53788052185855
51.22148470283055
46.240939955748836
42.529945830472265
43.311207751583126
38.33066300450141
34.717326619363696
30.71335927367056
26.807049668116274
27.68596932936599
22.705424582284277
18.994430457007706
19.87335011825742
15.869382772564279
12.939650568398566
9.71694514381628
6.591897459372854
7.275501640344854
4.248111696040284
2.0996414129854277
2.5879301136797133
-0.34180209048599985
-2.490272373540856
-3.9551384756237127
-5.517662317845426
-5.127031357289998
-7.177843900205997
-8.642710002288853
-8.252079041733426
-9.326314183260854
-10.009918364232853
-9.912260624093996
-9.912260624093996
-9.912260624093996
-7.959105821316854
-6.494239719233997
-6.787212939650568
-2.0019836728465705
1.6113527122911422
6.494239719233997
11.181811245899137
10.10757610437171
17.041275654230564
22.21713588158999
21.045242999923705
27.97894254978256
33.05714503700313
36.67048142214084
40.67444876783398
39.79552910658427
43.79949645227741
46.72922865644312
46.04562447547112
48.97535667963683
51.22148470283055
51.61211566338598
52.49103532463569
52.295719844357976
52.295719844357976
52.295719844357976
52.295719844357976
52.19806210421912
52.19806210421912
51.22148470283055
50.53788052185855
50.635538261997404
49.658960860608836
48.877698939497975
49.073014419775696
47.11985961699855
45.55733577477684
43.018234531166556
40.67444876783398
41.26039520866713
37.256427862973986
34.32669565880827
35.010299839780274
29.053177691309987
24.65857938506142
20.84992751964599
16.943617914091707
17.82253757534142
11.865415426871138
7.470817120622568
8.44739452201114
2.490272373540856
-1.8066681925688564
-5.615320057984283
-9.521629663538567
-8.74036774242771
-12.74433508812085
-15.674067292286564
-14.990463111314565
-18.017853055619135
-20.16632333867399
-21.533531700617992
-23.19371328297856
-22.803082322423133
-24.756237125200276
-26.22110322728313
-25.92813000686656
-27.881284809643702
-29.346150911726557
-30.908674753948272
-32.471198596169984
-32.08056763561456
-34.131380178530556
-35.49858854047456
-35.20561532005799
-36.182192721446555
-36.96345464255741
-36.768139162279695
-36.768139162279695
-36.768139162279695
-36.768139162279695
-36.768139162279695
-36.768139162279695
-35.79156176089113
-35.010299839780274
-32.27588311589227
-30.029755092698558
-30.518043793392845
-26.61173418783856
-23.58434424353399
-24.267948424505988
-20.263981078812847
-17.334248874647134
-12.256046387426567
-7.666132600900283
-8.74036774242771
-1.8066681925688564
3.2715342946517127
2.0996414129854277
8.05676356145571
12.45136186770428
17.236591134508277
21.92416266117342
20.84992751964599
25.830472266727703
29.541466392004274
28.66254673075456
31.68993667505913
33.93606469825284
37.256427862973986
40.28381780727855
39.600213626306555
39.69787136644541
39.69787136644541
39.69787136644541
36.768139162279695
34.61966887922484
33.15480277714199
31.592278934920273
31.885252155336843
31.787594415197987
31.787594415197987
31.787594415197987
33.74074921797513
35.20561532005799
38.62363622491798
41.651026169222554
40.96742198825055
45.85030899519341
49.56130312046998
48.68238345922026
52.6863508049134
55.61608300907912
55.90905622949569
56.7879758907454
56.59266041046769
53.760585946440834
51.51445792324712
52.002746623941405
48.97535667963683
46.72922865644312
42.43228809033341
38.62363622491798
39.40489814602884
34.52201113908598
30.811017013809415
31.592278934920273
25.63515678644999
21.24055848020142
17.43190661478599
13.525597009231708
14.404516670481422
10.400549324788281
7.470817120622568
8.05676356145571
4.150453955901427
1.2207217517357138
0.04882887006942855
-1.6113527122911422
-1.2207217517357138
-3.2715342946517127
-4.736400396734569
-4.345769436179141
-6.298924238956283
-7.861448081177996
-9.42397192339971
-10.986495765621424
-10.595864805065995
-14.50217441062028
-17.43190661478599
-16.748302433813993
-20.752269779507134
-23.682001983672848
-28.760204470893417
-33.3501182574197
-32.27588311589227
-36.37750820172427
-39.20958266575113
-38.62363622491798
-40.57679102769512
-42.04165712977798
-40.772106507972836
-40.08850232700084
-40.186160067139696
-36.37750820172427
-33.3501182574197
-34.0337224383917
-28.174258030060273
-23.682001983672848
-18.994430457007706
-14.306858930342566
-15.283436331731137
-8.44739452201114
-3.2715342946517127
-4.345769436179141
0.537117570763714
4.150453955901427
7.177843900205997
10.302891584649425
9.619287403677424
13.623254749370565
16.55298695353628
17.82253757534142
19.385061417563133
19.092088197146563
20.068665598535134
20.84992751964599
20.654612039368278
20.654612039368278
20.654612039368278
20.654612039368278
19.678034637979707
18.89677271686885
17.13893339436942
15.674067292286564
15.967040512703136
12.060730907148852
9.130998702983138
6.005951018539712
2.8809033340962844
3.5645075150682843
-2.197299153124285
-6.6895551995117115
-5.71297779812314
-11.572442206454566
-16.064698252841993
-15.088120851453422
-20.947585259784848
-25.342183566033416
-30.127412832837415
-34.81498435950255
-33.74074921797513
-38.72129396505684
-42.33463035019455
-41.5533684290837
-45.55733577477684
-48.48706797894255
-51.61211566338598
-54.7371633478294
-53.95590142671855
-56.983291371023114
-59.13176165407798
-60.59662775616083
-62.15915159838254
-61.768520637827116
-62.745098039215684
-63.526359960326545
-63.33104448004883
-64.3076218814374
-64.9912260624094
-64.79591058213168
-64.79591058213168
-64.79591058213168
-65.77248798352025
-66.45609216449226
-66.26077668421455
-67.23735408560312
-67.92095826657511
-69.67879758907453
-71.1436636911574
-70.85069047074083
-71.8272678721294
-72.5108720531014
-72.31555657282368
-72.41321431296254
-72.31555657282368
-70.36240177004655
-68.89753566796368
-69.19050888838025
-65.28419928282597
-62.35446707866026
-62.9404135194934
-57.08094911116198
-52.588693064774546
-45.947966735332265
-39.79552910658427
-41.16273746852827
-32.178225375753414
-25.63515678644999
-27.100022888532845
-17.13893339436942
-9.81460288395514
-1.9043259327077133
5.810635538261997
4.052796215762569
14.013885709925994
21.338216220340275
19.678034637979707
27.68596932936599
33.545433737697415
37.94003204394598
42.72526131074998
41.651026169222554
45.654993514915695
48.584725719081405
47.90112153810941
48.97535667963683
49.658960860608836
48.584725719081405
47.80346379797055
47.998779278248264
44.09246967269398
41.16273746852827
41.74868390936141
37.74471656366827
34.81498435950255
31.68993667505913
28.564888990615703
29.2484931715877
25.24452582589456
22.314793621728846
22.90074006256199
18.017853055619135
14.306858930342566
6.591897459372854
-0.24414435034714274
1.2207217517357138
-5.71297779812314
-10.79118028534371
-9.71694514381628
-14.697489890897993
-18.40848401617456
-19.48271915770199
-21.14290074006256
-20.752269779507134
-18.89677271686885
-17.43190661478599
-17.724879835202564
-13.81857022964828
-10.888838025482567
-7.666132600900283
-4.638742656595713
-5.322346837567712
-5.127031357289998
-5.127031357289998
-5.127031357289998
-8.935683222705425
-11.963073167009995
-14.11154345006485
-16.55298695353628
-15.967040512703136
-19.87335011825742
-22.803082322423133
-22.21713588158999
-26.123445487144274
-29.053177691309987
-30.322728313115128
-31.9829098954757
-31.592278934920273
-32.56885633630884
-33.3501182574197
-33.15480277714199
-33.15480277714199
-33.15480277714199
-30.22507057297627
-28.076600289921416
-28.467231250476843
-24.560921644922562
-21.63118944075685
-22.314793621728846
-16.357671473258563
-11.963073167009995
-7.177843900205997
-2.490272373540856
-3.5645075150682843
3.2715342946517127
8.349736781872283
7.275501640344854
14.209201190203707
19.287403677424276
18.21316853589685
24.17029068436713
28.564888990615703
34.22903791866941
39.600213626306555
38.42832074464027
44.38544289311055
48.78004119935912
47.80346379797055
53.760585946440834
58.1551842526894
60.8896009765774
64.11230640115969
63.33104448004883
66.3584344243534
68.50690470740825
68.99519340810254
69.77645532921339
69.58113984893568
67.7256427862974
66.16311894407569
66.55374990463112
63.526359960326545
61.28023193713283
57.95986877241169
54.932478828107115
55.51842526894026
51.61211566338598
48.584725719081405
49.26832990005341
44.28778515297169
40.57679102769512
38.525978484779124
36.182192721446555
36.67048142214084
33.64309147783627
31.494621194781413
31.9829098954757
29.9320973525597
28.467231250476843
26.807049668116274
25.24452582589456
25.63515678644999
23.58434424353399
22.119478141451133
22.510109102006563
20.45929655909056
18.994430457007706
16.45532921339742
14.11154345006485
14.697489890897993
11.670099946593423
9.42397192339971
9.912260624093996
6.982528419928283
4.736400396734569
2.392614633401999
0.04882887006942855
0.537117570763714
-1.3183794918745708
-2.783245593957427
-2.490272373540856
-2.5879301136797133
-2.490272373540856
-2.490272373540856
-2.490272373540856
-2.490272373540856
-1.6113527122911422
-0.8300907911802854
-1.0254062714579995
0.8300907911802854
2.2949568932631417
3.8574807354848555
5.420004577706569
5.127031357289998
9.033340962844282
11.963073167009995
11.279468986037996
16.260013733119706
19.87335011825742
25.732814526588847
31.103990234225986
29.9320973525597
37.84237430380713
43.70183871213855
42.33463035019455
49.26832990005341
54.44419012741283
59.91302357518883
65.38185702296482
64.20996414129854
68.21393148699168
71.1436636911574
70.4600595101854
73.3897917143511
75.63591973754482
75.04997329671168
75.14763103685054
75.14763103685054
73.19447623407339
71.72961013199054
72.02258335240711
69.9717708094911
68.50690470740825
64.01464866102083
60.2059967956054
61.08491645685512
56.1043717097734
52.39337758449683
53.17463950560769
47.21751735713741
42.822919050888835
37.15877012283513
31.68993667505913
32.86182955672541
25.92813000686656
20.752269779507134
21.92416266117342
14.013885709925994
8.154421301594567
3.662165255207141
-0.9277485313191425
0.04882887006942855
-4.931715877012284
-8.545052262149996
-7.763790341039139
-12.74433508812085
-16.357671473258563
-18.40848401617456
-20.84992751964599
-20.263981078812847
-23.291371023117417
-25.439841306172273
-24.95155260547799
-27.002365148393988
-28.369573510337986
-30.029755092698558
-31.494621194781413
-31.201647974364842
-34.131380178530556
-36.27985046158541
-35.79156176089113
-40.67444876783398
-44.38544289311055
-51.123826962691695
-57.27626459143969
-55.90905622949569
-62.84275577935454
-67.92095826657511
-66.84672312504769
-69.87411306935225
-72.02258335240711
-71.53429465171283
-71.63195239185168
-71.53429465171283
-68.70222018768597
-66.45609216449226
-66.94438086518655
-61.08491645685512
-56.59266041046769
-50.928511482413974
-45.45967803463798
-46.63157091630426
-42.529945830472265
-39.600213626306555
-40.28381780727855
-37.256427862973986
-35.010299839780274
-33.64309147783627
-31.9829098954757
-32.37354085603113
-29.346150911726557
-27.1976806286717
-27.68596932936599
-24.65857938506142
-22.412451361867703
-19.092088197146563
-16.064698252841993
-16.748302433813993
-11.767757686732281
-8.05676356145571
-8.935683222705425
-3.9551384756237127
-0.24414435034714274
4.541084916456855
9.130998702983138
8.154421301594567
12.158388647287708
15.088120851453422
14.404516670481422
17.43190661478599
19.678034637979707
19.092088197146563
19.287403677424276
19.18974593728542
18.21316853589685
17.52956435492485
17.627222095063708
13.81857022964828
10.79118028534371
7.666132600900283
4.541084916456855
5.224689097428855
1.3183794918745708
-1.6113527122911422
-0.9277485313191425
-5.810635538261997
-9.521629663538567
-12.549019607843137
-15.674067292286564
-14.990463111314565
-17.920195315480278
-20.16632333867399
-19.678034637979707
-22.60776684214542
-24.853894865339132
-27.1976806286717
-29.541466392004274
-28.95551995117113
-31.00633249408713
-32.471198596169984
-32.08056763561456
-34.131380178530556
-35.596246280613414
-38.03768978408484
-40.38147554741741
-39.79552910658427
-41.84634164950027
-43.311207751583126
-42.92057679102769
-44.97138933394369
-46.33859769588769
-47.998779278248264
-49.46364538033112
-49.17067215991455
-51.123826962691695
-52.588693064774546
-52.19806210421912
-54.15121690699626
-55.61608300907912
-56.20202944991226
-57.08094911116198
-56.88563363088426
-57.86221103227283
-58.54581521324483
-58.350499732967116
-57.37392233157855
-56.690318150606544
-55.81139848935683
-55.03013656824598
-55.22545204852369
-51.31914244296941
-48.38941023880369
-48.97535667963683
-44.97138933394369
-42.04165712977798
-37.94003204394598
-34.0337224383917
-34.91264209964141
-28.95551995117113
-24.560921644922562
-25.537499046311133
-19.58037689784085
-15.185778591592278
-11.377126726176853
-7.373159380483711
-8.252079041733426
-2.392614633401999
1.9043259327077133
0.9277485313191425
6.005951018539712
9.619287403677424
13.623254749370565
17.43190661478599
16.55298695353628
21.533531700617992
25.24452582589456
24.365606164644845
28.369573510337986
31.2993057145037
32.56885633630884
34.131380178530556
33.838406958113985
34.81498435950255
35.49858854047456
35.4009308003357
34.424353398947126
33.64309147783627
31.885252155336843
30.420386053253985
30.71335927367056
26.807049668116274
23.87731746395056
24.4632639047837
21.533531700617992
19.287403677424276
15.967040512703136
12.84199282825971
13.525597009231708
9.619287403677424
6.591897459372854
7.275501640344854
3.2715342946517127
0.34180209048599985
-2.68558785381857
-5.810635538261997
-5.127031357289998
-9.033340962844282
-12.060730907148852
-11.377126726176853
-14.404516670481422
-16.55298695353628
-18.89677271686885
-21.24055848020142
-20.752269779507134
-23.682001983672848
-25.92813000686656
-25.439841306172273
-27.392996108949415
-28.857862211032273
-31.396963454642556
-33.64309147783627
-33.15480277714199
-35.20561532005799
-36.67048142214084
-36.27985046158541
-38.23300526436255
-39.69787136644541
-40.28381780727855
-41.16273746852827
-40.96742198825055
-42.92057679102769
-44.38544289311055
-43.99481193255512
-44.09246967269398
-43.99481193255512
-43.018234531166556
-42.33463035019455
-42.43228809033341
-38.62363622491798
-35.596246280613414
-36.27985046158541
-34.22903791866941
-32.764171816586554
-32.08056763561456
-31.2993057145037
-31.396963454642556
-27.588311589227132
-24.560921644922562
-25.24452582589456
-16.45532921339742
-9.81460288395514
-0.8300907911802854
7.568474860761425
5.71297779812314
19.48271915770199
29.736781872281988
27.49065384908827
42.33463035019455
53.27229724574655
63.233386739909974
73.3897917143511
71.1436636911574
77.39375906004425
81.69069962615396
80.71412222476539
82.7649347676814
84.22980086976425
84.81574731059739
85.59700923170824
85.40169375143053
84.42511635004196
83.6438544289311
83.83916990920882
81.78835736629281
80.32349126420996
78.76096742198825
77.10078583962768
77.4914168001831
74.46402685587854
72.21789883268482
72.70618753337911
69.77645532921339
67.53032730601969
64.11230640115969
61.08491645685512
61.768520637827116
58.643472953383686
56.49500267032883
56.983291371023114
52.002746623941405
48.291752498664835
44.38544289311055
40.479133287556266
41.358052948805984
36.37750820172427
32.6665140764477
33.44777599755856
28.467231250476843
24.853894865339132
19.87335011825742
15.283436331731137
16.260013733119706
12.256046387426567
9.326314183260854
9.912260624093996
5.0293736171511405
1.3183794918745708
-0.6347753109025711
-2.9785610742351416
-2.490272373540856
-5.420004577706569
-7.666132600900283
-7.177843900205997
-10.10757610437171
-12.353704127565424
-14.697489890897993
-17.041275654230564
-16.55298695353628
-18.506141756313422
-19.971007858396277
-19.678034637979707
-20.654612039368278
-21.43587396047913
-21.24055848020142
-21.24055848020142
-21.24055848020142
-18.40848401617456
-16.16235599298085
-16.650644693675137
-11.767757686732281
-8.05676356145571
-1.2207217517357138
4.834058136873426
3.466849774929427
13.232623788815136
20.654612039368278
18.994430457007706
28.857862211032273
36.182192721446555
46.04562447547112
55.32310978866255
53.17463950560769
65.08888380254825
73.87808041504539
71.92492561226825
83.83916990920882
92.62836652170596
100.14801251239795
107.96063172350652
106.2027924010071
113.2341496910048
118.31235217822538
117.14045929655909
120.16784924086366
122.31631952391852
121.82803082322422
121.92568856336308
121.82803082322422
118.89829861905852
116.6521705958648
117.14045929655909
112.25757228961623
108.44892042420081
102.58945601586939
97.21828030823224
98.29251544975968
90.38223849851225
84.52277409018082
85.79232471198596
77.78439002059967
71.92492561226825
65.57717250324254
59.32707713435569
60.694285496299685
52.6863508049134
46.826886396581976
48.09643701838712
40.186160067139696
34.32669565880827
28.857862211032273
23.389028763256274
24.65857938506142
17.627222095063708
12.549019607843137
13.623254749370565
6.6895551995117115
1.513694972152285
-4.834058136873426
-10.986495765621424
-9.619287403677424
-16.650644693675137
-21.728847180895706
-20.654612039368278
-26.61173418783856
-31.00633249408713
-34.717326619363696
-38.72129396505684
-37.84237430380713
-41.84634164950027
-44.67841611352712
-44.09246967269398
-48.97535667963683
-52.588693064774546
-55.61608300907912
-58.74113069352254
-58.057526512550545
-60.987258716716255
-63.233386739909974
-62.64744029907683
-65.6748302433814
-67.82330052643626
-69.19050888838025
-70.75303273060197
-70.4600595101854
-69.48348210879682
-68.70222018768597
-68.89753566796368
-65.96780346379796
-63.72167544060426
-59.42473487449455
-55.61608300907912
-56.39734493018997
-49.56130312046998
-44.38544289311055
-45.45967803463798
-36.67048142214084
-30.029755092698558
-23.779659723811704
-17.52956435492485
-18.89677271686885
-10.986495765621424
-5.127031357289998
-6.39658197909514
1.416037232013428
7.275501640344854
13.623254749370565
19.87335011825742
18.506141756313422
24.4632639047837
28.857862211032273
27.881284809643702
31.00633249408713
33.15480277714199
29.834439612420844
27.68596932936599
28.076600289921416
24.17029068436713
21.24055848020142
21.92416266117342
17.920195315480278
14.990463111314565
12.74433508812085
10.400549324788281
10.888838025482567
8.838025482566568
7.373159380483711
7.763790341039139
7.666132600900283
7.666132600900283
7.666132600900283
7.666132600900283
7.666132600900283
4.834058136873426
2.5879301136797133
3.076218814373999
-2.68558785381857
-7.080186160067139
-10.888838025482567
-14.795147631036851
-13.916227969787137
-19.87335011825742
-24.267948424505988
-23.291371023117417
-29.2484931715877
-33.64309147783627
-39.307240405889985
-44.67841611352712
-43.50652323186084
-49.46364538033112
-53.85824368657969
-52.881666285191116
-58.8387884336614
-63.233386739909974
-66.94438086518655
-70.85069047074083
-69.9717708094911
-72.02258335240711
-73.48744945448996
-73.09681849393453
-74.17105363546197
-74.85465781643397
-75.63591973754482
-76.31952391851682
-76.12420843823911
-77.10078583962768
-77.88204776073853
-77.68673228046082
-78.6633096818494
-79.3469138628214
-80.12817578393225
-80.81177996490425
-80.61646448462653
-79.73754482337682
-78.95628290226597
-79.05394064240483
-76.12420843823911
-73.87808041504539
-68.70222018768597
-64.11230640115969
-65.08888380254825
-57.178606851300835
-51.31914244296941
-52.588693064774546
-42.72526131074998
-35.303273060196844
-28.369573510337986
-21.338216220340275
-22.90074006256199
-14.892805371175708
-9.033340962844282
-10.302891584649425
-3.36919203479057
1.7090104524299992
6.298924238956283
10.986495765621424
9.912260624093996
14.013885709925994
16.943617914091707
16.260013733119706
18.310826276035705
19.775692378118563
19.385061417563133
19.48271915770199
19.48271915770199
18.506141756313422
17.724879835202564
17.920195315480278
14.990463111314565
12.74433508812085
9.42397192339971
6.39658197909514
7.080186160067139
4.052796215762569
1.8066681925688564
2.2949568932631417
-1.513694972152285
-4.443427176317998
-6.6895551995117115
-9.033340962844282
-8.44739452201114
-11.47478446631571
-13.623254749370565
-13.13496604867628
-15.185778591592278
-16.650644693675137
-20.16632333867399
-23.19371328297856
-22.510109102006563
-25.537499046311133
-27.68596932936599
-27.1976806286717
-31.103990234225986
-34.0337224383917
-37.15877012283513
-40.28381780727855
-39.600213626306555
-43.50652323186084
-46.43625543602655
-45.85030899519341
-49.75661860074769
-52.6863508049134
-56.7879758907454
-60.59662775616083
-59.71770809491112
-64.69825284199283
-68.31158922713054
-67.53032730601969
-71.43663691157397
-74.36636911573969
-78.46799420157168
-82.27664606698711
-81.39772640573739
-84.42511635004196
-86.67124437323568
-86.08529793240254
-87.15953307392996
-87.84313725490196
-85.79232471198596
-84.22980086976425
-84.52277409018082
-79.73754482337682
-75.9288929579614
-76.8078126192111
-69.87411306935225
-64.69825284199283
-56.29968719005112
-48.584725719081405
-50.24490730144198
-40.28381780727855
-32.95948729686427
-34.61966887922484
-23.682001983672848
-15.674067292286564
-6.884870679789426
1.513694972152285
-0.24414435034714274
8.642710002288853
15.283436331731137
13.81857022964828
22.705424582284277
29.346150911726557
35.49858854047456
41.74868390936141
40.28381780727855
45.362020294499125
48.97535667963683
48.19409475852598
52.19806210421912
55.127794308384836
56.29968719005112
57.95986877241169
57.56923781185626
57.66689555199512
57.56923781185626
57.56923781185626
55.61608300907912
54.15121690699626
51.61211566338598
49.26832990005341
49.75661860074769
46.72922865644312
44.580758373388264
45.069047074082555
40.08850232700084
36.475165941863125
32.471198596169984
28.564888990615703
29.443808651865414
24.4632639047837
20.752269779507134
21.533531700617992
13.720912489509422
7.861448081177996
-1.2207217517357138
-9.71694514381628
-7.861448081177996
-16.84596017395285
-23.389028763256274
-21.92416266117342
-27.002365148393988
-30.71335927367056
-30.811017013809415
-31.68993667505913
-31.494621194781413
-28.66254673075456
-26.416418707560844
-26.90470740825513
-21.045242999923705
-16.650644693675137
-11.865415426871138
-7.177843900205997
-8.252079041733426
-6.103608758678568
-4.638742656595713
-5.0293736171511405
-6.787212939650568
-8.349736781872283
-10.888838025482567
-13.13496604867628
-12.646677347981994
-14.599832150759136
-16.064698252841993
-15.771725032425422
-17.724879835202564
-19.18974593728542
-18.89677271686885
-18.994430457007706
-18.89677271686885
-18.017853055619135
-17.236591134508277
-17.334248874647134
-13.525597009231708
-10.595864805065995
-6.39658197909514
-2.5879301136797133
-3.466849774929427
3.36919203479057
8.545052262149996
7.373159380483711
14.306858930342566
19.385061417563133
24.95155260547799
30.420386053253985
29.150835431448844
35.20561532005799
39.600213626306555
38.525978484779124
44.48310063324941
48.877698939497975
52.6863508049134
56.59266041046769
55.713740749217976
59.71770809491112
62.64744029907683
61.96383611810483
64.89356832227054
67.13969634546426
70.36240177004655
73.48744945448996
72.70618753337911
74.75700007629511
76.22186617837797
75.83123521782254
76.90547035934996
77.58907454032196
76.41718165865568
75.73357747768368
75.83123521782254
73.87808041504539
72.41321431296254
72.70618753337911
68.79987792782482
65.77248798352025
62.64744029907683
59.42473487449455
60.108339055466544
55.22545204852369
51.51445792324712
52.295719844357976
47.31517509727627
43.604180971999696
41.5533684290837
39.11192492561227
39.69787136644541
35.69390402075227
32.764171816586554
33.44777599755856
30.420386053253985
28.174258030060273
25.830472266727703
23.48668650339513
23.974975204089418
20.068665598535134
17.041275654230564
17.724879835202564
14.697489890897993
12.549019607843137
9.228656443121995
6.103608758678568
6.787212939650568
3.7598229953459983
1.6113527122911422
2.0996414129854277
-0.8300907911802854
-2.9785610742351416
-5.420004577706569
-7.763790341039139
-7.177843900205997
-8.252079041733426
-9.033340962844282
-8.838025482566568
-10.79118028534371
-12.256046387426567
-11.865415426871138
-11.963073167009995
-11.963073167009995
-9.130998702983138
-6.884870679789426
-7.373159380483711
-3.466849774929427
-0.43945983062485694
4.541084916456855
9.130998702983138
8.05676356145571
15.967040512703136
21.826504921034562
20.45929655909056
27.49065384908827
32.56885633630884
38.1353475242237
43.604180971999696
42.33463035019455
47.412832837415124
51.02616922255284
50.14724956130312
53.17463950560769
55.420767528801406
55.81139848935683
56.690318150606544
56.49500267032883
55.51842526894026
54.7371633478294
54.932478828107115
52.97932402532997
51.416800183108265
48.877698939497975
46.533913176165406
47.11985961699855
43.11589227130541
40.186160067139696
40.772106507972836
35.889219501029984
32.178225375753414
27.295338368810558
22.60776684214542
23.682001983672848
18.60379949645228
14.990463111314565
15.771725032425422
11.767757686732281
8.838025482566568
4.736400396734569
0.8300907911802854
1.7090104524299992
-3.1738765545128556
-6.787212939650568
-6.005951018539712
-10.986495765621424
-14.599832150759136
-18.60379949645228
-22.510109102006563
-21.63118944075685
-26.514076447699704
-30.22507057297627
-29.346150911726557
-35.303273060196844
-39.69787136644541
-44.38544289311055
-49.073014419775696
-47.998779278248264
-53.95590142671855
-58.350499732967116
-57.37392233157855
-62.35446707866026
-65.96780346379796
-69.9717708094911
-73.78042267490653
-72.90150301365682
-76.90547035934996
-79.83520256351568
-79.15159838254368
-84.03448538948653
-87.64782177462425
-93.50728618295567
-98.87846189059282
-97.60891126878766
-103.56603341725796
-107.96063172350652
-106.98405432211796
-108.05828946364538
-108.74189364461738
-106.69108110170139
-105.12855725947966
-105.42153047989623
-99.65972381170367
-95.16746776531625
-96.14404516670481
-85.40169375143053
-77.19844357976653
-68.50690470740825
-59.91302357518883
-61.768520637827116
-50.83085374227512
-42.72526131074998
-44.48310063324941
-36.475165941863125
-30.615701533531702
-23.291371023117417
-16.357671473258563
-17.920195315480278
-8.935683222705425
-2.2949568932631417
-3.7598229953459983
3.076218814373999
8.252079041733426
12.84199282825971
17.52956435492485
16.45532921339742
21.43587396047913
25.146868085755703
24.267948424505988
27.392996108949415
29.541466392004274
30.908674753948272
32.56885633630884
32.178225375753414
34.131380178530556
35.596246280613414
35.303273060196844
36.27985046158541
36.96345464255741
36.86579690241855
36.86579690241855
36.86579690241855
35.889219501029984
35.10795757991913
35.303273060196844
34.22903791866941
33.545433737697415
31.787594415197987
30.22507057297627
30.518043793392845
27.588311589227132
25.342183566033416
25.830472266727703
22.90074006256199
20.654612039368278
17.334248874647134
14.209201190203707
14.892805371175708
10.986495765621424
8.05676356145571
8.642710002288853
3.7598229953459983
0.04882887006942855
-2.8809033340962844
-6.005951018539712
-5.322346837567712
-9.228656443121995
-12.158388647287708
-11.572442206454566
-15.47875181200885
-18.40848401617456
-22.510109102006563
-26.416418707560844
-25.537499046311133
-29.541466392004274
-32.471198596169984
-31.787594415197987
-36.67048142214084
-40.38147554741741
-45.26436255436027
-49.85427634088655
-48.877698939497975
-52.881666285191116
-55.81139848935683
-55.127794308384836
-58.057526512550545
-60.30365453574426
-61.67086289768826
-63.233386739909974
-62.84275577935454
-61.96383611810483
-61.182574196993976
-61.37788967727169
-58.44815747310597
-56.20202944991226
-51.90508888380255
-48.09643701838712
-48.877698939497975
-42.04165712977798
-36.86579690241855
-37.94003204394598
-30.029755092698558
-24.17029068436713
-15.967040512703136
-8.252079041733426
-9.912260624093996
-0.9277485313191425
5.517662317845426
4.052796215762569
13.916227969787137
21.338216220340275
28.27191577019913
35.303273060196844
33.74074921797513
41.74868390936141
47.51049057755398
46.240939955748836
53.17463950560769
58.350499732967116
62.84275577935454
67.53032730601969
66.45609216449226
70.55771725032426
73.3897917143511
72.80384527351796
73.87808041504539
74.5616845960174
74.36636911573969
74.36636911573969
74.36636911573969
72.41321431296254
70.85069047074083
71.1436636911574
69.19050888838025
67.7256427862974
64.20996414129854
61.08491645685512
61.768520637827116
57.764553292133975
54.83482108796826
55.420767528801406
51.51445792324712
48.48706797894255
44.38544289311055
40.479133287556266
41.358052948805984
35.4009308003357
31.00633249408713
31.9829098954757
26.025787747005417
21.63118944075685
15.869382772564279
10.498207064927138
11.670099946593423
4.736400396734569
-0.34180209048599985
0.7324330510414282
-6.103608758678568
-11.279468986037996
-16.748302433813993
-22.21713588158999
-21.045242999923705
-26.025787747005417
-29.736781872281988
-28.857862211032273
-31.885252155336843
-34.131380178530556
-36.475165941863125
-38.818951705195694
-38.23300526436255
-40.28381780727855
-41.74868390936141
-41.358052948805984
-41.45571068894484
-41.358052948805984
-41.358052948805984
-41.358052948805984
-41.358052948805984
-41.358052948805984
-41.358052948805984
-41.358052948805984
-39.40489814602884
-37.94003204394598
-34.424353398947126
-31.396963454642556
-31.9829098954757
-27.100022888532845
-23.389028763256274
-24.17029068436713
-19.287403677424276
-15.576409552147707
-14.50217441062028
-12.84199282825971
-13.13496604867628
-8.349736781872283
-4.638742656595713
-5.420004577706569
1.3183794918745708
6.494239719233997
15.869382772564279
24.267948424505988
22.412451361867703
34.22903791866941
43.018234531166556
41.065079728389414
53.95590142671855
63.42870222018769
70.85069047074083
78.76096742198825
77.00312809948882
80.2258335240711
82.27664606698711
81.78835736629281
79.93286030365454
78.46799420157168
73.97573815518425
70.16708628976883
70.94834821087969
64.11230640115969
58.936446173800256
60.01068131532769
53.07698176546884
47.90112153810941
41.45571068894484
35.20561532005799
36.57282368200198
30.518043793392845
26.123445487144274
27.100022888532845
22.119478141451133
18.40848401617456
15.381094071869994
12.256046387426567
12.939650568398566
9.033340962844282
6.005951018539712
6.6895551995117115
3.662165255207141
1.513694972152285
0.04882887006942855
-1.416037232013428
-1.0254062714579995
-4.931715877012284
-7.959105821316854
-7.275501640344854
-10.302891584649425
-12.45136186770428
-14.795147631036851
-17.13893339436942
-16.650644693675137
-19.58037689784085
-21.826504921034562
-21.338216220340275
-23.291371023117417
-24.756237125200276
-25.439841306172273
-26.22110322728313
-26.025787747005417
-26.025787747005417
-26.025787747005417
-26.025787747005417
-26.025787747005417
-26.025787747005417
-24.072632944228275
-22.60776684214542
-22.90074006256199
-20.947585259784848
-19.48271915770199
-19.775692378118563
-17.82253757534142
-16.357671473258563
-12.84199282825971
-9.81460288395514
-10.400549324788281
-5.517662317845426
-1.8066681925688564
-2.68558785381857
4.150453955901427
9.228656443121995
17.627222095063708
25.342183566033416
23.58434424353399
35.49858854047456
44.28778515297169
42.33463035019455
55.127794308384836
64.69825284199283
74.95231555657283
85.0110627908751
82.7649347676814
92.82368200198367
100.0503547722591
98.39017318989853
104.44495307850767
108.83955138475623
109.71847104600594
111.37865262836652
110.9880216678111
108.15594720378424
105.90981918059052
106.30045014114596
102.39414053559167
99.3667505912871
93.31197070267795
87.94079499504082
89.1126878767071
80.2258335240711
73.58510719462882
75.04997329671168
67.0420386053254
61.182574196993976
54.83482108796826
48.584725719081405
49.951934081025406
43.89715419241627
39.5025558861677
40.479133287556266
33.545433737697415
28.369573510337986
23.779659723811704
19.092088197146563
20.068665598535134
14.11154345006485
9.71694514381628
10.693522545204852
5.71297779812314
2.0019836728465705
-1.8066681925688564
-5.71297779812314
-4.834058136873426
-8.838025482566568
-11.767757686732281
-11.08415350576028
-15.088120851453422
-18.017853055619135
-21.14290074006256
-24.267948424505988
-23.58434424353399
-27.588311589227132
-30.518043793392845
-29.834439612420844
-33.74074921797513
-36.67048142214084
-39.893186846723125
-42.92057679102769
-42.236972610055695
-46.240939955748836
-49.17067215991455
-48.48706797894255
-52.39337758449683
-55.32310978866255
-56.59266041046769
-58.1551842526894
-57.764553292133975
-58.8387884336614
-59.522392614633404
-59.32707713435569
-57.471580071717405
-55.90905622949569
-52.39337758449683
-49.365987640192266
-50.04959182116426
-43.21355001144427
-38.03768978408484
-39.11192492561227
-30.322728313115128
-23.682001983672848
-16.55298695353628
-9.521629663538567
-11.08415350576028
-2.0996414129854277
4.345769436179141
2.8809033340962844
10.888838025482567
16.748302433813993
21.14290074006256
25.92813000686656
24.853894865339132
28.857862211032273
31.787594415197987
31.103990234225986
34.131380178530556
36.27985046158541
36.768139162279695
37.64705882352941
37.4517433432517
37.4517433432517
37.4517433432517
37.4517433432517
32.6665140764477
28.857862211032273
21.14290074006256
14.209201190203707
15.771725032425422
4.931715877012284
-3.076218814373999
-1.2207217517357138
-10.302891584649425
-16.84596017395285
-21.14290074006256
-25.92813000686656
-24.853894865339132
-27.881284809643702
-30.029755092698558
-29.541466392004274
-30.615701533531702
-31.2993057145037
-31.201647974364842
-31.201647974364842
-31.201647974364842
-33.05714503700313
-34.52201113908598
-34.22903791866941
-38.1353475242237
-41.065079728389414
-44.19012741283284
-47.31517509727627
-46.533913176165406
-50.53788052185855
-53.467612726024264
-52.78400854505226
-56.690318150606544
-59.62005035477226
-61.86617837796597
-64.20996414129854
-63.6240177004654
-65.6748302433814
-67.13969634546426
-66.74906538490883
-67.7256427862974
-68.50690470740825
-68.31158922713054
-68.31158922713054
-68.31158922713054
-68.21393148699168
-68.21393148699168
-68.21393148699168
-67.23735408560312
-66.45609216449226
-65.6748302433814
-64.89356832227054
-64.9912260624094
-64.01464866102083
-63.233386739909974
-63.42870222018769
-61.37788967727169
-59.91302357518883
-57.37392233157855
-55.03013656824598
-55.51842526894026
-51.61211566338598
-48.584725719081405
-49.26832990005341
-44.28778515297169
-40.67444876783398
-36.67048142214084
-32.764171816586554
-33.64309147783627
-28.66254673075456
-24.95155260547799
-25.732814526588847
-22.705424582284277
-20.55695429922942
-18.11551079575799
-15.771725032425422
-16.357671473258563
-15.283436331731137
-14.50217441062028
-14.697489890897993
-13.720912489509422
-12.939650568398566
-14.013885709925994
-14.795147631036851
-14.599832150759136
-16.55298695353628
-18.017853055619135
-17.627222095063708
-19.678034637979707
-21.14290074006256
-24.560921644922562
-27.588311589227132
-26.90470740825513
-28.95551995117113
-30.420386053253985
-30.127412832837415
-33.05714503700313
-35.20561532005799
-36.67048142214084
-38.23300526436255
-37.84237430380713
-38.91660944533455
-39.600213626306555
-39.40489814602884
-41.358052948805984
-42.822919050888835
-43.40886549172198
-44.19012741283284
-43.99481193255512
-44.97138933394369
-45.75265125505455
-45.55733577477684
-46.533913176165406
-47.21751735713741
-47.11985961699855
-47.11985961699855
-47.11985961699855
-46.14328221560998
-45.362020294499125
-45.45967803463798
-42.62760357061112
-40.38147554741741
-38.91660944533455
-37.35408560311284
-37.64705882352941
-34.717326619363696
-32.471198596169984
-32.95948729686427
-30.029755092698558
-27.783627069504846
-27.295338368810558
-26.416418707560844
-26.61173418783856
-26.61173418783856
-26.61173418783856
-26.514076447699704
-26.514076447699704
-26.514076447699704
-28.467231250476843
-29.9320973525597
-29.541466392004274
-30.615701533531702
-31.2993057145037
-31.103990234225986
-30.22507057297627
-29.443808651865414
-26.709391927977418
-24.4632639047837
-24.95155260547799
-20.068665598535134
-16.357671473258563
-17.236591134508277
-9.326314183260854
-3.466849774929427
2.783245593957427
9.033340962844282
7.568474860761425
14.599832150759136
19.678034637979707
18.60379949645228
26.416418707560844
32.37354085603113
35.79156176089113
39.79552910658427
38.91660944533455
43.79949645227741
47.51049057755398
46.63157091630426
50.635538261997404
53.56527046616312
56.690318150606544
59.815365835049974
59.13176165407798
62.061493858243686
64.3076218814374
63.72167544060426
66.74906538490883
68.89753566796368
70.26474402990769
71.8272678721294
71.53429465171283
72.5108720531014
73.19447623407339
72.99916075379568
72.99916075379568
72.99916075379568
72.02258335240711
71.24132143129626
71.43663691157397
68.50690470740825
66.26077668421455
66.74906538490883
64.69825284199283
63.233386739909974
60.59662775616083
58.350499732967116
58.8387884336614
56.7879758907454
55.32310978866255
55.61608300907912
49.75661860074769
45.362020294499125
38.62363622491798
32.471198596169984
33.838406958113985
24.95155260547799
18.310826276035705
19.775692378118563
13.720912489509422
9.326314183260854
7.470817120622568
5.0293736171511405
5.517662317845426
6.39658197909514
7.177843900205997
6.982528419928283
9.81460288395514
12.060730907148852
13.525597009231708
15.088120851453422
14.697489890897993
12.84199282825971
11.377126726176853
11.670099946593423
6.884870679789426
3.1738765545128556
0.14648661020828566
-2.8809033340962844
-2.197299153124285
-4.248111696040284
-5.71297779812314
-5.420004577706569
-6.39658197909514
-7.177843900205997
-6.005951018539712
-5.322346837567712
-5.420004577706569
-2.5879301136797133
-0.34180209048599985
-0.8300907911802854
3.9551384756237127
7.666132600900283
13.525597009231708
18.89677271686885
17.724879835202564
25.537499046311133
31.494621194781413
30.127412832837415
38.03768978408484
43.89715419241627
49.26832990005341
54.7371633478294
53.467612726024264
58.54581521324483
62.15915159838254
61.37788967727169
65.28419928282597
68.21393148699168
69.48348210879682
71.04600595101854
70.65537499046312
72.70618753337911
74.07339589532312
73.78042267490653
74.75700007629511
75.44060425726711
75.2452887769894
75.2452887769894
75.2452887769894
73.29213397421225
71.8272678721294
72.12024109254597
69.19050888838025
66.94438086518655
62.64744029907683
58.74113069352254
59.62005035477226
53.66292820630198
49.26832990005341
50.24490730144198
43.311207751583126
38.1353475242237
31.592278934920273
25.439841306172273
26.807049668116274
19.775692378118563
14.697489890897993
15.771725032425422
9.81460288395514
5.420004577706569
0.6347753109025711
-3.9551384756237127
-2.8809033340962844
-6.884870679789426
-9.81460288395514
-9.228656443121995
-13.13496604867628
-16.064698252841993
-19.287403677424276
-22.314793621728846
-21.63118944075685
-25.63515678644999
-28.564888990615703
-27.881284809643702
-31.885252155336843
-34.81498435950255
-37.94003204394598
-41.065079728389414
-40.28381780727855
-46.240939955748836
-50.635538261997404
-49.56130312046998
-54.54184786755169
-58.25284199282826
-62.15915159838254
-66.06546120393683
-65.18654154268711
-68.21393148699168
-70.36240177004655
-69.87411306935225
-69.9717708094911
-69.87411306935225
-67.0420386053254
-64.79591058213168
-65.18654154268711
-58.44815747310597
-53.27229724574655
-54.346532387273975
-46.43625543602655
-40.57679102769512
-33.252460517280845
-26.22110322728313
-27.783627069504846
-17.920195315480278
-10.595864805065995
-12.158388647287708
-4.150453955901427
1.6113527122911422
7.959105821316854
14.11154345006485
12.74433508812085
18.799114976729992
23.19371328297856
22.21713588158999
26.22110322728313
29.150835431448844
31.2993057145037
33.74074921797513
33.15480277714199
34.22903791866941
34.91264209964141
34.717326619363696
34.81498435950255
34.717326619363696
33.838406958113985
33.05714503700313
33.15480277714199
31.201647974364842
29.736781872281988
30.029755092698558
27.100022888532845
24.95155260547799
20.654612039368278
16.748302433813993
17.627222095063708
11.670099946593423
7.275501640344854
8.252079041733426
1.416037232013428
-3.662165255207141
-9.228656443121995
-14.697489890897993
-13.427939269092851
-20.361638818951704
-25.537499046311133
-24.365606164644845
-29.443808651865414
-33.05714503700313
-36.0845349813077
-39.20958266575113
-38.42832074464027
-40.479133287556266
-41.943999389639124
-41.651026169222554
-42.62760357061112
-43.311207751583126
-44.09246967269398
-44.873731593804834
-44.67841611352712
-45.654993514915695
-46.43625543602655
-46.240939955748836
-48.19409475852598
-49.658960860608836
-51.22148470283055
-52.6863508049134
-52.39337758449683
-54.346532387273975
-55.81139848935683
-55.420767528801406
-60.30365453574426
-63.91699092088197
-70.75303273060197
-76.8078126192111
-75.44060425726711
-81.49538414587624
-85.79232471198596
-84.81574731059739
-86.96421759365225
-88.33142595559625
-85.10872053101396
-82.96025024795911
-83.35088120851454
-76.61249713893339
-71.33897917143511
-72.5108720531014
-60.79194323643854
-51.90508888380255
-42.43228809033341
-33.05714503700313
-35.10795757991913
-26.025787747005417
-19.48271915770199
-20.947585259784848
-16.748302433813993
-13.81857022964828
-10.693522545204852
