ppg
-48.19409475852598
-49.073014419775696
-44.97138933394369
-42.04165712977798
-41.74868390936141
-40.86976424811169
-41.065079728389414
-41.943999389639124
-42.72526131074998
-42.529945830472265
-43.50652323186084
-44.19012741283284
-44.97138933394369
-45.75265125505455
-45.55733577477684
-45.55733577477684
-45.55733577477684
-45.55733577477684
-45.55733577477684
-45.55733577477684
-43.604180971999696
-42.04165712977798
-42.43228809033341
-37.549401083390556
-33.838406958113985
-34.61966887922484
-27.783627069504846
-22.60776684214542
-15.185778591592278
-8.252079041733426
-9.71694514381628
1.0254062714579995
9.130998702983138
7.275501640344854
18.21316853589685
26.22110322728313
34.0337224383917
41.84634164950027
40.08850232700084
47.11985961699855
52.19806210421912
51.02616922255284
57.08094911116198
61.37788967727169
63.33104448004883
65.6748302433814
65.18654154268711
67.13969634546426
68.60456244754711
68.21393148699168
69.28816662851911
69.9717708094911
70.75303273060197
71.53429465171283
71.33897917143511
70.36240177004655
69.58113984893568
69.67879758907453
68.70222018768597
67.92095826657511
66.16311894407569
64.60059510185397
64.9912260624094
61.08491645685512
58.057526512550545
58.74113069352254
53.760585946440834
50.04959182116426
46.14328221560998
42.236972610055695
43.018234531166556
37.15877012283513
32.6665140764477
33.64309147783627
28.66254673075456
24.95155260547799
22.021820401312276
18.799114976729992
19.48271915770199
15.576409552147707
12.549019607843137
13.232623788815136
10.205233844510566
8.05676356145571
5.615320057984283
3.2715342946517127
3.8574807354848555
0.8300907911802854
-1.2207217517357138
-0.7324330510414282
-3.7598229953459983
-5.908293278400855
-8.349736781872283
-10.693522545204852
-10.10757610437171
-13.13496604867628
-15.283436331731137
-14.795147631036851
-17.82253757534142
-19.971007858396277
-23.291371023117417
-26.416418707560844
-25.63515678644999
-28.66254673075456
-30.908674753948272
-30.322728313115128
-32.37354085603113
-33.838406958113985
-35.4009308003357
-36.96345464255741
-36.57282368200198
-38.525978484779124
-39.99084458686198
-39.69787136644541
-41.651026169222554
-43.11589227130541
-43.70183871213855
-44.48310063324941
-44.28778515297169
-46.240939955748836
-47.705806057831694
-47.412832837415124
-48.38941023880369
-49.073014419775696
-50.83085374227512
-52.39337758449683
-52.002746623941405
-52.97932402532997
-53.760585946440834
-53.56527046616312
-54.54184786755169
-55.22545204852369
-56.006713969634546
-56.7879758907454
-56.59266041046769
-57.56923781185626
-58.25284199282826
-58.057526512550545
-57.178606851300835
-56.39734493018997
-55.61608300907912
-54.7371633478294
-54.932478828107115
-52.002746623941405
-49.75661860074769
-50.24490730144198
-45.362020294499125
-41.651026169222554
-35.79156176089113
-30.420386053253985
-31.592278934920273
-23.682001983672848
-17.724879835202564
-19.092088197146563
-9.228656443121995
-1.9043259327077133
5.0293736171511405
12.060730907148852
10.498207064927138
17.52956435492485
22.60776684214542
21.43587396047913
27.49065384908827
31.885252155336843
34.717326619363696
37.84237430380713
37.15877012283513
39.20958266575113
40.57679102769512
40.28381780727855
41.26039520866713
42.04165712977798
41.84634164950027
41.84634164950027
41.84634164950027
40.86976424811169
40.08850232700084
40.28381780727855
38.33066300450141
36.86579690241855
33.3501182574197
30.22507057297627
30.908674753948272
23.096055542839704
17.236591134508277
18.506141756313422
7.763790341039139
-0.24414435034714274
-8.935683222705425
-17.52956435492485
-15.674067292286564
-22.705424582284277
-27.881284809643702
-26.709391927977418
-29.834439612420844
-31.9829098954757
-30.518043793392845
-29.834439612420844
-30.029755092698558
-25.146868085755703
-21.43587396047913
-22.314793621728846
-18.310826276035705
-15.381094071869994
-14.11154345006485
-12.45136186770428
-12.84199282825971
-15.576409552147707
-17.82253757534142
-17.334248874647134
-19.385061417563133
-20.752269779507134
-23.291371023117417
-25.63515678644999
-25.146868085755703
-28.076600289921416
-30.22507057297627
-29.736781872281988
-32.764171816586554
-34.91264209964141
-37.256427862973986
-39.600213626306555
-39.11192492561227
-41.065079728389414
-42.529945830472265
-42.236972610055695
-45.16670481422141
-47.31517509727627
-48.68238345922026
-50.34256504158083
-49.951934081025406
-52.881666285191116
-55.03013656824598
-54.54184786755169
-55.61608300907912
-56.29968719005112
-58.057526512550545
-59.522392614633404
-59.13176165407798
-60.2059967956054
-60.8896009765774
-60.694285496299685
-61.67086289768826
-62.35446707866026
-63.13572899977112
-63.91699092088197
-63.72167544060426
-64.69825284199283
-65.38185702296482
-65.18654154268711
-66.16311894407569
-66.94438086518655
-67.7256427862974
-68.4092469672694
-68.21393148699168
-68.31158922713054
-68.21393148699168
-68.21393148699168
-68.21393148699168
-68.21393148699168
-69.0928511482414
-69.87411306935225
-69.67879758907453
-69.67879758907453
-69.58113984893568
-69.58113984893568
-69.58113984893568
-69.58113984893568
-68.60456244754711
-67.82330052643626
-67.92095826657511
-67.92095826657511
-67.92095826657511
-67.82330052643626
-67.82330052643626
-67.82330052643626
-66.84672312504769
-66.06546120393683
-66.26077668421455
-66.16311894407569
-66.16311894407569
-66.16311894407569
-65.18654154268711
-64.40527962157626
-63.6240177004654
-62.745098039215684
-62.9404135194934
-61.96383611810483
-61.182574196993976
-61.28023193713283
-61.28023193713283
-61.28023193713283
-60.30365453574426
-59.522392614633404
-59.62005035477226
-58.643472953383686
-57.86221103227283
-58.057526512550545
-57.08094911116198
-56.29968719005112
-54.54184786755169
-52.97932402532997
-53.27229724574655
-49.365987640192266
-46.43625543602655
-47.0222018768597
-40.186160067139696
-35.010299839780274
-27.588311589227132
-20.654612039368278
-22.21713588158999
-10.400549324788281
-1.513694972152285
-3.466849774929427
9.228656443121995
18.799114976729992
27.1976806286717
35.79156176089113
33.838406958113985
43.79949645227741
51.123826962691695
49.56130312046998
56.59266041046769
61.67086289768826
64.3076218814374
67.53032730601969
66.74906538490883
68.79987792782482
70.26474402990769
69.87411306935225
70.94834821087969
71.63195239185168
70.4600595101854
69.77645532921339
69.87411306935225
68.89753566796368
68.11627374685283
68.21393148699168
66.26077668421455
64.79591058213168
61.28023193713283
58.25284199282826
58.8387884336614
54.932478828107115
51.90508888380255
52.588693064774546
48.584725719081405
45.654993514915695
42.43228809033341
39.307240405889985
39.99084458686198
35.98687724116884
33.05714503700313
33.74074921797513
30.71335927367056
28.467231250476843
27.100022888532845
25.439841306172273
25.830472266727703
23.779659723811704
22.314793621728846
22.60776684214542
20.654612039368278
19.18974593728542
17.627222095063708
16.064698252841993
16.357671473258563
15.381094071869994
14.599832150759136
14.795147631036851
11.865415426871138
9.619287403677424
8.252079041733426
6.591897459372854
6.982528419928283
5.0293736171511405
3.466849774929427
3.8574807354848555
1.9043259327077133
0.34180209048599985
-1.1230640115968566
-2.68558785381857
-2.2949568932631417
-7.177843900205997
-10.888838025482567
-10.009918364232853
-16.84596017395285
-22.021820401312276
-27.588311589227132
-33.05714503700313
-31.787594415197987
-35.889219501029984
-38.818951705195694
-38.1353475242237
-38.23300526436255
-38.23300526436255
-36.27985046158541
-34.81498435950255
-35.10795757991913
-30.22507057297627
-26.514076447699704
-27.392996108949415
-22.412451361867703
-18.701457236591136
-17.627222095063708
-15.967040512703136
-16.260013733119706
-17.13893339436942
-17.920195315480278
-17.724879835202564
-18.701457236591136
-19.48271915770199
-20.263981078812847
-21.045242999923705
-20.84992751964599
-21.826504921034562
-22.60776684214542
-22.412451361867703
-23.389028763256274
-24.072632944228275
-24.853894865339132
-25.63515678644999
-25.439841306172273
-26.416418707560844
-27.1976806286717
-27.002365148393988
-27.97894254978256
-28.760204470893417
-28.564888990615703
-28.564888990615703
-28.564888990615703
-29.541466392004274
-30.22507057297627
-30.029755092698558
-30.127412832837415
-30.029755092698558
-31.00633249408713
-31.787594415197987
-31.592278934920273
-31.592278934920273
-31.592278934920273
-31.592278934920273
-31.592278934920273
-31.592278934920273
-32.471198596169984
-33.252460517280845
-33.05714503700313
-33.05714503700313
-33.05714503700313
-33.05714503700313
-33.05714503700313
-33.05714503700313
-32.08056763561456
-31.2993057145037
-31.494621194781413
-29.541466392004274
-28.076600289921416
-28.369573510337986
-23.48668650339513
-19.775692378118563
-13.916227969787137
-8.545052262149996
-9.71694514381628
-0.8300907911802854
5.615320057984283
4.150453955901427
14.990463111314565
23.096055542839704
32.764171816586554
42.04165712977798
39.99084458686198
49.951934081025406
57.27626459143969
55.61608300907912
63.6240177004654
69.48348210879682
73.87808041504539
78.56565194171054
77.4914168001831
81.49538414587624
84.42511635004196
83.74151216906996
85.79232471198596
87.15953307392996
87.84313725490196
88.62439917601282
88.33142595559625
88.4290836957351
88.33142595559625
88.33142595559625
87.35484855420768
86.57358663309682
84.81574731059739
83.25322346837568
83.54619668879225
79.63988708323797
76.71015487907225
77.29610131990539
73.29213397421225
70.36240177004655
66.16311894407569
62.35446707866026
63.13572899977112
58.1551842526894
54.44419012741283
55.32310978866255
50.34256504158083
46.63157091630426
43.604180971999696
40.479133287556266
41.16273746852827
37.15877012283513
34.22903791866941
34.81498435950255
31.787594415197987
29.63912413214313
27.1976806286717
24.853894865339132
25.439841306172273
22.412451361867703
20.16632333867399
20.654612039368278
17.724879835202564
15.47875181200885
13.13496604867628
10.79118028534371
11.279468986037996
8.349736781872283
6.103608758678568
6.591897459372854
3.662165255207141
1.416037232013428
-0.8300907911802854
-3.1738765545128556
-2.68558785381857
-5.615320057984283
-7.861448081177996
-7.373159380483711
-10.302891584649425
-12.549019607843137
-13.916227969787137
-15.576409552147707
-15.185778591592278
-18.11551079575799
-20.361638818951704
-19.87335011825742
-21.826504921034562
-23.291371023117417
-24.853894865339132
-26.416418707560844
-26.025787747005417
-28.076600289921416
-29.541466392004274
-29.150835431448844
-31.103990234225986
-32.56885633630884
-33.252460517280845
-34.0337224383917
-33.838406958113985
-35.79156176089113
-37.256427862973986
-36.86579690241855
-37.94003204394598
-38.62363622491798
-39.40489814602884
-40.186160067139696
-39.99084458686198
-40.96742198825055
-41.651026169222554
-41.5533684290837
-41.5533684290837
-41.5533684290837
-41.5533684290837
-41.45571068894484
-41.45571068894484
-41.45571068894484
-41.45571068894484
-41.45571068894484
-41.45571068894484
-41.45571068894484
-41.358052948805984
-41.358052948805984
-41.358052948805984
-45.16670481422141
-48.09643701838712
-47.51049057755398
-53.36995498588541
-57.764553292133975
-62.45212481879911
-67.13969634546426
-66.06546120393683
-69.0928511482414
-71.24132143129626
-70.75303273060197
-69.87411306935225
-69.0928511482414
-64.50293736171511
-60.694285496299685
-61.5732051575494
-53.66292820630198
-47.80346379797055
-49.073014419775696
-41.16273746852827
-35.20561532005799
-31.787594415197987
-27.783627069504846
-28.66254673075456
-24.560921644922562
-21.63118944075685
-22.314793621728846
-17.43190661478599
-13.720912489509422
-6.884870679789426
-0.7324330510414282
-2.0996414129854277
8.545052262149996
16.650644693675137
14.892805371175708
26.709391927977418
35.596246280613414
45.069047074082555
54.346532387273975
52.295719844357976
62.2568093385214
69.58113984893568
67.92095826657511
75.9288929579614
81.69069962615396
85.20637827115281
89.1126878767071
88.23376821545739
92.23773556115053
95.16746776531625
94.48386358434425
96.43701838712138
97.90188448920424
98.48783093003739
99.26909285114824
99.07377737087053
99.07377737087053
99.07377737087053
98.97611963073167
98.97611963073167
98.97611963073167
97.02296482795452
95.46044098573282
95.75341420614939
92.82368200198367
90.57755397878996
91.06584267948425
87.06187533379111
84.13214312962539
79.05394064240483
74.36636911573969
75.34294651712825
69.38582436865796
64.9912260624094
65.96780346379796
60.01068131532769
55.51842526894026
50.73319600213626
46.04562447547112
47.11985961699855
41.16273746852827
36.768139162279695
37.64705882352941
32.6665140764477
29.053177691309987
26.025787747005417
22.803082322423133
23.48668650339513
18.60379949645228
14.892805371175708
15.771725032425422
11.767757686732281
8.74036774242771
5.615320057984283
2.490272373540856
3.1738765545128556
0.14648661020828566
-1.9043259327077133
-1.416037232013428
-5.322346837567712
-8.349736781872283
-11.47478446631571
-14.599832150759136
-13.916227969787137
-16.943617914091707
-19.092088197146563
-18.60379949645228
-21.533531700617992
-23.779659723811704
-26.123445487144274
-28.467231250476843
-27.881284809643702
-29.9320973525597
-31.396963454642556
-31.103990234225986
-33.93606469825284
-36.182192721446555
-37.549401083390556
-39.20958266575113
-38.818951705195694
-40.772106507972836
-42.236972610055695
-41.943999389639124
-43.89715419241627
-45.362020294499125
-46.92454413672083
-48.38941023880369
-48.09643701838712
-49.073014419775696
-49.75661860074769
-49.658960860608836
-51.51445792324712
-52.97932402532997
-53.66292820630198
-54.44419012741283
-54.24887464713512
-55.22545204852369
-55.90905622949569
-55.713740749217976
-56.690318150606544
-57.471580071717405
-57.27626459143969
-57.27626459143969
-57.27626459143969
-58.1551842526894
-58.936446173800256
-58.74113069352254
-58.74113069352254
-58.74113069352254
-59.62005035477226
-60.401312275883114
-60.2059967956054
-60.2059967956054
-60.2059967956054
-60.108339055466544
-61.08491645685512
-61.768520637827116
-61.67086289768826
-61.67086289768826
-61.5732051575494
-61.5732051575494
-61.5732051575494
-61.5732051575494
-61.5732051575494
-61.5732051575494
-60.59662775616083
-59.815365835049974
-59.91302357518883
-59.91302357518883
-59.91302357518883
-59.815365835049974
-59.815365835049974
-59.815365835049974
-59.815365835049974
-59.815365835049974
-59.71770809491112
-58.74113069352254
-58.057526512550545
-58.1551842526894
-56.20202944991226
-54.7371633478294
-52.19806210421912
-49.85427634088655
-50.34256504158083
-45.45967803463798
-41.74868390936141
-42.529945830472265
-34.717326619363696
-28.760204470893417
-19.58037689784085
-11.08415350576028
-13.037308308537423
-1.1230640115968566
7.568474860761425
5.615320057984283
17.52956435492485
26.318760967421987
34.91264209964141
43.50652323186084
41.5533684290837
46.72922865644312
50.34256504158083
49.46364538033112
50.635538261997404
51.31914244296941
50.14724956130312
49.46364538033112
49.56130312046998
49.56130312046998
49.56130312046998
49.56130312046998
50.44022278171969
51.22148470283055
54.83482108796826
57.86221103227283
57.178606851300835
61.08491645685512
64.01464866102083
63.33104448004883
66.3584344243534
68.50690470740825
68.01861600671397
68.11627374685283
68.01861600671397
63.233386739909974
59.522392614633404
60.30365453574426
55.32310978866255
51.61211566338598
47.705806057831694
43.79949645227741
44.580758373388264
39.600213626306555
35.98687724116884
36.768139162279695
32.764171816586554
29.834439612420844
27.588311589227132
25.24452582589456
25.732814526588847
22.705424582284277
20.55695429922942
21.045242999923705
18.017853055619135
15.771725032425422
14.404516670481422
12.74433508812085
13.13496604867628
10.205233844510566
7.959105821316854
8.44739452201114
5.517662317845426
3.2715342946517127
0.9277485313191425
-1.3183794918745708
-0.8300907911802854
-3.7598229953459983
-6.005951018539712
-5.517662317845426
-8.44739452201114
-10.693522545204852
-12.060730907148852
-13.720912489509422
-13.330281528953995
-16.260013733119706
-18.506141756313422
-17.920195315480278
-19.971007858396277
-21.43587396047913
-22.998397802700847
-24.560921644922562
-24.17029068436713
-26.22110322728313
-27.68596932936599
-27.295338368810558
-29.2484931715877
-30.71335927367056
-31.396963454642556
-32.178225375753414
-31.9829098954757
-32.95948729686427
-33.64309147783627
-33.545433737697415
-34.52201113908598
-35.20561532005799
-35.98687724116884
-36.768139162279695
-36.57282368200198
-36.57282368200198
-36.57282368200198
-36.57282368200198
-37.549401083390556
-38.23300526436255
-38.03768978408484
-38.1353475242237
-38.03768978408484
-38.03768978408484
-38.03768978408484
-38.03768978408484
-39.014267185473415
-39.69787136644541
-39.5025558861677
-39.600213626306555
-39.5025558861677
-40.479133287556266
-41.26039520866713
-41.065079728389414
-41.065079728389414
-41.065079728389414
-41.943999389639124
-42.72526131074998
-42.529945830472265
-42.529945830472265
-42.529945830472265
-42.529945830472265
-42.529945830472265
-42.529945830472265
-42.529945830472265
-42.43228809033341
-42.43228809033341
-42.43228809033341
-42.43228809033341
-42.43228809033341
-42.43228809033341
-42.43228809033341
-42.33463035019455
-42.33463035019455
-42.33463035019455
-42.33463035019455
-42.33463035019455
-42.33463035019455
-42.33463035019455
-42.236972610055695
-42.236972610055695
-42.236972610055695
-42.236972610055695
-40.28381780727855
-38.818951705195694
-39.11192492561227
-35.20561532005799
-32.27588311589227
-27.1976806286717
-22.60776684214542
-23.58434424353399
-13.81857022964828
-6.39658197909514
-8.05676356145571
2.68558785381857
10.79118028534371
21.43587396047913
31.396963454642556
29.2484931715877
41.16273746852827
49.951934081025406
47.998779278248264
58.8387884336614
66.94438086518655
72.80384527351796
79.05394064240483
77.68673228046082
82.66727702754254
86.28061341268025
85.49935149156939
88.52674143587396
90.67521171892882
92.04242008087282
93.60494392309452
93.2143129625391
94.28854810406654
94.97215228503853
94.77683680476082
93.80025940337224
93.01899748226138
92.23773556115053
91.35881589990082
91.55413138017853
88.62439917601282
86.37827115281911
86.8665598535134
83.83916990920882
81.5930418860151
77.29610131990539
73.48744945448996
74.26871137560083
68.31158922713054
63.91699092088197
64.89356832227054
58.8387884336614
54.44419012741283
50.635538261997404
46.72922865644312
47.51049057755398
41.651026169222554
37.15877012283513
38.1353475242237
34.131380178530556
31.201647974364842
27.97894254978256
24.853894865339132
25.537499046311133
19.678034637979707
15.283436331731137
16.260013733119706
7.373159380483711
0.7324330510414282
-6.201266498817426
-13.232623788815136
-11.670099946593423
-16.84596017395285
-20.45929655909056
-19.58037689784085
-20.752269779507134
-21.43587396047913
-20.361638818951704
-19.58037689784085
-19.775692378118563
-15.869382772564279
-12.939650568398566
-13.623254749370565
-9.619287403677424
-6.6895551995117115
-7.373159380483711
-7.177843900205997
-7.177843900205997
-10.10757610437171
-12.256046387426567
-11.767757686732281
-13.81857022964828
-15.283436331731137
-17.82253757534142
-20.068665598535134
-19.58037689784085
-21.63118944075685
-23.096055542839704
-22.705424582284277
-24.65857938506142
-26.123445487144274
-27.68596932936599
-29.2484931715877
-28.95551995117113
-30.908674753948272
-32.37354085603113
-31.9829098954757
-34.0337224383917
-35.49858854047456
-36.0845349813077
-36.86579690241855
-36.67048142214084
-37.64705882352941
-38.42832074464027
-38.23300526436255
-39.20958266575113
-39.893186846723125
-40.67444876783398
-41.45571068894484
-41.26039520866713
-42.236972610055695
-43.018234531166556
-42.822919050888835
-43.79949645227741
-44.48310063324941
-44.28778515297169
-44.38544289311055
-44.28778515297169
-45.26436255436027
-45.947966735332265
-45.85030899519341
-45.85030899519341
-45.85030899519341
-45.75265125505455
-45.75265125505455
-45.75265125505455
-45.75265125505455
-45.75265125505455
-45.75265125505455
-45.75265125505455
-45.654993514915695
-45.654993514915695
-45.654993514915695
-45.654993514915695
-45.654993514915695
-45.654993514915695
-45.654993514915695
-45.55733577477684
-45.55733577477684
-45.55733577477684
-45.55733577477684
-45.55733577477684
-44.580758373388264
-43.79949645227741
-43.99481193255512
-43.89715419241627
-43.89715419241627
-41.943999389639124
-40.479133287556266
-40.772106507972836
-37.84237430380713
-35.596246280613414
-36.0845349813077
-30.22507057297627
-25.830472266727703
-18.21316853589685
-11.279468986037996
-12.84199282825971
-2.0019836728465705
6.005951018539712
4.248111696040284
17.041275654230564
26.61173418783856
36.86579690241855
47.0222018768597
44.67841611352712
56.690318150606544
65.47951476310368
63.42870222018769
73.3897917143511
80.71412222476539
85.79232471198596
91.26115815976196
89.99160753795681
96.04638742656596
100.34332799267567
99.3667505912871
102.39414053559167
104.54261081864652
105.90981918059052
107.47234302281224
107.08171206225681
108.15594720378424
108.83955138475623
108.64423590447852
108.64423590447852
108.54657816433966
107.5700007629511
106.78873884184024
106.98405432211796
104.05432211795224
101.71053635461966
102.19882505531396
98.29251544975968
95.2651255054551
91.1635004196231
87.25719081406882
88.03845273517967
82.0813305867094
77.68673228046082
78.6633096818494
72.70618753337911
68.21393148699168
62.54978255893797
57.08094911116198
58.25284199282826
52.295719844357976
47.80346379797055
48.78004119935912
43.79949645227741
40.08850232700084
36.182192721446555
32.27588311589227
33.05714503700313
29.053177691309987
26.123445487144274
26.807049668116274
22.803082322423133
19.87335011825742
17.627222095063708
15.283436331731137
15.771725032425422
12.84199282825971
10.595864805065995
11.08415350576028
7.177843900205997
4.248111696040284
2.0019836728465705
-0.24414435034714274
0.14648661020828566
-3.662165255207141
-6.591897459372854
-6.005951018539712
-9.033340962844282
-11.181811245899137
-14.50217441062028
-17.627222095063708
-16.84596017395285
-19.87335011825742
-22.119478141451133
-21.63118944075685
-24.560921644922562
-26.709391927977418
-29.150835431448844
-31.494621194781413
-30.908674753948272
-32.95948729686427
-34.424353398947126
-34.0337224383917
-36.96345464255741
-39.20958266575113
-40.57679102769512
-42.13931486991684
-41.74868390936141
-45.654993514915695
-48.584725719081405
-47.90112153810941
-54.7371633478294
-59.91302357518883
-64.50293736171511
-69.19050888838025
-68.11627374685283
-71.1436636911574
-73.29213397421225
-72.80384527351796
-72.90150301365682
-72.80384527351796
-69.9717708094911
-67.7256427862974
-68.21393148699168
-62.35446707866026
-57.86221103227283
-58.8387884336614
-53.85824368657969
-50.14724956130312
-49.073014419775696
-47.31517509727627
-47.705806057831694
-48.584725719081405
-49.365987640192266
-49.17067215991455
-49.17067215991455
-49.17067215991455
-50.04959182116426
-50.83085374227512
-50.635538261997404
-50.635538261997404
-50.635538261997404
-50.635538261997404
-51.51445792324712
-52.295719844357976
-52.10040436408026
-52.10040436408026
-52.10040436408026
-52.10040436408026
-52.10040436408026
-52.002746623941405
-52.002746623941405
-52.002746623941405
-52.002746623941405
-52.002746623941405
-52.002746623941405
-51.90508888380255
-51.90508888380255
-51.90508888380255
-50.928511482413974
-50.14724956130312
-49.365987640192266
-48.584725719081405
-48.78004119935912
-45.85030899519341
-43.604180971999696
-44.09246967269398
-40.08850232700084
-37.15877012283513
-30.127412832837415
-24.072632944228275
-25.439841306172273
-15.576409552147707
-8.154421301594567
-9.81460288395514
2.8809033340962844
12.45136186770428
22.705424582284277
32.86182955672541
30.518043793392845
43.50652323186084
52.97932402532997
50.83085374227512
60.8896009765774
68.11627374685283
74.17105363546197
80.42114900434882
78.95628290226597
84.03448538948653
87.64782177462425
86.8665598535134
89.89394979781795
92.04242008087282
93.40962844281681
94.97215228503853
94.5815213244831
94.67917906462196
94.5815213244831
94.5815213244831
94.5815213244831
94.48386358434425
92.5307087815671
91.06584267948425
91.35881589990082
88.4290836957351
86.1829556725414
86.57358663309682
82.66727702754254
79.73754482337682
75.53826199740597
71.63195239185168
72.5108720531014
66.55374990463112
62.15915159838254
63.03807125963226
57.08094911116198
52.6863508049134
46.92454413672083
41.5533684290837
42.72526131074998
37.64705882352941
34.0337224383917
34.81498435950255
29.834439612420844
26.123445487144274
22.21713588158999
18.310826276035705
19.18974593728542
15.185778591592278
12.256046387426567
12.84199282825971
9.81460288395514
7.666132600900283
4.345769436179141
1.2207217517357138
1.9043259327077133
-1.0254062714579995
-3.1738765545128556
-2.68558785381857
-5.71297779812314
-7.861448081177996
-11.181811245899137
-14.306858930342566
-13.623254749370565
-16.650644693675137
-18.799114976729992
-18.310826276035705
-21.24055848020142
-23.48668650339513
-25.830472266727703
-28.174258030060273
-27.588311589227132
-30.615701533531702
-32.764171816586554
-32.27588311589227
-35.303273060196844
-37.4517433432517
-38.818951705195694
-40.479133287556266
-40.08850232700084
-42.04165712977798
-43.50652323186084
-43.21355001144427
-45.16670481422141
-46.63157091630426
-48.19409475852598
-49.658960860608836
-49.365987640192266
-50.34256504158083
-51.02616922255284
-50.928511482413974
-51.90508888380255
-52.588693064774546
-54.346532387273975
-55.81139848935683
-55.420767528801406
-55.51842526894026
-55.51842526894026
-55.420767528801406
-56.39734493018997
-57.08094911116198
-57.86221103227283
-58.643472953383686
-58.44815747310597
-58.44815747310597
-58.44815747310597
-58.44815747310597
-58.44815747310597
-58.44815747310597
-58.350499732967116
-58.350499732967116
-58.350499732967116
-58.350499732967116
-58.350499732967116
-58.25284199282826
-58.25284199282826
-58.25284199282826
-58.25284199282826
-58.25284199282826
-58.25284199282826
-58.1551842526894
-58.1551842526894
-58.1551842526894
-57.178606851300835
-56.39734493018997
-56.59266041046769
-56.49500267032883
-56.49500267032883
-58.350499732967116
-59.815365835049974
-59.522392614633404
-65.28419928282597
-69.67879758907453
-73.48744945448996
-77.39375906004425
-76.51483939879454
-78.56565194171054
-80.03051804379339
-79.63988708323797
-77.78439002059967
-76.22186617837797
-70.85069047074083
-66.26077668421455
-67.23735408560312
-57.471580071717405
-50.04959182116426
-51.709773403524835
-40.86976424811169
-32.764171816586554
-23.974975204089418
-15.47875181200885
-17.334248874647134
-6.39658197909514
1.6113527122911422
-0.14648661020828566
11.670099946593423
20.45929655909056
29.9320973525597
39.307240405889985
37.15877012283513
49.073014419775696
57.86221103227283
55.90905622949569
64.89356832227054
71.53429465171283
75.73357747768368
80.51880674448768
79.44457160296025
83.4485389486534
86.37827115281911
85.6946669718471
86.76890211337454
87.45250629434653
87.25719081406882
87.25719081406882
87.15953307392996
86.1829556725414
85.40169375143053
85.59700923170824
83.6438544289311
82.0813305867094
79.54222934309911
77.19844357976653
77.68673228046082
73.78042267490653
70.75303273060197
71.43663691157397
66.45609216449226
62.745098039215684
57.86221103227283
53.17463950560769
54.24887464713512
49.17067215991455
45.45967803463798
46.33859769588769
41.358052948805984
37.64705882352941
34.61966887922484
31.494621194781413
32.178225375753414
29.150835431448844
26.90470740825513
27.392996108949415
25.342183566033416
23.87731746395056
22.314793621728846
20.752269779507134
21.14290074006256
19.092088197146563
17.627222095063708
17.920195315480278
15.967040512703136
14.50217441062028
12.939650568398566
11.377126726176853
11.670099946593423
8.74036774242771
6.494239719233997
6.982528419928283
4.052796215762569
1.8066681925688564
-0.43945983062485694
-2.783245593957427
-2.2949568932631417
-5.224689097428855
-7.470817120622568
-6.982528419928283
-8.935683222705425
-10.400549324788281
-12.939650568398566
-15.283436331731137
-14.697489890897993
-16.748302433813993
-18.21316853589685
-17.920195315480278
-19.87335011825742
-21.338216220340275
-22.90074006256199
-24.4632639047837
-24.072632944228275
-25.146868085755703
-25.830472266727703
-25.63515678644999
-27.588311589227132
-29.053177691309987
-29.736781872281988
-30.518043793392845
-30.322728313115128
-32.27588311589227
-33.74074921797513
-33.3501182574197
-34.424353398947126
-35.10795757991913
-34.91264209964141
-34.91264209964141
-34.91264209964141
-35.889219501029984
-36.57282368200198
-36.475165941863125
-37.4517433432517
-38.1353475242237
-37.94003204394598
-37.94003204394598
-37.94003204394598
-38.91660944533455
-39.600213626306555
-39.5025558861677
-39.5025558861677
-39.5025558861677
-39.5025558861677
-39.40489814602884
-39.40489814602884
-39.40489814602884
-39.40489814602884
-39.40489814602884
-39.40489814602884
-39.40489814602884
-39.40489814602884
-39.307240405889985
-39.307240405889985
-39.307240405889985
-39.307240405889985
-39.307240405889985
-40.28381780727855
-40.96742198825055
-40.772106507972836
-40.772106507972836
-40.772106507972836
-40.772106507972836
-40.772106507972836
-40.772106507972836
-38.818951705195694
-37.35408560311284
-34.81498435950255
-32.471198596169984
-32.95948729686427
-28.076600289921416
-24.365606164644845
-25.24452582589456
-16.45532921339742
-9.81460288395514
-1.7090104524299992
6.005951018539712
4.248111696040284
17.041275654230564
26.61173418783856
24.4632639047837
37.35408560311284
46.826886396581976
56.20202944991226
65.57717250324254
63.42870222018769
72.5108720531014
79.05394064240483
77.58907454032196
85.49935149156939
91.35881589990082
94.77683680476082
98.78080415045396
97.80422674906538
100.83161669336995
102.98008697642481
102.49179827573053
103.56603341725796
104.24963759822995
104.93324177920195
105.7145037003128
105.51918822003509
101.71053635461966
98.6831464103151
99.3667505912871
92.43305104142824
87.25719081406882
80.71412222476539
74.5616845960174
75.83123521782254
68.89753566796368
63.72167544060426
64.79591058213168
60.79194323643854
57.764553292133975
56.49500267032883
54.83482108796826
55.22545204852369
55.127794308384836
55.127794308384836
55.127794308384836
55.127794308384836
55.03013656824598
52.19806210421912
49.951934081025406
50.44022278171969
46.43625543602655
43.50652323186084
44.19012741283284
39.20958266575113
35.49858854047456
33.44777599755856
31.103990234225986
31.592278934920273
27.68596932936599
24.65857938506142
25.342183566033416
22.314793621728846
20.068665598535134
16.748302433813993
13.720912489509422
14.404516670481422
11.377126726176853
9.130998702983138
9.619287403677424
5.71297779812314
2.783245593957427
0.537117570763714
-1.7090104524299992
-1.2207217517357138
-5.127031357289998
-8.05676356145571
-7.373159380483711
-10.400549324788281
-12.646677347981994
-14.990463111314565
-17.334248874647134
-16.84596017395285
-18.799114976729992
-20.263981078812847
-19.971007858396277
-22.90074006256199
-25.049210345616846
-26.514076447699704
-28.076600289921416
-27.68596932936599
-29.63912413214313
-31.103990234225986
-30.811017013809415
-32.764171816586554
-34.22903791866941
-34.81498435950255
-35.69390402075227
-35.49858854047456
-37.4517433432517
-38.91660944533455
-38.525978484779124
-39.5025558861677
-40.28381780727855
-41.065079728389414
-41.84634164950027
-41.651026169222554
-42.62760357061112
-43.311207751583126
-43.11589227130541
-43.21355001144427
-43.11589227130541
-42.13931486991684
-41.45571068894484
-41.5533684290837
-38.62363622491798
-36.475165941863125
-36.86579690241855
-31.9829098954757
-28.27191577019913
-22.412451361867703
-17.041275654230564
-18.21316853589685
-8.44739452201114
-1.0254062714579995
-2.68558785381857
8.05676356145571
16.16235599298085
23.87731746395056
31.68993667505913
29.9320973525597
39.893186846723125
47.21751735713741
45.55733577477684
53.56527046616312
59.42473487449455
63.819333180743115
68.50690470740825
67.43266956588083
71.53429465171283
74.36636911573969
73.68276493476768
75.73357747768368
77.19844357976653
76.8078126192111
76.90547035934996
76.8078126192111
75.83123521782254
75.04997329671168
75.2452887769894
73.29213397421225
71.72961013199054
69.19050888838025
66.84672312504769
67.33501182574197
63.42870222018769
60.49897001602197
61.08491645685512
55.22545204852369
50.73319600213626
46.04562447547112
41.358052948805984
42.33463035019455
36.37750820172427
31.9829098954757
32.95948729686427
27.002365148393988
22.510109102006563
18.701457236591136
14.795147631036851
15.674067292286564
10.693522545204852
6.982528419928283
7.861448081177996
4.834058136873426
2.5879301136797133
0.24414435034714274
-2.0019836728465705
-1.513694972152285
-3.466849774929427
-4.931715877012284
-4.638742656595713
-7.568474860761425
-9.81460288395514
-11.181811245899137
-12.84199282825971
-12.45136186770428
-15.381094071869994
-17.627222095063708
-17.041275654230564
-20.068665598535134
-22.21713588158999
-24.65857938506142
-26.90470740825513
-26.416418707560844
-29.346150911726557
-31.592278934920273
-31.103990234225986
-33.05714503700313
-34.52201113908598
-36.0845349813077
-37.64705882352941
-37.35408560311284
-39.307240405889985
-40.772106507972836
-40.38147554741741
-42.33463035019455
-43.79949645227741
-44.48310063324941
-45.26436255436027
-45.069047074082555
-47.0222018768597
-48.48706797894255
-48.09643701838712
-49.073014419775696
-49.85427634088655
-50.635538261997404
-51.31914244296941
-51.123826962691695
-52.10040436408026
-52.881666285191116
-52.6863508049134
-53.66292820630198
-54.346532387273975
-55.127794308384836
-55.90905622949569
-55.713740749217976
-58.643472953383686
-60.79194323643854
-60.30365453574426
-66.16311894407569
-70.55771725032426
-73.29213397421225
-76.51483939879454
-75.73357747768368
-72.99916075379568
-70.75303273060197
-71.24132143129626
-63.42870222018769
-57.56923781185626
-44.48310063324941
-33.05714503700313
-35.596246280613414
-14.990463111314565
0.43945983062485694
-2.8809033340962844
17.82253757534142
33.252460517280845
46.04562447547112
59.32707713435569
56.39734493018997
67.53032730601969
75.53826199740597
73.68276493476768
81.69069962615396
87.55016403448539
90.96818493934539
94.97215228503853
94.09323262378882
97.12062256809338
99.26909285114824
98.6831464103151
99.75738155184253
100.44098573281453
100.24567025253681
100.24567025253681
100.24567025253681
98.29251544975968
96.72999160753795
97.02296482795452
95.06981002517739
93.50728618295567
90.96818493934539
88.62439917601282
89.1126878767071
84.22980086976425
80.51880674448768
81.30006866559853
75.34294651712825
70.94834821087969
65.18654154268711
59.71770809491112
60.987258716716255
53.95590142671855
48.78004119935912
49.951934081025406
43.018234531166556
37.84237430380713
33.252460517280845
28.564888990615703
29.541466392004274
24.560921644922562
20.84992751964599
21.728847180895706
16.748302433813993
13.037308308537423
10.009918364232853
6.884870679789426
7.568474860761425
3.5645075150682843
0.6347753109025711
1.3183794918745708
-1.6113527122911422
-3.7598229953459983
-7.080186160067139
-10.205233844510566
-9.521629663538567
-12.549019607843137
-14.697489890897993
-14.209201190203707
-17.13893339436942
-19.385061417563133
-22.705424582284277
-25.732814526588847
-25.049210345616846
-28.076600289921416
-30.322728313115128
-29.736781872281988
-32.764171816586554
-34.91264209964141
-37.256427862973986
-39.600213626306555
-39.11192492561227
-42.04165712977798
-44.28778515297169
-43.70183871213855
-45.75265125505455
-47.21751735713741
-48.78004119935912
-50.34256504158083
-49.951934081025406
-51.90508888380255
-53.36995498588541
-52.97932402532997
-54.053559166857404
-54.7371633478294
-56.49500267032883
-57.95986877241169
-57.66689555199512
-58.643472953383686
-59.32707713435569
-59.13176165407798
-60.108339055466544
-60.8896009765774
-61.67086289768826
-62.35446707866026
-62.15915159838254
-63.13572899977112
-63.91699092088197
-63.72167544060426
-63.72167544060426
-63.72167544060426
-63.6240177004654
-63.6240177004654
-63.6240177004654
-61.67086289768826
-60.2059967956054
-60.49897001602197
-57.56923781185626
-55.32310978866255
-50.04959182116426
-45.45967803463798
-46.43625543602655
-37.64705882352941
-31.00633249408713
-32.471198596169984
-21.63118944075685
-13.525597009231708
-3.8574807354848555
5.322346837567712
3.2715342946517127
15.185778591592278
23.974975204089418
22.021820401312276
31.9829098954757
39.307240405889985
45.362020294499125
51.61211566338598
50.24490730144198
56.20202944991226
60.59662775616083
59.62005035477226
62.64744029907683
64.79591058213168
65.28419928282597
66.06546120393683
65.8701457236591
65.8701457236591
65.8701457236591
65.8701457236591
63.91699092088197
62.45212481879911
59.91302357518883
57.56923781185626
58.057526512550545
54.053559166857404
51.123826962691695
51.80743114366369
45.85030899519341
41.45571068894484
36.67048142214084
31.9829098954757
33.05714503700313
27.100022888532845
22.60776684214542
23.58434424353399
17.627222095063708
13.232623788815136
9.42397192339971
5.517662317845426
6.39658197909514
2.392614633401999
-0.43945983062485694
0.14648661020828566
-3.7598229953459983
-6.6895551995117115
-7.959105821316854
-9.619287403677424
-9.228656443121995
-12.158388647287708
-14.404516670481422
-13.916227969787137
-15.869382772564279
-17.334248874647134
-19.87335011825742
-22.21713588158999
-21.63118944075685
-26.514076447699704
-30.22507057297627
-29.346150911726557
-38.1353475242237
-44.77607385366598
-49.951934081025406
-55.51842526894026
-54.24887464713512
-59.22941939421683
-62.9404135194934
-62.061493858243686
-63.13572899977112
-63.819333180743115
-62.745098039215684
-61.96383611810483
-62.15915159838254
-58.25284199282826
-55.32310978866255
-55.90905622949569
-51.90508888380255
-48.97535667963683
-48.68238345922026
-47.80346379797055
-47.998779278248264
-49.85427634088655
-51.31914244296941
-50.928511482413974
-51.90508888380255
-52.6863508049134
-54.346532387273975
-55.90905622949569
-55.51842526894026
-56.59266041046769
-57.27626459143969
-57.08094911116198
-58.057526512550545
-58.74113069352254
-59.522392614633404
-60.30365453574426
-60.108339055466544
-61.08491645685512
-61.768520637827116
-61.5732051575494
-62.54978255893797
-63.33104448004883
-63.13572899977112
-63.13572899977112
-63.13572899977112
-63.13572899977112
-63.03807125963226
-63.03807125963226
-61.08491645685512
-59.62005035477226
-56.1043717097734
-53.07698176546884
-53.66292820630198
-46.826886396581976
-41.651026169222554
-42.822919050888835
-33.93606469825284
-27.295338368810558
-17.334248874647134
-8.05676356145571
-10.10757610437171
1.7090104524299992
10.498207064927138
8.545052262149996
20.45929655909056
29.2484931715877
35.889219501029984
42.92057679102769
41.358052948805984
48.38941023880369
53.467612726024264
52.295719844357976
56.39734493018997
59.32707713435569
59.62005035477226
60.401312275883114
60.2059967956054
59.32707713435569
58.54581521324483
58.643472953383686
56.690318150606544
55.22545204852369
52.6863508049134
50.34256504158083
50.83085374227512
45.947966735332265
42.236972610055695
43.018234531166556
37.15877012283513
32.6665140764477
28.857862211032273
24.95155260547799
25.830472266727703
19.87335011825742
15.47875181200885
16.45532921339742
11.47478446631571
7.763790341039139
4.736400396734569
1.6113527122911422
2.2949568932631417
-0.6347753109025711
-2.783245593957427
-2.2949568932631417
-5.322346837567712
-7.470817120622568
-7.959105821316854
-8.838025482566568
-8.642710002288853
-10.595864805065995
-12.060730907148852
-11.670099946593423
-12.74433508812085
-13.427939269092851
-15.185778591592278
-16.650644693675137
-16.357671473258563
-18.310826276035705
-19.775692378118563
-19.48271915770199
-21.43587396047913
-22.90074006256199
-24.4632639047837
-26.025787747005417
-25.63515678644999
-27.68596932936599
-29.150835431448844
-28.760204470893417
-30.71335927367056
-32.178225375753414
-33.74074921797513
-35.303273060196844
-35.010299839780274
-35.98687724116884
-36.67048142214084
-36.57282368200198
-38.42832074464027
-39.893186846723125
-41.45571068894484
-43.018234531166556
-42.72526131074998
-43.70183871213855
-44.38544289311055
-44.19012741283284
-45.16670481422141
-45.947966735332265
-45.75265125505455
-45.75265125505455
-45.75265125505455
-46.72922865644312
-47.412832837415124
-47.21751735713741
-47.31517509727627
-47.21751735713741
-47.21751735713741
-47.21751735713741
-47.21751735713741
-47.21751735713741
-47.21751735713741
-47.11985961699855
-47.11985961699855
-47.11985961699855
-47.11985961699855
-47.11985961699855
-47.11985961699855
-47.0222018768597
-47.0222018768597
-47.0222018768597
-47.0222018768597
-47.0222018768597
-47.0222018768597
-47.0222018768597
-46.92454413672083
-45.947966735332265
-45.26436255436027
-45.362020294499125
-45.362020294499125
-45.362020294499125
-45.362020294499125
-45.26436255436027
-45.26436255436027
-45.26436255436027
-45.26436255436027
-45.26436255436027
-44.28778515297169
-43.50652323186084
-43.70183871213855
-43.604180971999696
-43.604180971999696
-42.62760357061112
-41.84634164950027
-42.04165712977798
-41.065079728389414
-40.28381780727855
-40.479133287556266
-40.38147554741741
-40.38147554741741
-42.236972610055695
-43.79949645227741
-43.40886549172198
-49.17067215991455
-53.66292820630198
-58.350499732967116
-63.03807125963226
-61.96383611810483
-63.13572899977112
-63.819333180743115
-63.6240177004654
-62.64744029907683
-61.86617837796597
-56.29968719005112
-51.80743114366369
-52.78400854505226
-43.99481193255512
-37.35408560311284
-38.818951705195694
-27.002365148393988
-18.11551079575799
-10.498207064927138
-2.68558785381857
-4.443427176317998
6.39658197909514
14.404516670481422
12.646677347981994
25.439841306172273
35.010299839780274
47.21751735713741
58.8387884336614
56.20202944991226
69.19050888838025
78.6633096818494
76.51483939879454
88.4290836957351
97.21828030823224
102.88242923628596
109.23018234531166
107.76531624322881
112.84351873044938
116.45685511558709
115.57793545433738
117.62874799725337
118.99595635919738
119.58190280003052
120.36316472114137
120.16784924086366
118.31235217822538
116.74982833600366
117.04280155642023
114.11306935225453
111.86694132906081
108.44892042420081
105.32387273975738
106.00747692072939
100.0503547722591
95.65575646601053
96.53467612726024
90.57755397878996
86.1829556725414
81.39772640573739
76.71015487907225
77.68673228046082
70.75303273060197
65.57717250324254
66.74906538490883
60.694285496299685
56.29968719005112
52.49103532463569
48.584725719081405
49.365987640192266
45.362020294499125
42.43228809033341
43.018234531166556
40.08850232700084
37.84237430380713
35.4009308003357
33.05714503700313
33.64309147783627
30.615701533531702
28.369573510337986
28.857862211032273
25.92813000686656
23.682001983672848
21.338216220340275
18.994430457007706
19.48271915770199
16.45532921339742
14.306858930342566
14.795147631036851
10.888838025482567
7.861448081177996
5.71297779812314
3.2715342946517127
3.8574807354848555
-0.04882887006942855
-2.9785610742351416
-2.2949568932631417
-5.322346837567712
-7.470817120622568
-9.912260624093996
-12.158388647287708
-11.670099946593423
-14.697489890897993
-16.84596017395285
-16.357671473258563
-19.287403677424276
-21.533531700617992
-22.90074006256199
-24.560921644922562
-24.17029068436713
-26.123445487144274
-27.588311589227132
-27.295338368810558
-29.2484931715877
-30.71335927367056
-32.27588311589227
-33.838406958113985
-33.44777599755856
-34.52201113908598
-35.20561532005799
-35.010299839780274
-35.98687724116884
-36.768139162279695
-36.57282368200198
-36.57282368200198
-36.57282368200198
-37.549401083390556
-38.23300526436255
-38.03768978408484
-38.03768978408484
-38.03768978408484
-38.03768978408484
-38.03768978408484
-38.03768978408484
-38.03768978408484
-38.03768978408484
-38.03768978408484
-38.91660944533455
-39.69787136644541
-39.5025558861677
-39.5025558861677
-39.5025558861677
-39.5025558861677
-39.5025558861677
-39.5025558861677
-39.40489814602884
-39.40489814602884
-38.42832074464027
-37.74471656366827
-37.84237430380713
-37.84237430380713
-37.84237430380713
-37.84237430380713
-37.74471656366827
-37.74471656366827
-37.74471656366827
-37.74471656366827
-37.74471656366827
-37.74471656366827
-37.74471656366827
-37.74471656366827
-37.64705882352941
-37.64705882352941
-37.64705882352941
-37.64705882352941
-37.64705882352941
-37.64705882352941
-37.64705882352941
-37.64705882352941
-36.67048142214084
-35.889219501029984
-34.131380178530556
-32.56885633630884
-32.95948729686427
-29.053177691309987
-26.025787747005417
-26.709391927977418
-20.84992751964599
-16.357671473258563
-7.861448081177996
-0.14648661020828566
-1.9043259327077133
9.81460288395514
18.701457236591136
16.748302433813993
29.541466392004274
39.11192492561227
49.365987640192266
59.522392614633404
57.178606851300835
68.21393148699168
76.22186617837797
74.46402685587854
82.47196154726483
88.23376821545739
91.74944686045625
95.65575646601053
94.77683680476082
95.85107194628824
96.53467612726024
96.33936064698253
91.55413138017853
87.84313725490196
83.83916990920882
79.93286030365454
80.81177996490425
76.71015487907225
73.78042267490653
74.46402685587854
72.31555657282368
70.85069047074083
71.1436636911574
71.04600595101854
71.04600595101854
72.02258335240711
72.70618753337911
72.5108720531014
71.63195239185168
70.85069047074083
68.11627374685283
65.77248798352025
66.26077668421455
59.522392614633404
54.24887464713512
55.420767528801406
50.34256504158083
46.72922865644312
42.72526131074998
38.818951705195694
39.69787136644541
35.69390402075227
32.764171816586554
33.3501182574197
30.322728313115128
28.174258030060273
25.732814526588847
23.389028763256274
23.87731746395056
20.947585259784848
18.701457236591136
19.18974593728542
16.260013733119706
14.013885709925994
11.670099946593423
9.326314183260854
9.81460288395514
6.787212939650568
4.638742656595713
5.127031357289998
2.0996414129854277
0.04882887006942855
-2.2949568932631417
-4.638742656595713
-4.150453955901427
-6.201266498817426
-7.666132600900283
-7.275501640344854
-10.205233844510566
-12.45136186770428
-14.795147631036851
-17.13893339436942
-16.650644693675137
-18.60379949645228
-20.068665598535134
-19.775692378118563
-22.705424582284277
-24.95155260547799
-26.318760967421987
-27.881284809643702
-27.49065384908827
-29.541466392004274
-31.00633249408713
-30.615701533531702
-32.56885633630884
-34.0337224383917
-34.717326619363696
-35.49858854047456
-35.303273060196844
-37.256427862973986
-38.72129396505684
-38.33066300450141
-39.40489814602884
-40.08850232700084
-40.86976424811169
-41.651026169222554
-41.45571068894484
-41.45571068894484
-41.45571068894484
-41.45571068894484
-42.43228809033341
-43.11589227130541
-42.92057679102769
-42.92057679102769
-42.92057679102769
-43.89715419241627
-44.580758373388264
-44.38544289311055
-44.48310063324941
-44.38544289311055
-45.362020294499125
-46.14328221560998
-45.947966735332265
-45.947966735332265
-45.947966735332265
-45.947966735332265
-45.85030899519341
-45.85030899519341
-45.85030899519341
-45.85030899519341
-45.85030899519341
-44.873731593804834
-44.09246967269398
-44.28778515297169
-44.19012741283284
-44.19012741283284
-44.19012741283284
-44.19012741283284
-44.19012741283284
-44.19012741283284
-44.09246967269398
-44.09246967269398
-43.11589227130541
-42.43228809033341
-40.67444876783398
-39.11192492561227
-39.40489814602884
-36.475165941863125
-34.22903791866941
-34.717326619363696
-28.857862211032273
-24.4632639047837
-15.869382772564279
-8.252079041733426
-9.912260624093996
1.8066681925688564
10.595864805065995
8.642710002288853
21.533531700617992
31.103990234225986
41.358052948805984
51.416800183108265
49.17067215991455
60.2059967956054
68.21393148699168
66.45609216449226
75.34294651712825
81.98367284657053
85.20637827115281
89.21034561684596
88.33142595559625
92.33539330128939
95.16746776531625
94.48386358434425
95.55809872587167
96.24170290684367
96.04638742656596
96.04638742656596
96.04638742656596
94.09323262378882
92.62836652170596
92.92133974212253
89.89394979781795
87.64782177462425
84.3274586099031
81.20241092545967
81.88601510643167
76.90547035934996
73.19447623407339
74.07339589532312
67.13969634546426
61.96383611810483
57.37392233157855
52.588693064774546
53.66292820630198
47.705806057831694
43.311207751583126
44.19012741283284
38.23300526436255
33.838406958113985
30.029755092698558
26.123445487144274
27.002365148393988
23.87731746395056
21.728847180895706
22.21713588158999
18.310826276035705
15.283436331731137
14.013885709925994
12.45136186770428
12.74433508812085
9.81460288395514
7.568474860761425
8.05676356145571
5.127031357289998
2.8809033340962844
0.537117570763714
-1.7090104524299992
-1.2207217517357138
-7.959105821316854
-13.13496604867628
-11.963073167009995
-21.826504921034562
-29.150835431448844
-36.0845349813077
-43.11589227130541
-41.5533684290837
-47.60814831769284
-52.002746623941405
-51.02616922255284
-53.07698176546884
-54.54184786755169
-52.295719844357976
-50.83085374227512
-51.123826962691695
-46.240939955748836
-42.529945830472265
-43.40886549172198
-38.42832074464027
-34.717326619363696
-34.61966887922484
-33.64309147783627
-33.838406958113985
-35.69390402075227
-37.15877012283513
-36.86579690241855
-38.818951705195694
-40.28381780727855
-40.86976424811169
-41.651026169222554
-41.45571068894484
-43.40886549172198
-44.873731593804834
-44.580758373388264
-45.55733577477684
-46.240939955748836
-47.998779278248264
-49.46364538033112
-49.17067215991455
-50.14724956130312
-50.83085374227512
-50.73319600213626
-50.73319600213626
-50.73319600213626
-51.61211566338598
-52.39337758449683
-52.19806210421912
-52.19806210421912
-52.19806210421912
-52.19806210421912
-53.07698176546884
-53.85824368657969
-53.66292820630198
-53.66292820630198
-53.66292820630198
-53.66292820630198
-53.56527046616312
-53.56527046616312
-53.56527046616312
-53.56527046616312
-52.588693064774546
-51.80743114366369
-52.002746623941405
-51.90508888380255
-51.90508888380255
-51.90508888380255
-51.90508888380255
-51.80743114366369
-51.80743114366369
-51.80743114366369
-51.80743114366369
-51.80743114366369
-51.80743114366369
-51.709773403524835
-51.709773403524835
-51.709773403524835
-51.709773403524835
-51.709773403524835
-51.709773403524835
-49.75661860074769
-48.291752498664835
-48.584725719081405
-44.67841611352712
-41.651026169222554
-36.57282368200198
-31.9829098954757
-32.95948729686427
-24.17029068436713
-17.52956435492485
-18.994430457007706
-8.154421301594567
-0.04882887006942855
9.521629663538567
18.799114976729992
16.748302433813993
27.68596932936599
35.69390402075227
33.93606469825284
43.89715419241627
51.22148470283055
56.20202944991226
61.768520637827116
60.49897001602197
64.60059510185397
67.43266956588083
66.84672312504769
68.79987792782482
70.26474402990769
69.9717708094911
69.9717708094911
69.9717708094911
68.01861600671397
66.55374990463112
66.84672312504769
63.819333180743115
61.67086289768826
58.25284199282826
55.22545204852369
55.81139848935683
50.928511482413974
47.21751735713741
47.998779278248264
43.018234531166556
39.40489814602884
35.4009308003357
31.494621194781413
32.37354085603113
28.27191577019913
25.342183566033416
26.025787747005417
22.998397802700847
20.84992751964599
19.385061417563133
17.82253757534142
18.11551079575799
17.041275654230564
16.357671473258563
16.55298695353628
15.47875181200885
14.795147631036851
14.013885709925994
13.232623788815136
13.330281528953995
12.353704127565424
11.670099946593423
11.767757686732281
10.79118028534371
10.009918364232853
8.349736781872283
6.787212939650568
7.080186160067139
5.127031357289998
3.662165255207141
3.9551384756237127
2.0019836728465705
0.537117570763714
-0.9277485313191425
-2.490272373540856
-2.197299153124285
-4.150453955901427
-5.615320057984283
-5.322346837567712
-7.275501640344854
-8.74036774242771
-10.302891584649425
-11.865415426871138
-11.47478446631571
-13.525597009231708
-14.990463111314565
-14.599832150759136
-16.650644693675137
-18.11551079575799
-18.701457236591136
-19.48271915770199
-19.287403677424276
-21.24055848020142
-22.705424582284277
-22.412451361867703
-23.389028763256274
-24.17029068436713
-25.830472266727703
-27.392996108949415
-27.002365148393988
-28.076600289921416
-28.760204470893417
-28.564888990615703
-29.63912413214313
-30.322728313115128
-30.127412832837415
-30.127412832837415
-30.127412832837415
-31.103990234225986
-31.787594415197987
-31.68993667505913
-31.68993667505913
-31.68993667505913
-31.68993667505913
-31.68993667505913
-31.592278934920273
-34.52201113908598
-36.67048142214084
-36.182192721446555
-41.065079728389414
-44.77607385366598
-48.68238345922026
-52.588693064774546
-51.709773403524835
-53.760585946440834
-55.22545204852369
-54.83482108796826
-53.95590142671855
-53.17463950560769
-50.44022278171969
-48.19409475852598
-48.68238345922026
-42.822919050888835
-38.42832074464027
-39.307240405889985
-34.32669565880827
-30.71335927367056
-28.66254673075456
-26.22110322728313
-26.709391927977418
-26.61173418783856
-26.61173418783856
-26.61173418783856
-24.65857938506142
-23.19371328297856
-19.678034637979707
-16.650644693675137
-17.334248874647134
-11.47478446631571
-6.982528419928283
-7.959105821316854
1.7090104524299992
9.033340962844282
18.89677271686885
28.174258030060273
26.123445487144274
38.91660944533455
48.48706797894255
46.33859769588769
58.25284199282826
67.0420386053254
75.53826199740597
84.13214312962539
82.17898832684826
90.2845807583734
96.04638742656596
94.77683680476082
99.75738155184253
103.37071793698024
105.42153047989623
107.76531624322881
107.17936980239567
108.2536049439231
108.93720912489509
108.74189364461738
107.76531624322881
106.98405432211796
106.2027924010071
105.32387273975738
105.51918822003509
103.56603341725796
102.00350957503625
102.29648279545282
98.39017318989853
95.36278324559396
91.26115815976196
87.35484855420768
88.23376821545739
82.27664606698711
77.78439002059967
78.76096742198825
72.80384527351796
68.4092469672694
63.6240177004654
58.936446173800256
59.91302357518883
54.932478828107115
51.22148470283055
52.002746623941405
47.0222018768597
43.311207751583126
40.38147554741741
37.15877012283513
37.84237430380713
34.81498435950255
32.6665140764477
33.15480277714199
30.127412832837415
27.881284809643702
25.537499046311133
23.19371328297856
23.682001983672848
20.752269779507134
18.506141756313422
18.994430457007706
15.967040512703136
13.81857022964828
11.377126726176853
9.033340962844282
9.619287403677424
6.591897459372854
4.443427176317998
4.931715877012284
0.9277485313191425
-1.9043259327077133
-4.052796215762569
-6.494239719233997
-5.908293278400855
-8.935683222705425
-11.08415350576028
-10.595864805065995
-13.623254749370565
-15.771725032425422
-18.11551079575799
-20.45929655909056
-19.971007858396277
-22.021820401312276
-23.389028763256274
-23.096055542839704
-25.049210345616846
-26.514076447699704
-28.076600289921416
-29.63912413214313
-29.346150911726557
-30.322728313115128
-31.00633249408713
-30.908674753948272
-31.885252155336843
-32.56885633630884
-33.3501182574197
-34.131380178530556
-33.93606469825284
-34.91264209964141
-35.69390402075227
-35.49858854047456
-36.475165941863125
-37.15877012283513
-37.94003204394598
-38.72129396505684
-38.525978484779124
-39.5025558861677
-40.28381780727855
-40.08850232700084
-41.065079728389414
-41.74868390936141
-41.5533684290837
-41.651026169222554
-41.5533684290837
-41.5533684290837
-41.5533684290837
-41.5533684290837
-39.600213626306555
-38.1353475242237
-35.596246280613414
-33.252460517280845
-33.74074921797513
-27.881284809643702
-23.48668650339513
-24.4632639047837
-15.674067292286564
-9.033340962844282
0.04882887006942855
8.44739452201114
6.494239719233997
18.40848401617456
27.1976806286717
25.24452582589456
37.15877012283513
45.947966735332265
53.467612726024264
61.37788967727169
59.62005035477226
67.62798504615854
73.3897917143511
72.12024109254597
78.07736324101626
82.47196154726483
84.3274586099031
86.76890211337454
86.1829556725414
88.13611047531853
89.60097657740138
89.30800335698481
90.2845807583734
90.96818493934539
89.7962920576791
89.1126878767071
89.21034561684596
87.25719081406882
85.6946669718471
85.98764019226367
82.0813305867094
79.15159838254368
74.95231555657283
71.1436636911574
71.92492561226825
62.15915159838254
54.7371633478294
56.39734493018997
43.604180971999696
34.0337224383917
24.65857938506142
15.283436331731137
17.334248874647134
9.228656443121995
3.466849774929427
4.736400396734569
0.6347753109025711
-2.197299153124285
-0.6347753109025711
0.04882887006942855
-0.14648661020828566
3.662165255207141
6.591897459372854
5.908293278400855
9.912260624093996
12.84199282825971
12.158388647287708
12.353704127565424
12.256046387426567
9.42397192339971
7.177843900205997
7.666132600900283
4.736400396734569
2.490272373540856
-0.7324330510414282
-3.8574807354848555
-3.1738765545128556
-7.080186160067139
-10.009918364232853
-9.42397192339971
-12.353704127565424
-14.599832150759136
-16.943617914091707
-19.287403677424276
-18.799114976729992
-21.728847180895706
-23.974975204089418
-23.389028763256274
-26.416418707560844
-28.564888990615703
-30.029755092698558
-31.592278934920273
-31.201647974364842
-33.15480277714199
-34.61966887922484
-34.32669565880827
-36.27985046158541
-37.74471656366827
-39.307240405889985
-40.86976424811169
-40.479133287556266
-42.43228809033341
-43.89715419241627
-43.604180971999696
-45.55733577477684
-47.0222018768597
-47.60814831769284
-48.38941023880369
-48.19409475852598
-49.17067215991455
-49.951934081025406
-49.75661860074769
-50.73319600213626
-51.416800183108265
-51.22148470283055
-51.31914244296941
-51.22148470283055
-51.22148470283055
-51.22148470283055
-51.22148470283055
-48.291752498664835
-46.14328221560998
-42.72526131074998
-39.69787136644541
-40.38147554741741
-33.44777599755856
-28.27191577019913
-29.443808651865414
-19.678034637979707
-12.256046387426567
-3.36919203479057
5.0293736171511405
3.1738765545128556
15.967040512703136
25.537499046311133
23.389028763256274
35.303273060196844
44.09246967269398
52.6863508049134
61.182574196993976
59.32707713435569
67.33501182574197
73.19447623407339
71.8272678721294
76.90547035934996
80.51880674448768
82.56961928740368
84.91340505073624
84.3274586099031
86.37827115281911
87.7454795147631
87.45250629434653
87.45250629434653
87.45250629434653
85.49935149156939
84.03448538948653
84.3274586099031
81.30006866559853
79.05394064240483
79.54222934309911
75.63591973754482
72.60852979324025
68.50690470740825
64.60059510185397
65.47951476310368
59.522392614633404
55.127794308384836
56.006713969634546
49.17067215991455
43.99481193255512
38.42832074464027
32.95948729686427
34.131380178530556
28.174258030060273
23.779659723811704
24.65857938506142
19.678034637979707
16.064698252841993
13.037308308537423
9.912260624093996
10.595864805065995
6.591897459372854
3.662165255207141
4.345769436179141
1.3183794918745708
-0.8300907911802854
-3.1738765545128556
-5.517662317845426
-5.0293736171511405
-7.959105821316854
-10.205233844510566
-9.71694514381628
-13.623254749370565
-16.55298695353628
-18.701457236591136
-21.14290074006256
-20.55695429922942
-24.4632639047837
-27.49065384908827
-26.807049668116274
-29.736781872281988
-31.9829098954757
-33.3501182574197
-35.010299839780274
-34.61966887922484
-37.549401083390556
-39.69787136644541
-39.20958266575113
-41.26039520866713
-42.72526131074998
-45.16670481422141
-47.51049057755398
-46.92454413672083
-48.97535667963683
-50.44022278171969
-50.04959182116426
-51.123826962691695
-51.80743114366369
-53.56527046616312
-55.03013656824598
-54.639505607690545
-56.690318150606544
-58.057526512550545
-57.764553292133975
-58.74113069352254
-59.42473487449455
-60.2059967956054
-60.987258716716255
-60.79194323643854
-61.768520637827116
-62.54978255893797
-62.35446707866026
-62.35446707866026
-62.35446707866026
-62.2568093385214
-62.2568093385214
-62.2568093385214
-61.28023193713283
-60.49897001602197
-60.694285496299685
-58.74113069352254
-57.178606851300835
-53.66292820630198
-50.635538261997404
-51.31914244296941
-47.31517509727627
-44.38544289311055
-44.97138933394369
-40.08850232700084
-36.37750820172427
-31.494621194781413
-26.807049668116274
-27.783627069504846
-18.017853055619135
-10.693522545204852
-12.256046387426567
0.34180209048599985
10.009918364232853
21.24055848020142
32.08056763561456
29.63912413214313
43.50652323186084
53.760585946440834
51.51445792324712
62.45212481879911
70.55771725032426
73.48744945448996
77.58907454032196
76.61249713893339
77.78439002059967
78.46799420157168
78.27267872129397
77.29610131990539
76.51483939879454
74.75700007629511
73.19447623407339
73.58510719462882
69.58113984893568
66.65140764476998
67.23735408560312
62.35446707866026
58.643472953383686
53.760585946440834
49.073014419775696
50.04959182116426
43.11589227130541
37.94003204394598
39.11192492561227
32.178225375753414
27.002365148393988
22.412451361867703
17.724879835202564
18.701457236591136
12.74433508812085
8.349736781872283
9.326314183260854
5.322346837567712
2.392614633401999
-0.7324330510414282
-3.7598229953459983
-3.076218814373999
-6.103608758678568
-8.349736781872283
-7.861448081177996
-10.79118028534371
-13.037308308537423
-15.381094071869994
-17.724879835202564
-17.13893339436942
-20.16632333867399
-22.314793621728846
-21.826504921034562
-24.853894865339132
-27.002365148393988
-30.322728313115128
-33.3501182574197
-32.6665140764477
-35.69390402075227
-37.94003204394598
-37.35408560311284
-40.38147554741741
-42.529945830472265
-44.873731593804834
-47.21751735713741
-46.72922865644312
-48.68238345922026
-50.14724956130312
-49.85427634088655
-52.6863508049134
-54.932478828107115
-56.29968719005112
-57.86221103227283
-57.56923781185626
-58.54581521324483
-59.22941939421683
-59.03410391393912
-60.987258716716255
-62.45212481879911
-63.03807125963226
-63.819333180743115
-63.6240177004654
-64.60059510185397
-65.38185702296482
-65.18654154268711
-66.16311894407569
-66.84672312504769
-67.62798504615854
-68.4092469672694
-68.21393148699168
-68.21393148699168
-68.21393148699168
-68.11627374685283
-69.0928511482414
-69.77645532921339
-68.70222018768597
-67.92095826657511
-68.01861600671397
-68.01861600671397
-68.01861600671397
-68.01861600671397
-67.0420386053254
-66.26077668421455
-63.526359960326545
-61.182574196993976
-61.67086289768826
-56.7879758907454
-53.07698176546884
-53.85824368657969
-46.04562447547112
-40.186160067139696
-30.908674753948272
-22.510109102006563
-24.365606164644845
-11.47478446631571
-2.0019836728465705
-4.052796215762569
7.763790341039139
16.55298695353628
25.146868085755703
33.74074921797513
31.787594415197987
40.772106507972836
47.31517509727627
45.85030899519341
51.90508888380255
56.29968719005112
59.13176165407798
62.2568093385214
61.5732051575494
62.64744029907683
63.33104448004883
63.13572899977112
62.2568093385214
61.475547417410546
59.71770809491112
58.1551842526894
58.44815747310597
54.54184786755169
51.61211566338598
52.19806210421912
47.31517509727627
43.604180971999696
38.62363622491798
34.0337224383917
35.010299839780274
29.053177691309987
24.65857938506142
25.63515678644999
19.678034637979707
15.283436331731137
11.47478446631571
7.568474860761425
8.349736781872283
5.322346837567712
3.1738765545128556
3.662165255207141
0.6347753109025711
-1.416037232013428
-1.9043259327077133
-2.783245593957427
-2.5879301136797133
-4.541084916456855
-6.005951018539712
-5.71297779812314
-7.666132600900283
-9.130998702983138
-10.693522545204852
-12.256046387426567
-11.865415426871138
-13.916227969787137
-15.381094071869994
-14.990463111314565
-17.920195315480278
-20.16632333867399
-21.533531700617992
-23.19371328297856
-22.803082322423133
-25.732814526588847
-27.881284809643702
-27.392996108949415
-29.443808651865414
-30.908674753948272
-32.471198596169984
-34.0337224383917
-33.64309147783627
-39.40489814602884
-43.89715419241627
-42.92057679102769
-50.73319600213626
-56.59266041046769
-62.9404135194934
-69.0928511482414
-67.7256427862974
-71.8272678721294
-74.65934233615626
-74.07339589532312
-73.19447623407339
-72.41321431296254
-69.67879758907453
-67.43266956588083
-67.92095826657511
-61.08491645685512
-55.90905622949569
-56.983291371023114
-50.04959182116426
-44.873731593804834
-43.11589227130541
-40.67444876783398
-41.16273746852827
-41.065079728389414
-41.065079728389414
-41.065079728389414
-41.065079728389414
-41.065079728389414
-41.943999389639124
-42.72526131074998
-42.529945830472265
-42.529945830472265
-42.529945830472265
-42.529945830472265
-42.529945830472265
-42.529945830472265
-43.40886549172198
-44.19012741283284
-43.99481193255512
-43.99481193255512
-43.99481193255512
-43.99481193255512
-43.99481193255512
-43.89715419241627
-43.89715419241627
-43.89715419241627
-43.89715419241627
-43.89715419241627
-43.89715419241627
-43.89715419241627
-42.92057679102769
-42.13931486991684
-42.236972610055695
-42.236972610055695
-42.236972610055695
-42.236972610055695
-42.236972610055695
-42.13931486991684
-42.13931486991684
-42.13931486991684
-41.16273746852827
-40.479133287556266
-40.57679102769512
-40.57679102769512
-40.57679102769512
-40.479133287556266
-40.479133287556266
-40.479133287556266
-39.5025558861677
-38.72129396505684
-38.91660944533455
-36.96345464255741
-35.49858854047456
-35.79156176089113
-30.908674753948272
-27.1976806286717
-21.338216220340275
-15.967040512703136
-17.13893339436942
-5.420004577706569
3.36919203479057
1.3183794918745708
15.185778591592278
25.439841306172273
38.42832074464027
50.83085374227512
47.998779278248264
63.91699092088197
75.63591973754482
72.99916075379568
85.98764019226367
95.46044098573282
102.88242923628596
110.69504844739453
108.93720912489509
115.9685664148928
121.04676890211337
119.87487602044709
123.87884336614023
126.80857557030595
127.10154879072252
127.88281071183337
127.68749523155566
126.71091783016709
125.92965590905622
126.0273136491951
124.07415884641794
122.51163500419624
118.99595635919738
115.9685664148928
116.55451285572595
111.57396810864424
107.86297398336767
108.64423590447852
103.66369115739681
99.95269703212024
94.09323262378882
88.72205691615167
89.89394979781795
82.86259250782025
77.68673228046082
78.85862516212711
71.8272678721294
66.74906538490883
61.182574196993976
55.713740749217976
56.88563363088426
51.80743114366369
48.09643701838712
48.97535667963683
43.99481193255512
40.28381780727855
37.256427862973986
34.131380178530556
34.81498435950255
30.811017013809415
27.881284809643702
28.467231250476843
25.439841306172273
23.291371023117417
19.971007858396277
16.84596017395285
17.52956435492485
13.525597009231708
10.595864805065995
11.279468986037996
7.275501640344854
4.345769436179141
1.2207217517357138
-1.8066681925688564
-1.1230640115968566
-4.150453955901427
-6.298924238956283
-5.810635538261997
-9.81460288395514
-12.74433508812085
-15.869382772564279
-18.994430457007706
-18.310826276035705
-21.338216220340275
-23.48668650339513
-22.998397802700847
-25.92813000686656
-28.174258030060273
-30.518043793392845
-32.86182955672541
-32.27588311589227
-35.303273060196844
-37.4517433432517
-36.96345464255741
-39.014267185473415
-40.479133287556266
-42.04165712977798
-43.50652323186084
-43.21355001144427
-44.19012741283284
-44.873731593804834
-44.77607385366598
-45.75265125505455
-46.43625543602655
-47.21751735713741
-47.998779278248264
-47.80346379797055
-48.78004119935912
-49.46364538033112
-49.26832990005341
-50.24490730144198
-51.02616922255284
-51.80743114366369
-52.588693064774546
-52.39337758449683
-52.39337758449683
-52.39337758449683
-52.295719844357976
-53.27229724574655
-53.95590142671855
-53.85824368657969
-53.85824368657969
-53.85824368657969
-56.690318150606544
-58.8387884336614
-58.350499732967116
-64.20996414129854
-68.60456244754711
-72.31555657282368
-76.22186617837797
-75.34294651712825
-77.4914168001831
-78.85862516212711
-78.56565194171054
-77.58907454032196
-76.8078126192111
-73.19447623407339
-70.16708628976883
-70.75303273060197
-64.89356832227054
-60.401312275883114
-61.37788967727169
-54.44419012741283
-49.26832990005341
-45.654993514915695
-41.651026169222554
-42.529945830472265
-38.525978484779124
-35.596246280613414
-36.182192721446555
-29.346150911726557
-24.17029068436713
-14.892805371175708
-6.39658197909514
-8.252079041733426
3.466849774929427
12.353704127565424
10.302891584649425
24.17029068436713
34.424353398947126
45.45967803463798
56.39734493018997
53.95590142671855
65.96780346379796
74.65934233615626
72.70618753337911
82.66727702754254
89.99160753795681
94.97215228503853
100.53864347295338
99.26909285114824
104.24963759822995
107.86297398336767
107.08171206225681
109.1325246051728
110.49973296711681
110.20675974670024
110.20675974670024
110.20675974670024
109.1325246051728
108.35126268406195
108.54657816433966
106.59342336156253
105.0308995193408
101.51522087434195
98.48783093003739
99.07377737087053
93.2143129625391
88.72205691615167
89.69863431754024
83.74151216906996
79.24925612268254
72.60852979324025
66.3584344243534
67.7256427862974
60.79194323643854
55.61608300907912
56.690318150606544
49.75661860074769
44.580758373388264
40.96742198825055
36.96345464255741
37.84237430380713
32.86182955672541
29.150835431448844
30.029755092698558
26.025787747005417
23.096055542839704
20.84992751964599
18.40848401617456
18.994430457007706
14.990463111314565
12.060730907148852
12.74433508812085
9.71694514381628
7.470817120622568
4.150453955901427
1.1230640115968566
1.8066681925688564
-2.0996414129854277
-5.0293736171511405
-4.345769436179141
-7.373159380483711
-9.521629663538567
-12.939650568398566
-15.967040512703136
-15.283436331731137
-18.310826276035705
-20.45929655909056
-19.971007858396277
-22.998397802700847
-25.146868085755703
-27.49065384908827
-29.834439612420844
-29.346150911726557
-32.27588311589227
-34.52201113908598
-33.93606469825284
-35.98687724116884
-37.4517433432517
-39.99084458686198
-42.236972610055695
-41.74868390936141
-43.70183871213855
-45.16670481422141
-44.873731593804834
-45.85030899519341
-46.533913176165406
-48.291752498664835
-49.75661860074769
-49.46364538033112
-50.44022278171969
-51.22148470283055
-51.02616922255284
-52.002746623941405
-52.6863508049134
-53.467612726024264
-54.24887464713512
-54.053559166857404
-55.03013656824598
-55.713740749217976
-55.51842526894026
-55.61608300907912
-55.51842526894026
-56.49500267032883
-57.178606851300835
-56.983291371023114
-57.08094911116198
-56.983291371023114
-56.983291371023114
-56.983291371023114
-56.983291371023114
-56.983291371023114
-56.88563363088426
-56.88563363088426
-55.90905622949569
-55.22545204852369
-55.32310978866255
-56.20202944991226
-56.983291371023114
-56.7879758907454
-56.7879758907454
-56.7879758907454
-56.7879758907454
-56.690318150606544
-56.690318150606544
-56.690318150606544
-56.690318150606544
-56.690318150606544
-56.690318150606544
-56.59266041046769
-53.760585946440834
-51.51445792324712
-52.002746623941405
-47.998779278248264
-45.069047074082555
-38.03768978408484
-31.9829098954757
-33.3501182574197
-22.510109102006563
-14.404516670481422
-16.16235599298085
-2.392614633401999
7.763790341039139
19.775692378118563
31.494621194781413
28.857862211032273
42.822919050888835
53.07698176546884
50.73319600213626
63.6240177004654
73.19447623407339
79.63988708323797
86.76890211337454
85.10872053101396
91.1635004196231
95.55809872587167
94.5815213244831
98.58548867017625
101.41756313420309
101.71053635461966
102.58945601586939
102.29648279545282
98.48783093003739
95.55809872587167
96.14404516670481
88.33142595559625
82.37430380712597
75.04997329671168
68.11627374685283
69.58113984893568
62.54978255893797
57.471580071717405
58.54581521324483
54.44419012741283
51.51445792324712
50.24490730144198
48.584725719081405
48.97535667963683
49.85427634088655
50.53788052185855
50.34256504158083
50.34256504158083
50.34256504158083
46.533913176165406
43.50652323186084
44.19012741283284
37.35408560311284
32.178225375753414
33.3501182574197
27.295338368810558
22.90074006256199
19.092088197146563
15.185778591592278
16.064698252841993
12.060730907148852
9.130998702983138
9.71694514381628
5.810635538261997
2.783245593957427
0.6347753109025711
-1.6113527122911422
-1.1230640115968566
-5.0293736171511405
-7.959105821316854
-7.373159380483711
-11.279468986037996
-14.209201190203707
-17.43190661478599
-20.55695429922942
-19.775692378118563
-23.779659723811704
-26.709391927977418
-26.025787747005417
-30.029755092698558
-32.95948729686427
-35.10795757991913
-37.4517433432517
-36.96345464255741
-39.893186846723125
-42.13931486991684
-41.651026169222554
-44.580758373388264
-46.72922865644312
-48.19409475852598
-49.75661860074769
-49.365987640192266
-51.31914244296941
-52.78400854505226
-52.49103532463569
-54.44419012741283
-55.90905622949569
-56.49500267032883
-57.27626459143969
-57.08094911116198
-58.057526512550545
-58.74113069352254
-58.643472953383686
-59.62005035477226
-60.30365453574426
-61.08491645685512
-61.86617837796597
-61.67086289768826
-61.67086289768826
-61.5732051575494
-61.5732051575494
-61.5732051575494
-61.5732051575494
-61.5732051575494
-61.475547417410546
-61.475547417410546
-61.475547417410546
-61.475547417410546
-61.475547417410546
-61.37788967727169
-61.37788967727169
-61.37788967727169
-61.37788967727169
-61.37788967727169
-60.401312275883114
-59.62005035477226
-59.71770809491112
-59.71770809491112
-59.71770809491112
-59.71770809491112
-59.62005035477226
-59.62005035477226
-58.643472953383686
-57.86221103227283
-58.057526512550545
-57.95986877241169
-57.95986877241169
-56.983291371023114
-56.20202944991226
-56.39734493018997
-55.420767528801406
-54.639505607690545
-54.7371633478294
-53.760585946440834
-52.97932402532997
-49.365987640192266
-46.33859769588769
-47.0222018768597
-41.065079728389414
-36.67048142214084
-37.64705882352941
-28.760204470893417
-22.119478141451133
-12.158388647287708
-2.8809033340962844
-4.931715877012284
7.763790341039139
17.334248874647134
15.185778591592278
29.053177691309987
39.307240405889985
48.48706797894255
57.86221103227283
55.81139848935683
65.77248798352025
73.09681849393453
71.43663691157397
78.46799420157168
83.54619668879225
86.1829556725414
89.40566109712367
88.62439917601282
90.67521171892882
92.14007782101167
91.74944686045625
90.87052719920653
90.08926527809568
88.33142595559625
86.76890211337454
87.06187533379111
84.13214312962539
81.88601510643167
82.27664606698711
77.39375906004425
73.68276493476768
68.79987792782482
64.11230640115969
65.08888380254825
59.13176165407798
54.7371633478294
55.713740749217976
48.78004119935912
43.604180971999696
39.99084458686198
35.98687724116884
36.86579690241855
32.764171816586554
29.834439612420844
30.518043793392845
26.514076447699704
23.58434424353399
22.314793621728846
20.654612039368278
21.045242999923705
18.11551079575799
15.869382772564279
16.357671473258563
14.306858930342566
12.84199282825971
11.279468986037996
9.71694514381628
10.10757610437171
7.080186160067139
4.931715877012284
5.420004577706569
3.36919203479057
1.9043259327077133
-0.537117570763714
-2.783245593957427
-2.2949568932631417
-5.322346837567712
-7.470817120622568
-6.982528419928283
-10.009918364232853
-12.158388647287708
-14.50217441062028
-16.84596017395285
-16.357671473258563
-21.24055848020142
-24.95155260547799
-24.072632944228275
-32.86182955672541
-39.5025558861677
-45.654993514915695
-51.90508888380255
-50.44022278171969
-54.54184786755169
-57.471580071717405
-56.7879758907454
-57.86221103227283
-58.54581521324483
-56.49500267032883
-55.03013656824598
-55.32310978866255
-50.44022278171969
-46.72922865644312
-47.60814831769284
-42.62760357061112
-38.91660944533455
-37.84237430380713
-36.0845349813077
-36.475165941863125
-37.35408560311284
-38.1353475242237
-37.94003204394598
-37.94003204394598
-37.94003204394598
-38.818951705195694
-39.600213626306555
-39.40489814602884
-39.40489814602884
-39.40489814602884
-39.40489814602884
-39.40489814602884
-39.40489814602884
-39.40489814602884
-39.307240405889985
-39.307240405889985
-39.307240405889985
-39.307240405889985
-39.307240405889985
-40.28381780727855
-40.96742198825055
-40.772106507972836
-40.86976424811169
-40.772106507972836
-40.772106507972836
-40.772106507972836
-40.772106507972836
-40.772106507972836
-40.772106507972836
-38.818951705195694
-37.35408560311284
-37.64705882352941
-33.74074921797513
-30.811017013809415
-31.396963454642556
-24.560921644922562
-19.385061417563133
-10.009918364232853
-1.6113527122911422
-3.466849774929427
10.205233844510566
20.45929655909056
18.21316853589685
33.05714503700313
43.99481193255512
56.88563363088426
69.28816662851911
66.45609216449226
80.42114900434882
90.67521171892882
88.33142595559625
99.3667505912871
107.37468528267338
113.13649195086595
119.48424505989166
118.01937895780881
124.07415884641794
128.37109941252766
127.39452201113909
130.42191195544365
132.57038223849852
132.96101319905395
133.7422751201648
133.5469596398871
133.5469596398871
133.5469596398871
133.44930189974824
132.47272449835967
131.69146257724879
128.9570458533608
126.61326009002823
127.10154879072252
123.09758144502938
120.16784924086366
120.7537956816968
114.89433127336538
110.40207522697796
104.64026855878538
99.17143511100939
100.34332799267567
92.43305104142824
86.57358663309682
87.84313725490196
79.83520256351568
73.97573815518425
68.60456244754711
63.03807125963226
64.20996414129854
57.27626459143969
52.10040436408026
53.27229724574655
47.21751735713741
42.822919050888835
39.014267185473415
35.10795757991913
35.98687724116884
31.00633249408713
27.295338368810558
28.076600289921416
24.072632944228275
21.14290074006256
17.041275654230564
13.13496604867628
14.013885709925994
10.009918364232853
7.080186160067139
7.666132600900283
2.783245593957427
-0.8300907911802854
-4.736400396734569
-8.642710002288853
-7.763790341039139
-11.767757686732281
-14.697489890897993
-14.013885709925994
-18.017853055619135
-20.947585259784848
-24.072632944228275
-27.1976806286717
-26.514076447699704
-29.541466392004274
-31.68993667505913
-31.201647974364842
-34.131380178530556
-36.37750820172427
-38.72129396505684
-41.065079728389414
-40.479133287556266
-42.529945830472265
-43.99481193255512
-43.604180971999696
-45.55733577477684
-47.0222018768597
-49.56130312046998
-51.90508888380255
-51.31914244296941
-52.39337758449683
-53.07698176546884
-52.881666285191116
-54.83482108796826
-56.29968719005112
-57.86221103227283
-59.42473487449455
-59.03410391393912
-60.01068131532769
-60.79194323643854
-60.59662775616083
-60.59662775616083
-60.59662775616083
-60.59662775616083
-60.49897001602197
-60.49897001602197
-59.522392614633404
-58.74113069352254
-58.936446173800256
-56.006713969634546
-53.760585946440834
-48.48706797894255
-43.89715419241627
-44.97138933394369
-37.06111238269627
-31.201647974364842
-32.471198596169984
-20.752269779507134
-11.865415426871138
-1.416037232013428
8.545052262149996
6.39658197909514
20.16632333867399
30.518043793392845
28.174258030060273
40.186160067139696
48.97535667963683
55.51842526894026
62.64744029907683
61.08491645685512
65.18654154268711
68.11627374685283
67.43266956588083
64.69825284199283
62.35446707866026
58.057526512550545
54.24887464713512
55.127794308384836
52.97932402532997
51.51445792324712
51.80743114366369
51.709773403524835
51.709773403524835
54.54184786755169
56.7879758907454
56.29968719005112
60.2059967956054
63.13572899977112
62.45212481879911
64.50293736171511
65.8701457236591
62.745098039215684
60.49897001602197
60.987258716716255
53.17463950560769
47.31517509727627
48.584725719081405
40.67444876783398
34.717326619363696
28.369573510337986
22.21713588158999
23.58434424353399
17.52956435492485
13.13496604867628
14.11154345006485
9.130998702983138
5.420004577706569
2.392614633401999
-0.6347753109025711
0.04882887006942855
-2.9785610742351416
-5.127031357289998
-4.638742656595713
-7.666132600900283
-9.81460288395514
-12.158388647287708
-14.50217441062028
-14.013885709925994
-16.943617914091707
-19.18974593728542
-18.701457236591136
-21.63118944075685
-23.87731746395056
-27.1976806286717
-30.22507057297627
-29.541466392004274
-32.56885633630884
-34.717326619363696
-34.22903791866941
-37.15877012283513
-39.40489814602884
-41.74868390936141
-44.09246967269398
-43.50652323186084
-45.55733577477684
-47.0222018768597
-46.63157091630426
-49.56130312046998
-51.80743114366369
-53.17463950560769
-54.7371633478294
-54.346532387273975
-56.39734493018997
-57.86221103227283
-57.471580071717405
-59.42473487449455
-60.8896009765774
-62.45212481879911
-64.01464866102083
-63.6240177004654
-65.57717250324254
-67.0420386053254
-66.65140764476998
-68.60456244754711
-70.06942854962998
-70.65537499046312
-71.53429465171283
-71.33897917143511
-71.33897917143511
-71.24132143129626
-71.24132143129626
-70.26474402990769
-69.48348210879682
-67.7256427862974
-66.16311894407569
-66.55374990463112
-62.64744029907683
-59.62005035477226
-60.30365453574426
-52.49103532463569
-46.533913176165406
-37.35408560311284
-28.857862211032273
-30.71335927367056
-16.943617914091707
-6.591897459372854
-8.935683222705425
5.810635538261997
16.84596017395285
27.783627069504846
38.72129396505684
36.27985046158541
48.19409475852598
56.983291371023114
55.03013656824598
64.01464866102083
70.55771725032426
74.85465781643397
79.63988708323797
78.46799420157168
81.5930418860151
83.74151216906996
83.25322346837568
85.20637827115281
86.67124437323568
85.30403601129167
84.62043183031967
84.81574731059739
83.74151216906996
82.96025024795911
83.15556572823682
80.2258335240711
77.97970550087739
73.68276493476768
69.77645532921339
70.65537499046312
64.69825284199283
60.30365453574426
61.182574196993976
54.346532387273975
49.17067215991455
42.62760357061112
36.37750820172427
37.74471656366827
30.811017013809415
25.63515678644999
26.807049668116274
19.87335011825742
14.697489890897993
11.08415350576028
7.080186160067139
7.959105821316854
2.9785610742351416
-0.537117570763714
0.14648661020828566
-3.7598229953459983
-6.6895551995117115
-8.935683222705425
-11.279468986037996
-10.79118028534371
-13.720912489509422
-15.967040512703136
-15.47875181200885
-18.40848401617456
-20.55695429922942
-22.998397802700847
-25.24452582589456
-24.756237125200276
-28.66254673075456
-31.592278934920273
-31.00633249408713
-33.93606469825284
-36.182192721446555
-38.525978484779124
-40.86976424811169
-40.28381780727855
-43.311207751583126
-45.45967803463798
-44.97138933394369
-47.90112153810941
-50.14724956130312
-51.51445792324712
-53.07698176546884
-52.6863508049134
-54.639505607690545
-56.1043717097734
-55.81139848935683
-57.764553292133975
-59.22941939421683
-60.79194323643854
-62.35446707866026
-61.96383611810483
-62.9404135194934
-63.6240177004654
-63.526359960326545
-64.40527962157626
-65.18654154268711
-66.84672312504769
-68.4092469672694
-68.01861600671397
-70.94834821087969
-73.09681849393453
-72.60852979324025
-78.46799420157168
-82.86259250782025
-86.57358663309682
-90.47989623865111
-89.60097657740138
-90.77286945906768
-91.35881589990082
-91.26115815976196
-87.45250629434653
-84.42511635004196
-75.53826199740597
-67.92095826657511
-69.58113984893568
-54.83482108796826
-43.79949645227741
-46.240939955748836
-28.467231250476843
-15.185778591592278
-1.9043259327077133
11.279468986037996
8.349736781872283
23.291371023117417
34.22903791866941
31.787594415197987
44.77607385366598
54.24887464713512
63.6240177004654
72.99916075379568
70.85069047074083
78.95628290226597
84.71808957045853
83.4485389486534
88.4290836957351
92.04242008087282
94.09323262378882
96.43701838712138
95.9487296864271
96.92530708781567
97.60891126878766
97.41359578850995
96.53467612726024
95.75341420614939
93.01899748226138
90.67521171892882
91.1635004196231
87.25719081406882
84.22980086976425
84.91340505073624
79.93286030365454
76.22186617837797
70.36240177004655
64.89356832227054
66.06546120393683
59.13176165407798
53.95590142671855
55.127794308384836
47.21751735713741
41.26039520866713
35.889219501029984
30.420386053253985
31.592278934920273
25.63515678644999
21.24055848020142
22.21713588158999
16.260013733119706
11.767757686732281
8.935683222705425
5.810635538261997
6.494239719233997
2.490272373540856
-0.34180209048599985
0.24414435034714274
-3.662165255207141
-6.591897459372854
-8.838025482566568
-11.181811245899137
-10.595864805065995
-14.599832150759136
-17.52956435492485
-16.84596017395285
-19.87335011825742
-22.021820401312276
-25.342183566033416
-28.467231250476843
-27.783627069504846
-30.71335927367056
-32.95948729686427
-32.471198596169984
-35.4009308003357
-37.549401083390556
-39.99084458686198
-42.236972610055695
-41.74868390936141
-43.79949645227741
-45.16670481422141
-44.873731593804834
-47.80346379797055
-49.951934081025406
-51.416800183108265
-52.97932402532997
-52.588693064774546
-54.54184786755169
-56.006713969634546
-55.61608300907912
-57.66689555199512
-59.03410391393912
-60.59662775616083
-62.15915159838254
-61.86617837796597
-62.84275577935454
-63.526359960326545
-63.33104448004883
-64.3076218814374
-64.9912260624094
-64.89356832227054
-64.89356832227054
-64.79591058213168
-64.79591058213168
-64.79591058213168
-64.79591058213168
-64.79591058213168
-64.69825284199283
-62.84275577935454
-61.28023193713283
-61.5732051575494
-58.643472953383686
-56.39734493018997
-56.88563363088426
-51.02616922255284
-46.63157091630426
-38.03768978408484
-30.322728313115128
-32.08056763561456
-19.287403677424276
-9.71694514381628
-11.767757686732281
1.9043259327077133
12.256046387426567
24.267948424505988
35.889219501029984
33.252460517280845
47.21751735713741
57.471580071717405
55.22545204852369
65.18654154268711
72.5108720531014
78.46799420157168
84.81574731059739
83.35088120851454
87.45250629434653
90.2845807583734
89.69863431754024
91.65178912031739
93.11665522240024
92.72602426184481
92.82368200198367
92.72602426184481
91.74944686045625
90.96818493934539
91.1635004196231
88.23376821545739
85.98764019226367
81.69069962615396
77.78439002059967
78.6633096818494
72.70618753337911
68.21393148699168
69.19050888838025
62.2568093385214
57.08094911116198
50.635538261997404
44.38544289311055
45.75265125505455
37.84237430380713
31.885252155336843
33.252460517280845
26.22110322728313
21.045242999923705
16.45532921339742
11.767757686732281
12.84199282825971
7.763790341039139
4.150453955901427
4.931715877012284
0.9277485313191425
-1.9043259327077133
-5.0293736171511405
-8.154421301594567
-7.470817120622568
-10.498207064927138
-12.646677347981994
-12.158388647287708
-15.185778591592278
-17.334248874647134
-19.678034637979707
-22.021820401312276
-21.533531700617992
-28.27191577019913
-33.44777599755856
-32.27588311589227
-41.16273746852827
-47.80346379797055
-54.83482108796826
-61.86617837796597
-60.30365453574426
-65.38185702296482
-68.99519340810254
-68.21393148699168
-70.26474402990769
-71.63195239185168
-69.38582436865796
-68.01861600671397
-68.31158922713054
-62.45212481879911
-57.95986877241169
-58.936446173800256
-53.95590142671855
-50.24490730144198
-50.14724956130312
-49.17067215991455
-49.365987640192266
-52.19806210421912
-54.346532387273975
-53.85824368657969
-55.90905622949569
-57.27626459143969
-58.8387884336614
-60.401312275883114
-60.01068131532769
-62.061493858243686
-63.42870222018769
-63.13572899977112
-64.11230640115969
-64.79591058213168
-65.57717250324254
-66.3584344243534
-66.16311894407569
-66.16311894407569
-66.16311894407569
-66.16311894407569
-65.18654154268711
-64.40527962157626
-62.64744029907683
-61.08491645685512
-61.37788967727169
-56.59266041046769
-52.881666285191116
-53.66292820630198
-47.705806057831694
-43.311207751583126
-34.717326619363696
-27.002365148393988
-28.760204470893417
-16.943617914091707
-8.05676356145571
-10.009918364232853
3.662165255207141
14.013885709925994
24.072632944228275
34.22903791866941
31.9829098954757
43.018234531166556
51.02616922255284
49.26832990005341
57.27626459143969
63.03807125963226
66.55374990463112
70.4600595101854
69.58113984893568
72.60852979324025
74.75700007629511
74.26871137560083
74.36636911573969
74.36636911573969
72.41321431296254
70.85069047074083
71.24132143129626
68.21393148699168
65.96780346379796
66.45609216449226
61.5732051575494
57.86221103227283
52.97932402532997
48.291752498664835
49.26832990005341
42.33463035019455
37.256427862973986
38.33066300450141
30.420386053253985
24.560921644922562
18.21316853589685
11.963073167009995
13.330281528953995
6.39658197909514
1.2207217517357138
2.392614633401999
-2.5879301136797133
-6.201266498817426
-9.228656443121995
-12.353704127565424
-11.670099946593423
-14.697489890897993
-16.84596017395285
-16.357671473258563
-18.40848401617456
-19.87335011825742
-21.43587396047913
-22.998397802700847
-22.60776684214542
-24.560921644922562
-26.025787747005417
-25.732814526588847
-28.66254673075456
-30.908674753948272
-32.27588311589227
-33.838406958113985
-33.44777599755856
-35.49858854047456
-36.96345464255741
-36.57282368200198
-39.5025558861677
-41.74868390936141
-44.09246967269398
-46.43625543602655
-45.85030899519341
-48.78004119935912
-51.02616922255284
-50.53788052185855
-53.467612726024264
-55.61608300907912
-57.08094911116198
-58.643472953383686
-58.25284199282826
-60.2059967956054
-61.67086289768826
-61.28023193713283
-63.33104448004883
-64.69825284199283
-65.38185702296482
-66.16311894407569
-65.96780346379796
-66.94438086518655
-67.62798504615854
-67.43266956588083
-68.4092469672694
-69.0928511482414
-68.89753566796368
-68.99519340810254
-68.89753566796368
-68.89753566796368
-68.89753566796368
-68.89753566796368
-68.79987792782482
-68.79987792782482
-68.79987792782482
-68.79987792782482
-68.79987792782482
-67.82330052643626
-67.0420386053254
-67.13969634546426
-67.13969634546426
-67.0420386053254
-67.0420386053254
-67.0420386053254
-67.0420386053254
-67.0420386053254
-66.94438086518655
-66.94438086518655
-66.94438086518655
-66.94438086518655
-65.96780346379796
-65.18654154268711
-65.28419928282597
-64.3076218814374
-63.526359960326545
-63.72167544060426
-61.768520637827116
-60.2059967956054
-59.62005035477226
-58.74113069352254
-58.936446173800256
-56.983291371023114
-55.420767528801406
-55.81139848935683
-54.7371633478294
-53.95590142671855
-53.17463950560769
-52.39337758449683
-52.49103532463569
-51.51445792324712
-50.73319600213626
-50.928511482413974
-48.97535667963683
-47.51049057755398
-45.85030899519341
-44.28778515297169
-44.580758373388264
-44.580758373388264
-44.580758373388264
-44.48310063324941
-43.50652323186084
-42.822919050888835
-38.1353475242237
-34.424353398947126
-35.20561532005799
-24.560921644922562
-16.357671473258563
-18.21316853589685
-0.6347753109025711
12.549019607843137
29.63912413214313
45.947966735332265
42.236972610055695
64.11230640115969
80.2258335240711
76.61249713893339
94.5815213244831
107.66765850308995
116.16388189517052
125.73434042877851
123.58587014572366
127.78515297169452
130.61722743572136
129.93362325474936
131.0078583962768
131.69146257724879
130.5195696955825
129.8359655146105
129.93362325474936
127.00389105058366
124.66010528725108
125.14839398794537
120.26550698100252
116.55451285572595
111.57396810864424
106.8863965819791
107.86297398336767
100.92927443350881
95.75341420614939
96.92530708781567
88.91737239642939
83.05790798809797
76.71015487907225
70.4600595101854
71.8272678721294
64.79591058213168
59.62005035477226
60.79194323643854
55.713740749217976
52.002746623941405
48.09643701838712
44.19012741283284
44.97138933394369
40.96742198825055
38.03768978408484
38.62363622491798
35.69390402075227
33.44777599755856
30.127412832837415
27.002365148393988
27.68596932936599
24.65857938506142
22.510109102006563
22.90074006256199
19.971007858396277
17.724879835202564
14.404516670481422
11.377126726176853
12.060730907148852
9.033340962844282
6.787212939650568
7.275501640344854
3.36919203479057
0.43945983062485694
-1.7090104524299992
-4.052796215762569
-3.5645075150682843
-6.494239719233997
-8.74036774242771
-8.252079041733426
-12.158388647287708
-15.088120851453422
-17.334248874647134
-19.678034637979707
-19.18974593728542
-22.119478141451133
-24.267948424505988
-23.779659723811704
-26.807049668116274
-28.95551995117113
-30.420386053253985
-31.9829098954757
-31.592278934920273
-34.52201113908598
-36.768139162279695
-36.27985046158541
-38.23300526436255
-39.69787136644541
-40.28381780727855
-41.065079728389414
-40.86976424811169
-41.943999389639124
-42.62760357061112
-42.43228809033341
-43.40886549172198
-44.19012741283284
-44.873731593804834
-45.654993514915695
-45.45967803463798
-46.43625543602655
-47.21751735713741
-47.0222018768597
-47.0222018768597
-47.0222018768597
-47.0222018768597
-47.0222018768597
-46.92454413672083
-46.92454413672083
-46.92454413672083
-46.92454413672083
-47.90112153810941
-48.584725719081405
-48.38941023880369
-48.38941023880369
-48.38941023880369
-48.38941023880369
-48.38941023880369
-48.38941023880369
-48.38941023880369
-48.291752498664835
-48.291752498664835
-48.291752498664835
-48.291752498664835
-48.291752498664835
-48.291752498664835
-48.291752498664835
-47.31517509727627
-46.533913176165406
-45.75265125505455
-44.873731593804834
-45.069047074082555
-44.09246967269398
-43.311207751583126
-43.50652323186084
-40.57679102769512
-38.33066300450141
-34.0337224383917
-30.22507057297627
-31.00633249408713
-23.19371328297856
-17.334248874647134
-18.60379949645228
-7.763790341039139
0.24414435034714274
11.767757686732281
22.510109102006563
20.16632333867399
35.010299839780274
46.04562447547112
43.50652323186084
58.350499732967116
69.38582436865796
78.37033646143283
87.84313725490196
85.6946669718471
94.67917906462196
101.22224765392538
99.75738155184253
105.81216144045166
110.10910200656139
111.96459906919966
114.4060425726711
113.82009613183794
114.89433127336538
115.57793545433738
115.38261997405966
114.4060425726711
113.62478065156023
111.86694132906081
110.3044174868391
110.59739070725567
106.69108110170139
103.66369115739681
104.24963759822995
98.39017318989853
93.8979171435111
88.23376821545739
82.7649347676814
83.93682764934768
77.00312809948882
71.8272678721294
72.90150301365682
64.9912260624094
59.13176165407798
54.639505607690545
49.85427634088655
50.928511482413974
42.04165712977798
35.4009308003357
36.86579690241855
26.025787747005417
17.920195315480278
10.205233844510566
2.392614633401999
4.150453955901427
-1.9043259327077133
-6.298924238956283
-5.322346837567712
-7.470817120622568
-8.838025482566568
-6.591897459372854
-5.224689097428855
-5.517662317845426
-1.6113527122911422
1.2207217517357138
0.537117570763714
4.541084916456855
7.470817120622568
7.763790341039139
8.642710002288853
8.44739452201114
4.638742656595713
1.7090104524299992
2.392614633401999
-1.513694972152285
-4.443427176317998
-6.6895551995117115
-9.033340962844282
-8.545052262149996
-11.47478446631571
-13.720912489509422
-13.13496604867628
-16.16235599298085
-18.310826276035705
-20.752269779507134
-23.096055542839704
-22.510109102006563
-25.537499046311133
-27.68596932936599
-27.1976806286717
-30.127412832837415
-32.37354085603113
-33.74074921797513
-35.303273060196844
-35.010299839780274
-35.98687724116884
-36.67048142214084
-36.57282368200198
-38.42832074464027
-39.893186846723125
-40.57679102769512
-41.358052948805984
-41.16273746852827
-42.13931486991684
-42.822919050888835
-42.72526131074998
-43.70183871213855
-44.38544289311055
-44.19012741283284
-44.19012741283284
-44.19012741283284
-45.16670481422141
-45.85030899519341
-45.654993514915695
-45.75265125505455
-45.654993514915695
-46.63157091630426
-47.412832837415124
-47.21751735713741
-47.21751735713741
-47.21751735713741
-47.21751735713741
-47.11985961699855
-47.11985961699855
-47.11985961699855
-47.11985961699855
-47.11985961699855
-47.11985961699855
-47.0222018768597
-47.0222018768597
-47.0222018768597
-47.0222018768597
-46.04562447547112
-45.26436255436027
-45.45967803463798
-44.48310063324941
-43.70183871213855
-43.79949645227741
-40.96742198825055
-38.72129396505684
-34.424353398947126
-30.615701533531702
-31.396963454642556
-22.60776684214542
-15.967040512703136
-17.43190661478599
-5.615320057984283
3.076218814373999
15.47875181200885
27.002365148393988
24.4632639047837
39.307240405889985
50.34256504158083
47.90112153810941
61.768520637827116
72.02258335240711
81.20241092545967
90.57755397878996
88.4290836957351
97.41359578850995
103.95666437781338
102.49179827573053
107.5700007629511
111.18333714808881
113.2341496910048
115.57793545433738
114.99198901350424
115.0896467536431
114.99198901350424
114.99198901350424
114.01541161211567
113.2341496910048
111.47631036850538
109.91378652628366
110.20675974670024
105.32387273975738
101.6128786144808
102.39414053559167
97.41359578850995
93.70260166323338
87.7454795147631
82.37430380712597
83.54619668879225
75.63591973754482
69.67879758907453
70.94834821087969
64.01464866102083
58.8387884336614
52.295719844357976
46.14328221560998
47.51049057755398
41.45571068894484
37.06111238269627
38.03768978408484
32.95948729686427
29.346150911726557
25.342183566033416
21.43587396047913
22.314793621728846
18.310826276035705
15.381094071869994
15.967040512703136
12.939650568398566
10.79118028534371
7.470817120622568
4.345769436179141
5.0293736171511405
2.0019836728465705
-0.04882887006942855
0.34180209048599985
-3.466849774929427
-6.494239719233997
-9.619287403677424
-12.74433508812085
-12.060730907148852
-14.990463111314565
-17.236591134508277
-16.748302433813993
-20.654612039368278
-23.58434424353399
-25.830472266727703
-28.174258030060273
-27.588311589227132
-30.615701533531702
-32.764171816586554
-32.27588311589227
-35.303273060196844
-37.4517433432517
-39.79552910658427
-42.13931486991684
-41.5533684290837
-43.604180971999696
-45.069047074082555
-44.67841611352712
-47.60814831769284
-49.85427634088655
-50.24490730144198
-51.123826962691695
-50.928511482413974
-52.881666285191116
-54.346532387273975
-53.95590142671855
-54.932478828107115
-55.713740749217976
-56.49500267032883
-57.178606851300835
-57.08094911116198
-59.91302357518883
-62.15915159838254
-61.5732051575494
-67.43266956588083
-71.8272678721294
-76.51483939879454
-81.20241092545967
-80.12817578393225
-83.25322346837568
-85.40169375143053
-84.81574731059739
-83.93682764934768
-83.15556572823682
-80.42114900434882
-78.17502098115511
-78.6633096818494
-72.80384527351796
-68.31158922713054
-69.28816662851911
-64.3076218814374
-60.59662775616083
-58.54581521324483
-56.1043717097734
-56.59266041046769
-55.51842526894026
-54.83482108796826
-54.932478828107115
-52.97932402532997
-51.51445792324712
-47.998779278248264
-44.873731593804834
-45.55733577477684
-37.74471656366827
-31.885252155336843
-33.15480277714199
-23.291371023117417
-15.967040512703136
-5.127031357289998
4.736400396734569
2.490272373540856
15.47875181200885
24.95155260547799
22.803082322423133
34.81498435950255
43.604180971999696
51.123826962691695
59.03410391393912
57.178606851300835
64.3076218814374
69.38582436865796
68.21393148699168
72.21789883268482
75.14763103685054
75.44060425726711
76.31952391851682
76.02655069810025
75.14763103685054
74.36636911573969
74.46402685587854
72.5108720531014
71.04600595101854
67.53032730601969
64.50293736171511
65.08888380254825
59.22941939421683
54.7371633478294
55.713740749217976
49.75661860074769
45.362020294499125
40.57679102769512
35.889219501029984
36.96345464255741
30.029755092698558
24.853894865339132
26.025787747005417
20.947585259784848
17.334248874647134
14.306858930342566
11.08415350576028
11.865415426871138
8.838025482566568
6.591897459372854
7.080186160067139
5.0293736171511405
3.5645075150682843
2.0019836728465705
0.43945983062485694
0.8300907911802854
-0.14648661020828566
-0.8300907911802854
-0.7324330510414282
-2.68558785381857
-4.150453955901427
-5.71297779812314
-7.275501640344854
-6.884870679789426
-8.838025482566568
-10.302891584649425
-10.009918364232853
-11.963073167009995
-13.427939269092851
-15.088120851453422
-16.55298695353628
-16.260013733119706
-18.21316853589685
-19.678034637979707
-19.385061417563133
-22.314793621728846
-24.4632639047837
-25.92813000686656
-27.49065384908827
-27.100022888532845
-29.150835431448844
-30.518043793392845
-30.22507057297627
-32.178225375753414
-33.64309147783627
-34.22903791866941
-35.10795757991913
-34.91264209964141
-36.86579690241855
-38.33066300450141
-37.94003204394598
-39.014267185473415
-39.69787136644541
-40.479133287556266
-41.26039520866713
-41.065079728389414
-42.04165712977798
-42.72526131074998
-42.529945830472265
-43.50652323186084
-44.28778515297169
-44.09246967269398
-44.09246967269398
-44.09246967269398
-44.09246967269398
-44.09246967269398
-44.09246967269398
-44.97138933394369
-45.75265125505455
-45.55733577477684
-45.55733577477684
-45.55733577477684
-45.55733577477684
-45.55733577477684
-45.45967803463798
-45.45967803463798
-45.45967803463798
-44.48310063324941
-43.70183871213855
-43.89715419241627
-43.79949645227741
-43.79949645227741
-43.79949645227741
-43.79949645227741
-43.79949645227741
-42.822919050888835
-42.04165712977798
-42.236972610055695
-42.13931486991684
-42.13931486991684
-42.13931486991684
-42.13931486991684
-42.13931486991684
-42.13931486991684
-42.13931486991684
-42.04165712977798
-42.04165712977798
-42.04165712977798
-42.04165712977798
-42.04165712977798
-42.04165712977798
-40.08850232700084
-38.62363622491798
-38.91660944533455
-35.98687724116884
-33.74074921797513
-34.22903791866941
-27.392996108949415
-22.21713588158999
-12.84199282825971
-4.443427176317998
-6.298924238956283
7.373159380483711
17.627222095063708
15.381094071869994
31.103990234225986
42.92057679102769
56.49500267032883
69.67879758907453
66.74906538490883
80.71412222476539
90.96818493934539
88.62439917601282
99.65972381170367
107.66765850308995
113.42946517128252
119.77721828030823
118.31235217822538
119.58190280003052
120.16784924086366
119.97253376058595
115.18730449378195
111.47631036850538
106.49576562142367
101.90585183489738
102.88242923628596
98.78080415045396
95.85107194628824
96.43701838712138
94.38620584420539
92.92133974212253
93.2143129625391
93.11665522240024
93.01899748226138
94.97215228503853
96.43701838712138
96.04638742656596
97.02296482795452
97.70656900892652
93.70260166323338
90.77286945906768
91.35881589990082
83.54619668879225
77.58907454032196
78.95628290226597
71.92492561226825
66.74906538490883
62.15915159838254
57.471580071717405
58.44815747310597
53.467612726024264
49.75661860074769
50.53788052185855
45.55733577477684
41.943999389639124
38.91660944533455
35.69390402075227
36.37750820172427
33.3501182574197
31.201647974364842
31.68993667505913
27.68596932936599
24.756237125200276
21.63118944075685
18.506141756313422
19.18974593728542
15.185778591592278
12.256046387426567
12.84199282825971
8.935683222705425
6.005951018539712
3.7598229953459983
1.416037232013428
1.9043259327077133
-1.9043259327077133
-4.834058136873426
-4.248111696040284
-8.154421301594567
-11.08415350576028
-14.306858930342566
-17.43190661478599
-16.650644693675137
-19.678034637979707
-21.92416266117342
-21.43587396047913
-24.365606164644845
-26.514076447699704
-28.95551995117113
-31.2993057145037
-30.71335927367056
-32.764171816586554
-34.22903791866941
-33.838406958113985
-35.79156176089113
-37.256427862973986
-38.818951705195694
-40.38147554741741
-39.99084458686198
-41.065079728389414
-41.74868390936141
-41.5533684290837
-43.50652323186084
-44.97138933394369
-45.55733577477684
-46.43625543602655
-46.240939955748836
-47.21751735713741
-47.90112153810941
-47.705806057831694
-47.705806057831694
-47.705806057831694
-48.68238345922026
-49.365987640192266
-49.17067215991455
-49.26832990005341
-49.17067215991455
-49.17067215991455
-49.17067215991455
-49.17067215991455
-49.17067215991455
-49.17067215991455
-49.17067215991455
-49.073014419775696
-49.073014419775696
-49.073014419775696
-49.073014419775696
-49.073014419775696
-49.073014419775696
-48.97535667963683
-48.97535667963683
-48.97535667963683
-48.97535667963683
-48.97535667963683
-48.97535667963683
-48.877698939497975
-47.998779278248264
-47.21751735713741
-47.31517509727627
-44.38544289311055
-42.236972610055695
-42.62760357061112
-36.86579690241855
-32.37354085603113
-24.756237125200276
-17.82253757534142
-19.385061417563133
-7.568474860761425
1.1230640115968566
-0.7324330510414282
13.916227969787137
24.95155260547799
35.889219501029984
46.826886396581976
44.38544289311055
58.25284199282826
68.50690470740825
66.26077668421455
77.19844357976653
85.20637827115281
91.06584267948425
97.41359578850995
95.9487296864271
101.02693217364767
104.64026855878538
103.76134889753567
106.78873884184024
108.93720912489509
109.32784008545052
110.20675974670024
109.91378652628366
109.03486686503395
108.2536049439231
108.35126268406195
106.39810788128482
104.8355840390631
100.34332799267567
96.53467612726024
97.41359578850995
92.43305104142824
88.72205691615167
89.50331883726253
82.56961928740368
77.39375906004425
70.85069047074083
64.69825284199283
66.06546120393683
59.03410391393912
53.85824368657969
55.03013656824598
47.998779278248264
42.92057679102769
38.23300526436255
33.545433737697415
34.61966887922484
29.541466392004274
25.92813000686656
26.709391927977418
22.705424582284277
19.775692378118563
17.52956435492485
15.185778591592278
15.674067292286564
12.74433508812085
10.498207064927138
10.986495765621424
7.080186160067139
4.150453955901427
1.9043259327077133
-0.34180209048599985
0.04882887006942855
-2.8809033340962844
-5.0293736171511405
-4.541084916456855
-7.470817120622568
-9.71694514381628
-13.037308308537423
-16.16235599298085
-15.381094071869994
-21.338216220340275
-25.732814526588847
-24.756237125200276
-33.545433737697415
-40.186160067139696
-46.33859769588769
-52.588693064774546
-51.123826962691695
-56.20202944991226
-59.815365835049974
-59.03410391393912
-61.08491645685512
-62.54978255893797
-60.30365453574426
-58.8387884336614
-59.13176165407798
-55.22545204852369
-52.19806210421912
-52.881666285191116
-47.998779278248264
-44.28778515297169
-44.09246967269398
-43.21355001144427
-43.311207751583126
-44.28778515297169
-44.97138933394369
-44.77607385366598
-45.75265125505455
-46.533913176165406
-47.31517509727627
-48.09643701838712
-47.90112153810941
-48.877698939497975
-49.56130312046998
-49.365987640192266
-49.365987640192266
-49.365987640192266
-49.365987640192266
-49.365987640192266
-49.365987640192266
-49.26832990005341
-49.26832990005341
-49.26832990005341
-49.26832990005341
-49.26832990005341
-49.26832990005341
-49.26832990005341
-49.17067215991455
-50.14724956130312
-50.83085374227512
-50.73319600213626
-50.73319600213626
-50.73319600213626
-50.635538261997404
-50.635538261997404
-50.635538261997404
-50.635538261997404
-50.635538261997404
-50.635538261997404
-47.705806057831694
-45.45967803463798
-40.186160067139696
-35.69390402075227
-36.67048142214084
-28.760204470893417
-22.90074006256199
-24.17029068436713
-12.45136186770428
-3.5645075150682843
8.642710002288853
20.263981078812847
17.724879835202564
32.56885633630884
43.604180971999696
41.065079728389414
55.03013656824598
65.28419928282597
74.46402685587854
83.83916990920882
81.69069962615396
89.7962920576791
95.55809872587167
94.28854810406654
100.24567025253681
104.64026855878538
105.51918822003509
107.17936980239567
106.78873884184024
107.76531624322881
108.44892042420081
108.2536049439231
107.27702754253453
106.49576562142367
104.73792629892424
103.17540245670253
103.4683756771191
99.56206607156481
96.53467612726024
97.21828030823224
92.23773556115053
88.52674143587396
82.66727702754254
77.29610131990539
78.46799420157168
70.4600595101854
64.60059510185397
65.8701457236591
57.95986877241169
52.002746623941405
45.654993514915695
39.40489814602884
40.772106507972836
33.838406958113985
28.66254673075456
29.834439612420844
24.756237125200276
21.14290074006256
18.11551079575799
14.892805371175708
15.576409552147707
11.670099946593423
8.74036774242771
9.326314183260854
6.298924238956283
4.150453955901427
1.8066681925688564
-0.43945983062485694
0.04882887006942855
-3.8574807354848555
-6.787212939650568
-6.201266498817426
-9.130998702983138
-11.377126726176853
-14.697489890897993
-17.724879835202564
-17.041275654230564
-20.068665598535134
-22.314793621728846
-21.826504921034562
-25.732814526588847
-28.66254673075456
-30.811017013809415
-33.252460517280845
-32.6665140764477
-36.57282368200198
-39.5025558861677
-38.818951705195694
-41.84634164950027
-44.09246967269398
-46.43625543602655
-48.68238345922026
-48.19409475852598
-50.24490730144198
-51.61211566338598
-51.31914244296941
-53.27229724574655
-54.7371633478294
-56.29968719005112
-57.86221103227283
-57.471580071717405
-58.44815747310597
-59.22941939421683
-59.03410391393912
-60.01068131532769
-60.694285496299685
-61.475547417410546
-62.2568093385214
-62.061493858243686
-63.03807125963226
-63.72167544060426
-63.526359960326545
-64.50293736171511
-65.18654154268711
-65.96780346379796
-66.74906538490883
-66.55374990463112
-67.53032730601969
-68.21393148699168
-68.01861600671397
-68.11627374685283
-68.01861600671397
-68.01861600671397
-68.01861600671397
-68.01861600671397
-67.92095826657511
-67.92095826657511
-67.92095826657511
-67.92095826657511
-67.92095826657511
-65.96780346379796
-64.40527962157626
-64.79591058213168
-59.91302357518883
-56.20202944991226
-56.983291371023114
-51.02616922255284
-46.63157091630426
-38.03768978408484
-30.420386053253985
-32.08056763561456
-23.096055542839704
-16.45532921339742
-17.920195315480278
-11.865415426871138
-7.470817120622568
-2.68558785381857
1.8066681925688564
0.8300907911802854
9.619287403677424
16.260013733119706
14.795147631036851
24.65857938506142
31.9829098954757
39.893186846723125
47.705806057831694
45.947966735332265
55.81139848935683
63.13572899977112
61.475547417410546
69.48348210879682
75.34294651712825
74.95231555657283
75.9288929579614
75.73357747768368
71.92492561226825
68.89753566796368
69.58113984893568
63.6240177004654
59.22941939421683
53.467612726024264
48.09643701838712
49.26832990005341
42.33463035019455
37.15877012283513
38.23300526436255
32.27588311589227
27.881284809643702
23.096055542839704
18.40848401617456
19.48271915770199
15.381094071869994
12.45136186770428
13.13496604867628
10.10757610437171
7.959105821316854
6.494239719233997
4.931715877012284
5.224689097428855
3.2715342946517127
1.8066681925688564
2.0996414129854277
1.1230640115968566
0.34180209048599985
-1.3183794918745708
-2.783245593957427
-2.490272373540856
-4.443427176317998
-5.908293278400855
-5.615320057984283
-7.568474860761425
-9.033340962844282
-11.572442206454566
-13.916227969787137
-13.330281528953995
-15.381094071869994
-16.84596017395285
-16.45532921339742
-19.385061417563133
-21.63118944075685
-23.096055542839704
-24.65857938506142
-24.267948424505988
-26.22110322728313
-27.68596932936599
-27.392996108949415
-28.369573510337986
-29.150835431448844
-30.811017013809415
-32.37354085603113
-31.9829098954757
-34.0337224383917
-35.4009308003357
-35.10795757991913
-36.0845349813077
-36.86579690241855
-38.62363622491798
-40.08850232700084
-39.69787136644541
-40.772106507972836
-41.45571068894484
-41.26039520866713
-42.236972610055695
-43.018234531166556
-43.79949645227741
-44.580758373388264
-44.38544289311055
-44.38544289311055
-44.38544289311055
-44.38544289311055
-45.26436255436027
-46.04562447547112
-44.873731593804834
-44.19012741283284
-44.28778515297169
-42.33463035019455
-40.86976424811169
-41.16273746852827
-37.256427862973986
-34.32669565880827
-29.2484931715877
-24.560921644922562
-25.63515678644999
-14.892805371175708
-6.787212939650568
-8.545052262149996
3.1738765545128556
12.060730907148852
24.365606164644845
35.98687724116884
33.3501182574197
47.31517509727627
57.56923781185626
55.22545204852369
67.23735408560312
75.9288929579614
83.54619668879225
91.35881589990082
89.60097657740138
96.6323338673991
101.71053635461966
100.53864347295338
104.64026855878538
107.47234302281224
107.76531624322881
108.64423590447852
108.35126268406195
107.47234302281224
106.59342336156253
106.78873884184024
104.8355840390631
103.27306019684139
100.7339589532311
98.39017318989853
98.87846189059282
93.99557488364995
90.18692301823454
91.06584267948425
84.13214312962539
78.95628290226597
73.3897917143511
67.92095826657511
69.0928511482414
61.182574196993976
55.22545204852369
56.59266041046769
48.584725719081405
42.72526131074998
38.33066300450141
33.545433737697415
34.52201113908598
28.564888990615703
24.17029068436713
25.146868085755703
21.14290074006256
18.21316853589685
14.990463111314565
11.865415426871138
12.549019607843137
8.642710002288853
5.615320057984283
6.298924238956283
3.2715342946517127
1.1230640115968566
-2.0996414129854277
-5.224689097428855
-4.541084916456855
-7.568474860761425
-9.71694514381628
-9.228656443121995
-13.13496604867628
-16.064698252841993
-18.310826276035705
-20.654612039368278
-20.16632333867399
-23.096055542839704
-25.342183566033416
-24.853894865339132
-27.783627069504846
-29.9320973525597
-32.37354085603113
-34.61966887922484
-34.131380178530556
-37.06111238269627
-39.307240405889985
-38.818951705195694
-40.772106507972836
-42.236972610055695
-44.77607385366598
-47.0222018768597
-46.533913176165406
-51.416800183108265
-55.03013656824598
-54.24887464713512
-61.08491645685512
-66.26077668421455
-71.72961013199054
-77.19844357976653
-75.9288929579614
-78.07736324101626
-79.44457160296025
-79.15159838254368
-79.15159838254368
-79.15159838254368
-75.34294651712825
-72.31555657282368
-72.99916075379568
-66.06546120393683
-60.8896009765774
-62.061493858243686
-54.15121690699626
-48.19409475852598
-42.822919050888835
-37.35408560311284
-38.525978484779124
-31.592278934920273
-26.416418707560844
-27.588311589227132
-17.724879835202564
-10.400549324788281
0.34180209048599985
10.302891584649425
8.05676356145571
22.90074006256199
33.93606469825284
31.494621194781413
45.362020294499125
55.61608300907912
65.77248798352025
75.83123521782254
73.58510719462882
83.6438544289311
90.87052719920653
89.21034561684596
96.24170290684367
101.31990539406424
103.95666437781338
107.17936980239567
106.39810788128482
108.44892042420081
109.91378652628366
109.52315556572823
110.49973296711681
111.18333714808881
109.1325246051728
107.66765850308995
107.96063172350652
104.93324177920195
102.68711375600824
103.17540245670253
99.17143511100939
96.24170290684367
90.18692301823454
84.81574731059739
85.98764019226367
78.95628290226597
73.78042267490653
74.95231555657283
66.06546120393683
59.42473487449455
52.295719844357976
45.26436255436027
46.826886396581976
38.818951705195694
32.95948729686427
34.22903791866941
28.174258030060273
23.779659723811704
18.994430457007706
14.306858930342566
15.381094071869994
10.400549324788281
6.6895551995117115
7.470817120622568
3.5645075150682843
0.6347753109025711
-2.490272373540856
-5.615320057984283
-4.931715877012284
-8.838025482566568
-11.767757686732281
-11.181811245899137
-15.088120851453422
-18.017853055619135
-21.24055848020142
-24.267948424505988
-23.58434424353399
-27.588311589227132
-30.518043793392845
-29.834439612420844
-32.86182955672541
-35.010299839780274
-38.33066300450141
-41.45571068894484
-40.67444876783398
-43.70183871213855
-45.947966735332265
-45.362020294499125
-48.38941023880369
-50.53788052185855
-51.90508888380255
-53.56527046616312
-53.17463950560769
-56.1043717097734
-58.25284199282826
-57.764553292133975
-59.815365835049974
-61.182574196993976
-62.745098039215684
-64.3076218814374
-63.91699092088197
-65.8701457236591
-67.33501182574197
-67.0420386053254
-68.01861600671397
-68.70222018768597
-69.48348210879682
-70.26474402990769
-70.06942854962998
-71.04600595101854
-71.72961013199054
-71.53429465171283
-70.65537499046312
-69.87411306935225
-68.99519340810254
-68.21393148699168
-68.4092469672694
-64.50293736171511
-61.475547417410546
-62.15915159838254
-56.29968719005112
-51.80743114366369
-43.21355001144427
-35.596246280613414
-37.256427862973986
-23.48668650339513
-13.232623788815136
-15.47875181200885
-0.6347753109025711
10.302891584649425
23.096055542839704
35.49858854047456
32.764171816586554
47.705806057831694
58.643472953383686
56.20202944991226
68.21393148699168
76.90547035934996
83.54619668879225
90.67521171892882
89.01503013656824
94.09323262378882
97.70656900892652
96.92530708781567
99.95269703212024
102.1011673151751
103.4683756771191
105.0308995193408
104.64026855878538
103.76134889753567
102.98008697642481
103.07774471656367
101.12458991378652
99.56206607156481
96.04638742656596
93.01899748226138
93.60494392309452
88.72205691615167
85.0110627908751
85.79232471198596
78.85862516212711
73.68276493476768
66.26077668421455
59.22941939421683
60.79194323643854
52.78400854505226
46.92454413672083
48.19409475852598
39.307240405889985
32.6665140764477
27.49065384908827
21.92416266117342
23.096055542839704
16.16235599298085
10.986495765621424
12.158388647287708
7.177843900205997
3.466849774929427
-0.34180209048599985
-4.248111696040284
-3.36919203479057
-11.279468986037996
-17.13893339436942
-15.869382772564279
-26.61173418783856
-34.717326619363696
-42.43228809033341
-50.24490730144198
-48.48706797894255
-54.639505607690545
-58.936446173800256
-57.95986877241169
-60.987258716716255
-63.13572899977112
-61.768520637827116
-61.08491645685512
-61.182574196993976
-57.27626459143969
-54.346532387273975
-55.03013656824598
-50.04959182116426
-46.33859769588769
-47.11985961699855
-46.92454413672083
-47.0222018768597
-49.85427634088655
-52.002746623941405
-51.51445792324712
-54.44419012741283
-56.690318150606544
-59.03410391393912
-61.37788967727169
-60.79194323643854
-62.84275577935454
-64.20996414129854
-63.91699092088197
-66.84672312504769
-68.99519340810254
-70.36240177004655
-72.02258335240711
-71.63195239185168
-73.58510719462882
-75.04997329671168
-74.65934233615626
-75.63591973754482
-76.41718165865568
-76.22186617837797
-76.22186617837797
-76.12420843823911
-76.12420843823911
-76.12420843823911
-76.12420843823911
-75.14763103685054
-74.36636911573969
-71.63195239185168
-69.38582436865796
-69.77645532921339
-64.89356832227054
-61.182574196993976
-61.96383611810483
-54.15121690699626
-48.291752498664835
-39.99084458686198
-32.27588311589227
-33.93606469825284
-20.263981078812847
-9.912260624093996
-12.158388647287708
0.6347753109025711
10.205233844510566
21.43587396047913
32.27588311589227
29.834439612420844
40.86976424811169
48.877698939497975
47.11985961699855
56.1043717097734
62.64744029907683
66.94438086518655
71.63195239185168
70.55771725032426
73.68276493476768
75.83123521782254
75.34294651712825
76.31952391851682
77.00312809948882
75.9288929579614
75.14763103685054
75.34294651712825
72.41321431296254
70.16708628976883
70.65537499046312
66.65140764476998
63.72167544060426
57.66689555199512
52.295719844357976
53.467612726024264
45.55733577477684
39.600213626306555
40.96742198825055
31.103990234225986
23.682001983672848
15.771725032425422
7.959105821316854
9.71694514381628
0.7324330510414282
-5.71297779812314
-4.248111696040284
-12.256046387426567
-18.11551079575799
-23.48668650339513
-28.95551995117113
-27.68596932936599
-32.764171816586554
-36.37750820172427
-35.596246280613414
-40.479133287556266
-44.19012741283284
-47.21751735713741
-50.34256504158083
-49.56130312046998
-53.56527046616312
-56.49500267032883
-55.81139848935683
-59.71770809491112
-62.64744029907683
-65.77248798352025
-68.89753566796368
-68.21393148699168
-72.12024109254597
-75.04997329671168
-74.36636911573969
-78.37033646143283
-81.20241092545967
-83.4485389486534
-85.79232471198596
-85.20637827115281
-89.1126878767071
-92.04242008087282
-91.35881589990082
-93.40962844281681
-94.77683680476082
-97.3159380483711
-99.56206607156481
-99.07377737087053
-101.02693217364767
-102.49179827573053
-102.1011673151751
-104.05432211795224
-105.51918822003509
-107.08171206225681
-108.54657816433966
-108.15594720378424
-109.23018234531166
-109.91378652628366
-109.71847104600594
-110.59739070725567
-111.37865262836652
-111.18333714808881
-111.18333714808881
-111.08567940794995
-110.10910200656139
-109.32784008545052
-109.42549782558937
-108.44892042420081
-107.66765850308995
-106.8863965819791
-106.00747692072939
-106.2027924010071
-104.1519798580911
-102.68711375600824
-102.98008697642481
-100.92927443350881
-99.46440833142596
-96.92530708781567
-94.5815213244831
-95.06981002517739
-93.01899748226138
