ppg
-36.0845349813077
-33.74074921797513
-31.396963454642556
-31.885252155336843
-31.787594415197987
-31.787594415197987
-31.787594415197987
-34.61966887922484
-36.768139162279695
-38.23300526436255
-39.79552910658427
-39.40489814602884
-42.33463035019455
-44.580758373388264
-44.09246967269398
-46.04562447547112
-47.51049057755398
-48.09643701838712
-48.877698939497975
-48.68238345922026
-49.658960860608836
-50.44022278171969
-50.24490730144198
-51.22148470283055
-51.90508888380255
-52.6863508049134
-53.467612726024264
-53.27229724574655
-54.24887464713512
-54.932478828107115
-54.83482108796826
-55.81139848935683
-56.49500267032883
-56.29968719005112
-56.29968719005112
-56.29968719005112
-57.27626459143969
-57.95986877241169
-57.764553292133975
-58.74113069352254
-59.42473487449455
-59.32707713435569
-59.32707713435569
-59.22941939421683
-60.2059967956054
-60.987258716716255
-60.79194323643854
-60.79194323643854
-60.79194323643854
-60.694285496299685
-60.694285496299685
-60.694285496299685
-59.71770809491112
-58.936446173800256
-59.13176165407798
-58.057526512550545
-57.37392233157855
-53.66292820630198
-50.635538261997404
-51.31914244296941
-44.48310063324941
-39.307240405889985
-40.38147554741741
-31.494621194781413
-24.95155260547799
-13.916227969787137
-3.9551384756237127
-6.201266498817426
7.568474860761425
17.82253757534142
15.576409552147707
29.443808651865414
39.69787136644541
49.85427634088655
60.01068131532769
57.66689555199512
67.7256427862974
75.04997329671168
73.3897917143511
80.42114900434882
85.49935149156939
89.1126878767071
93.01899748226138
92.14007782101167
94.19089036392768
95.55809872587167
95.2651255054551
95.2651255054551
95.2651255054551
93.31197070267795
91.8471046005951
92.14007782101167
88.13611047531853
85.20637827115281
85.79232471198596
80.9094377050431
77.19844357976653
71.24132143129626
65.8701457236591
67.0420386053254
60.108339055466544
54.932478828107115
56.006713969634546
50.04959182116426
45.654993514915695
40.86976424811169
36.182192721446555
37.256427862973986
32.178225375753414
28.564888990615703
29.346150911726557
26.318760967421987
24.072632944228275
20.752269779507134
17.627222095063708
18.310826276035705
15.283436331731137
13.13496604867628
13.623254749370565
10.595864805065995
8.44739452201114
6.005951018539712
3.662165255207141
4.248111696040284
0.24414435034714274
-2.5879301136797133
-1.9043259327077133
-5.908293278400855
-8.838025482566568
-11.963073167009995
-15.088120851453422
-14.404516670481422
-17.43190661478599
-19.58037689784085
-19.092088197146563
-22.998397802700847
-25.92813000686656
-29.150835431448844
-32.178225375753414
-31.494621194781413
-34.52201113908598
-36.67048142214084
-36.182192721446555
-40.08850232700084
-43.018234531166556
-44.28778515297169
-45.947966735332265
-45.55733577477684
-48.48706797894255
-50.635538261997404
-50.14724956130312
-52.19806210421912
-53.56527046616312
-55.127794308384836
-56.690318150606544
-56.29968719005112
-57.37392233157855
-58.057526512550545
-57.86221103227283
-58.8387884336614
-59.62005035477226
-60.30365453574426
-61.08491645685512
-60.8896009765774
-60.8896009765774
-60.8896009765774
-60.8896009765774
-60.8896009765774
-60.8896009765774
-60.79194323643854
-60.79194323643854
-60.79194323643854
-60.79194323643854
-60.79194323643854
-60.694285496299685
-60.694285496299685
-60.694285496299685
-60.694285496299685
-60.694285496299685
-60.59662775616083
-59.62005035477226
-58.936446173800256
-59.03410391393912
-62.84275577935454
-65.77248798352025
-70.85069047074083
-75.44060425726711
-74.36636911573969
-80.32349126420996
-84.62043183031967
-83.6438544289311
-85.79232471198596
-87.15953307392996
-83.93682764934768
-81.78835736629281
-82.27664606698711
-75.44060425726711
-70.26474402990769
-71.33897917143511
-57.66689555199512
-47.31517509727627
-34.32669565880827
-21.92416266117342
-24.65857938506142
-9.71694514381628
1.1230640115968566
-1.2207217517357138
11.670099946593423
21.14290074006256
32.471198596169984
43.311207751583126
40.86976424811169
53.760585946440834
63.33104448004883
61.182574196993976
70.26474402990769
76.8078126192111
81.98367284657053
87.45250629434653
86.1829556725414
90.2845807583734
93.11665522240024
92.5307087815671
94.48386358434425
95.9487296864271
95.55809872587167
95.65575646601053
95.55809872587167
94.5815213244831
93.80025940337224
93.99557488364995
91.06584267948425
88.81971465629053
85.40169375143053
82.27664606698711
82.96025024795911
77.10078583962768
72.60852979324025
73.58510719462882
66.65140764476998
61.475547417410546
55.90905622949569
50.44022278171969
51.61211566338598
45.654993514915695
41.26039520866713
42.236972610055695
37.15877012283513
33.545433737697415
29.541466392004274
25.63515678644999
26.514076447699704
23.389028763256274
21.24055848020142
21.728847180895706
18.701457236591136
16.55298695353628
15.088120851453422
13.525597009231708
13.81857022964828
10.888838025482567
8.74036774242771
9.228656443121995
7.177843900205997
5.71297779812314
3.1738765545128556
0.8300907911802854
1.416037232013428
-1.513694972152285
-3.662165255207141
-3.1738765545128556
-6.201266498817426
-8.349736781872283
-10.79118028534371
-13.13496604867628
-12.549019607843137
-15.576409552147707
-17.724879835202564
-17.236591134508277
-20.263981078812847
-22.412451361867703
-24.756237125200276
-27.100022888532845
-26.61173418783856
-29.541466392004274
-31.787594415197987
-31.201647974364842
-34.22903791866941
-36.37750820172427
-37.84237430380713
-39.40489814602884
-39.014267185473415
-40.96742198825055
-42.43228809033341
-42.13931486991684
-44.09246967269398
-45.55733577477684
-46.14328221560998
-46.92454413672083
-46.72922865644312
-48.68238345922026
-50.14724956130312
-49.85427634088655
-50.83085374227512
-51.51445792324712
-53.27229724574655
-54.7371633478294
-54.44419012741283
-55.420767528801406
-56.1043717097734
-56.006713969634546
-57.86221103227283
-59.32707713435569
-59.91302357518883
-60.79194323643854
-60.59662775616083
-61.5732051575494
-62.2568093385214
-62.061493858243686
-62.061493858243686
-62.061493858243686
-62.9404135194934
-63.72167544060426
-63.526359960326545
-62.54978255893797
-61.768520637827116
-61.96383611810483
-60.01068131532769
-58.54581521324483
-55.03013656824598
-51.90508888380255
-52.588693064774546
-45.75265125505455
-40.57679102769512
-41.651026169222554
-31.885252155336843
-24.4632639047837
-16.55298695353628
-8.838025482566568
-10.498207064927138
1.2207217517357138
10.009918364232853
8.05676356145571
18.11551079575799
25.439841306172273
31.396963454642556
37.64705882352941
36.27985046158541
41.358052948805984
44.97138933394369
44.19012741283284
47.21751735713741
49.365987640192266
49.85427634088655
50.635538261997404
50.44022278171969
48.584725719081405
47.0222018768597
47.412832837415124
44.38544289311055
42.236972610055695
37.94003204394598
34.0337224383917
34.91264209964141
29.9320973525597
26.22110322728313
27.100022888532845
21.14290074006256
16.748302433813993
12.939650568398566
8.935683222705425
9.81460288395514
5.810635538261997
2.8809033340962844
3.5645075150682843
1.513694972152285
0.04882887006942855
-0.43945983062485694
-1.3183794918745708
-1.1230640115968566
-2.0996414129854277
-2.8809033340962844
-2.68558785381857
-4.638742656595713
-6.103608758678568
-11.47478446631571
-16.064698252841993
-14.990463111314565
-19.971007858396277
-23.682001983672848
-22.803082322423133
-24.95155260547799
-26.318760967421987
-26.025787747005417
-26.123445487144274
-26.025787747005417
-23.19371328297856
-20.947585259784848
-21.43587396047913
-16.55298695353628
-12.84199282825971
-8.935683222705425
-5.0293736171511405
-5.908293278400855
-4.736400396734569
-4.052796215762569
-4.150453955901427
-6.982528419928283
-9.228656443121995
-10.693522545204852
-12.256046387426567
-11.865415426871138
-13.916227969787137
-15.381094071869994
-14.990463111314565
-16.943617914091707
-18.40848401617456
-19.092088197146563
-19.87335011825742
-19.678034637979707
-21.63118944075685
-23.096055542839704
-22.803082322423133
-23.779659723811704
-24.4632639047837
-24.365606164644845
-24.365606164644845
-24.365606164644845
-25.342183566033416
-26.025787747005417
-25.830472266727703
-26.807049668116274
-27.588311589227132
-27.392996108949415
-27.392996108949415
-27.392996108949415
-27.392996108949415
-27.392996108949415
-27.392996108949415
-28.369573510337986
-29.053177691309987
-28.857862211032273
-28.95551995117113
-28.857862211032273
-28.857862211032273
-28.857862211032273
-28.857862211032273
-28.857862211032273
-28.857862211032273
-28.857862211032273
-28.857862211032273
-28.857862211032273
-28.857862211032273
-28.857862211032273
-28.760204470893417
-28.760204470893417
-28.760204470893417
-28.760204470893417
-28.760204470893417
-28.760204470893417
-28.760204470893417
-28.760204470893417
-28.760204470893417
-27.783627069504846
-27.002365148393988
-27.1976806286717
-27.100022888532845
-27.100022888532845
-25.24452582589456
-23.682001983672848
-24.072632944228275
-19.18974593728542
-15.47875181200885
-9.619287403677424
-4.248111696040284
-5.420004577706569
5.224689097428855
13.330281528953995
11.572442206454566
24.365606164644845
33.93606469825284
46.14328221560998
57.66689555199512
55.127794308384836
68.99519340810254
79.24925612268254
77.00312809948882
88.91737239642939
97.70656900892652
103.27306019684139
109.62081330586709
108.2536049439231
114.21072709239338
118.60532539864195
117.53109025711451
120.55848020141909
122.70695048447395
124.1718165865568
125.63668268863965
125.24605172808423
124.36713206683451
123.58587014572366
123.68352788586252
121.73037308308537
120.16784924086366
117.62874799725337
115.28496223392081
115.77325093461509
111.76928358892195
108.83955138475623
109.42549782558937
103.56603341725796
99.07377737087053
94.28854810406654
89.60097657740138
90.57755397878996
84.62043183031967
80.2258335240711
81.10475318532082
75.14763103685054
70.75303273060197
66.94438086518655
62.9404135194934
63.819333180743115
60.79194323643854
58.54581521324483
59.03410391393912
56.006713969634546
53.760585946440834
51.416800183108265
49.073014419775696
49.56130312046998
46.533913176165406
44.38544289311055
44.77607385366598
40.86976424811169
37.94003204394598
35.69390402075227
33.3501182574197
33.838406958113985
29.9320973525597
26.90470740825513
27.588311589227132
23.58434424353399
20.654612039368278
17.52956435492485
14.404516670481422
15.088120851453422
12.060730907148852
9.81460288395514
10.302891584649425
6.39658197909514
3.466849774929427
1.2207217517357138
-1.0254062714579995
-0.537117570763714
-4.443427176317998
-7.373159380483711
-6.787212939650568
-8.838025482566568
-10.205233844510566
-12.74433508812085
-15.088120851453422
-14.599832150759136
-16.55298695353628
-18.017853055619135
-17.724879835202564
-19.678034637979707
-21.14290074006256
-22.705424582284277
-24.267948424505988
-23.87731746395056
-25.92813000686656
-27.392996108949415
-27.002365148393988
-28.95551995117113
-30.420386053253985
-31.103990234225986
-31.885252155336843
-31.68993667505913
-32.6665140764477
-33.3501182574197
-33.252460517280845
-38.03768978408484
-41.74868390936141
-47.51049057755398
-52.881666285191116
-51.709773403524835
-58.643472953383686
-63.72167544060426
-62.64744029907683
-65.6748302433814
-67.82330052643626
-66.3584344243534
-65.77248798352025
-65.8701457236591
-61.96383611810483
-59.03410391393912
-59.62005035477226
-52.78400854505226
-47.60814831769284
-42.04165712977798
-36.57282368200198
-37.84237430380713
-34.61966887922484
-32.471198596169984
-32.95948729686427
-31.885252155336843
-31.103990234225986
-29.346150911726557
-27.881284809643702
-28.174258030060273
-23.291371023117417
-19.58037689784085
-20.45929655909056
-11.670099946593423
-5.0293736171511405
2.9785610742351416
10.693522545204852
9.033340962844282
20.84992751964599
29.63912413214313
27.68596932936599
40.479133287556266
50.04959182116426
58.44815747310597
67.0420386053254
65.08888380254825
73.09681849393453
78.95628290226597
77.68673228046082
83.6438544289311
88.03845273517967
90.77286945906768
93.99557488364995
93.2143129625391
94.28854810406654
94.97215228503853
94.77683680476082
94.77683680476082
94.77683680476082
93.80025940337224
93.01899748226138
93.11665522240024
90.18692301823454
87.94079499504082
88.4290836957351
84.52277409018082
81.49538414587624
77.39375906004425
73.48744945448996
74.36636911573969
68.4092469672694
63.91699092088197
64.89356832227054
58.936446173800256
54.54184786755169
50.73319600213626
46.72922865644312
47.60814831769284
42.62760357061112
38.91660944533455
39.79552910658427
35.79156176089113
32.764171816586554
30.615701533531702
28.174258030060273
28.760204470893417
26.709391927977418
25.24452582589456
25.537499046311133
22.60776684214542
20.361638818951704
18.89677271686885
17.334248874647134
17.724879835202564
14.697489890897993
12.549019607843137
13.037308308537423
10.009918364232853
7.861448081177996
5.420004577706569
3.076218814373999
3.662165255207141
-0.24414435034714274
-3.1738765545128556
-2.490272373540856
-5.517662317845426
-7.666132600900283
-10.986495765621424
-14.11154345006485
-13.427939269092851
-16.45532921339742
-18.60379949645228
-18.11551079575799
-21.045242999923705
-23.291371023117417
-25.63515678644999
-27.97894254978256
-27.49065384908827
-29.443808651865414
-30.908674753948272
-30.615701533531702
-32.56885633630884
-34.0337224383917
-35.596246280613414
-37.15877012283513
-36.768139162279695
-38.72129396505684
-40.186160067139696
-39.893186846723125
-40.86976424811169
-41.5533684290837
-42.33463035019455
-43.11589227130541
-42.92057679102769
-43.89715419241627
-44.67841611352712
-44.48310063324941
-45.45967803463798
-46.14328221560998
-46.92454413672083
-47.705806057831694
-47.51049057755398
-47.51049057755398
-47.51049057755398
-47.51049057755398
-48.48706797894255
-49.17067215991455
-48.97535667963683
-48.97535667963683
-48.97535667963683
-49.951934081025406
-50.635538261997404
-50.44022278171969
-50.53788052185855
-50.44022278171969
-50.44022278171969
-50.44022278171969
-50.44022278171969
-49.46364538033112
-48.68238345922026
-48.877698939497975
-45.947966735332265
-43.70183871213855
-39.40489814602884
-35.596246280613414
-36.37750820172427
-27.588311589227132
-20.947585259784848
-22.412451361867703
-11.572442206454566
-3.466849774929427
6.982528419928283
17.041275654230564
14.795147631036851
28.66254673075456
38.91660944533455
36.67048142214084
48.584725719081405
57.37392233157855
64.01464866102083
71.1436636911574
69.48348210879682
76.51483939879454
81.5930418860151
80.42114900434882
84.52277409018082
87.35484855420768
88.62439917601282
90.18692301823454
89.7962920576791
90.87052719920653
91.55413138017853
91.35881589990082
90.38223849851225
89.60097657740138
87.84313725490196
86.28061341268025
86.57358663309682
83.6438544289311
81.39772640573739
81.88601510643167
74.07339589532312
68.11627374685283
58.936446173800256
50.44022278171969
52.295719844357976
41.358052948805984
33.3501182574197
35.10795757991913
27.002365148393988
21.14290074006256
18.701457236591136
15.381094071869994
16.16235599298085
14.990463111314565
14.306858930342566
14.404516670481422
17.236591134508277
19.48271915770199
21.826504921034562
24.17029068436713
23.682001983672848
23.779659723811704
23.779659723811704
23.779659723811704
20.84992751964599
18.60379949645228
15.283436331731137
12.256046387426567
12.939650568398566
9.912260624093996
7.666132600900283
8.154421301594567
4.248111696040284
1.3183794918745708
-1.8066681925688564
-4.931715877012284
-4.248111696040284
-7.177843900205997
-9.42397192339971
-8.935683222705425
-11.865415426871138
-14.11154345006485
-16.45532921339742
-18.799114976729992
-18.310826276035705
-21.24055848020142
-23.48668650339513
-22.90074006256199
-25.92813000686656
-28.076600289921416
-29.541466392004274
-31.103990234225986
-30.71335927367056
-32.6665140764477
-34.131380178530556
-33.838406958113985
-35.79156176089113
-37.256427862973986
-38.818951705195694
-40.38147554741741
-39.99084458686198
-41.065079728389414
-41.74868390936141
-41.5533684290837
-42.529945830472265
-43.311207751583126
-44.09246967269398
-44.77607385366598
-44.67841611352712
-45.654993514915695
-46.33859769588769
-46.14328221560998
-47.11985961699855
-47.80346379797055
-48.584725719081405
-49.365987640192266
-49.17067215991455
-49.26832990005341
-49.17067215991455
-49.17067215991455
-49.17067215991455
-49.17067215991455
-48.19409475852598
-47.412832837415124
-47.60814831769284
-44.67841611352712
-42.43228809033341
-42.92057679102769
-38.03768978408484
-34.32669565880827
-28.467231250476843
-23.096055542839704
-24.267948424505988
-14.404516670481422
-7.080186160067139
-8.642710002288853
1.1230640115968566
8.44739452201114
17.334248874647134
25.830472266727703
23.974975204089418
32.95948729686427
39.600213626306555
38.03768978408484
45.069047074082555
50.14724956130312
53.760585946440834
57.764553292133975
56.88563363088426
59.91302357518883
62.061493858243686
61.5732051575494
62.64744029907683
63.33104448004883
62.15915159838254
61.475547417410546
61.5732051575494
59.62005035477226
58.1551842526894
58.44815747310597
55.51842526894026
53.27229724574655
48.97535667963683
45.069047074082555
45.947966735332265
40.96742198825055
37.256427862973986
38.03768978408484
32.178225375753414
27.783627069504846
23.974975204089418
19.971007858396277
20.84992751964599
16.84596017395285
13.916227969787137
14.599832150759136
11.572442206454566
9.326314183260854
7.959105821316854
6.298924238956283
6.6895551995117115
4.736400396734569
3.1738765545128556
3.5645075150682843
1.6113527122911422
0.04882887006942855
-1.416037232013428
-2.9785610742351416
-2.5879301136797133
-4.541084916456855
-6.005951018539712
-5.71297779812314
-7.666132600900283
-9.130998702983138
-10.79118028534371
-12.353704127565424
-11.963073167009995
-14.892805371175708
-17.13893339436942
-16.650644693675137
-18.60379949645228
-20.068665598535134
-22.60776684214542
-24.853894865339132
-24.365606164644845
-26.416418707560844
-27.881284809643702
-27.49065384908827
-29.443808651865414
-30.908674753948272
-32.471198596169984
-34.0337224383917
-33.74074921797513
-34.717326619363696
-35.4009308003357
-35.303273060196844
-37.15877012283513
-38.62363622491798
-39.307240405889985
-40.08850232700084
-39.893186846723125
-40.86976424811169
-41.5533684290837
-41.45571068894484
-42.43228809033341
-43.11589227130541
-43.89715419241627
-44.67841611352712
-44.48310063324941
-44.48310063324941
-44.48310063324941
-44.48310063324941
-44.48310063324941
-44.48310063324941
-44.38544289311055
-44.38544289311055
-44.38544289311055
-42.43228809033341
-40.96742198825055
-41.26039520866713
-42.13931486991684
-42.92057679102769
-43.70183871213855
-44.48310063324941
-44.28778515297169
-42.33463035019455
-40.86976424811169
-41.16273746852827
-34.424353398947126
-29.2484931715877
-17.920195315480278
-8.05676356145571
-10.205233844510566
4.443427176317998
15.47875181200885
13.037308308537423
29.834439612420844
42.33463035019455
52.881666285191116
63.91699092088197
61.37788967727169
68.60456244754711
73.68276493476768
72.5108720531014
74.65934233615626
76.02655069810025
75.73357747768368
75.73357747768368
75.73357747768368
74.75700007629511
73.97573815518425
74.17105363546197
71.24132143129626
68.99519340810254
65.6748302433814
62.54978255893797
63.233386739909974
58.25284199282826
54.54184786755169
55.32310978866255
49.46364538033112
44.97138933394369
41.16273746852827
37.256427862973986
38.1353475242237
32.178225375753414
27.783627069504846
28.760204470893417
24.65857938506142
21.728847180895706
18.60379949645228
15.47875181200885
16.16235599298085
13.13496604867628
10.888838025482567
11.377126726176853
9.326314183260854
7.861448081177996
6.298924238956283
4.736400396734569
5.127031357289998
2.197299153124285
0.04882887006942855
0.43945983062485694
-1.513694972152285
-2.9785610742351416
-5.517662317845426
-7.763790341039139
-7.275501640344854
-9.326314183260854
-10.693522545204852
-10.400549324788281
-13.330281528953995
-15.576409552147707
-17.920195315480278
-20.263981078812847
-19.678034637979707
-21.728847180895706
-23.19371328297856
-22.90074006256199
-25.830472266727703
-27.97894254978256
-29.443808651865414
-31.00633249408713
-30.615701533531702
-31.68993667505913
-32.37354085603113
-32.178225375753414
-34.131380178530556
-35.596246280613414
-36.182192721446555
-37.06111238269627
-36.86579690241855
-37.84237430380713
-38.525978484779124
-38.33066300450141
-39.307240405889985
-40.08850232700084
-41.74868390936141
-43.311207751583126
-42.92057679102769
-43.99481193255512
-44.67841611352712
-44.48310063324941
-44.48310063324941
-44.48310063324941
-45.45967803463798
-46.14328221560998
-45.947966735332265
-46.04562447547112
-45.947966735332265
-45.947966735332265
-44.97138933394369
-44.28778515297169
-42.529945830472265
-40.96742198825055
-41.26039520866713
-36.37750820172427
-32.6665140764477
-33.545433737697415
-26.61173418783856
-21.43587396047913
-14.013885709925994
-7.080186160067139
-8.642710002288853
2.0996414129854277
10.205233844510566
8.44739452201114
18.310826276035705
25.732814526588847
33.64309147783627
41.358052948805984
39.600213626306555
46.72922865644312
51.80743114366369
50.635538261997404
55.61608300907912
59.32707713435569
60.401312275883114
61.96383611810483
61.5732051575494
62.64744029907683
63.33104448004883
63.13572899977112
62.2568093385214
61.475547417410546
59.71770809491112
58.1551842526894
58.44815747310597
54.54184786755169
51.61211566338598
52.19806210421912
47.31517509727627
43.604180971999696
38.62363622491798
34.0337224383917
35.010299839780274
30.029755092698558
26.318760967421987
27.1976806286717
22.21713588158999
18.506141756313422
15.47875181200885
12.353704127565424
13.037308308537423
10.009918364232853
7.861448081177996
8.349736781872283
6.298924238956283
4.834058136873426
3.2715342946517127
1.7090104524299992
2.0019836728465705
1.0254062714579995
0.24414435034714274
0.43945983062485694
-1.416037232013428
-2.8809033340962844
-4.443427176317998
-6.005951018539712
-5.71297779812314
-8.642710002288853
-10.79118028534371
-10.302891584649425
-12.353704127565424
-13.81857022964828
-16.357671473258563
-18.60379949645228
-18.11551079575799
-21.045242999923705
-23.291371023117417
-22.803082322423133
-25.732814526588847
-27.97894254978256
-29.346150911726557
-30.908674753948272
-30.615701533531702
-32.56885633630884
-34.0337224383917
-33.64309147783627
-38.525978484779124
-42.236972610055695
-47.998779278248264
-53.36995498588541
-52.19806210421912
-59.13176165407798
-64.20996414129854
-63.13572899977112
-66.16311894407569
-68.31158922713054
-68.79987792782482
-69.58113984893568
-69.38582436865796
-66.55374990463112
-64.3076218814374
-64.79591058213168
-60.79194323643854
-57.86221103227283
-53.760585946440834
-49.85427634088655
-50.73319600213626
-48.584725719081405
-47.11985961699855
-47.412832837415124
-48.291752498664835
-49.073014419775696
-48.877698939497975
-48.877698939497975
-48.877698939497975
-46.92454413672083
-45.45967803463798
-45.75265125505455
-41.84634164950027
-38.91660944533455
-32.86182955672541
-27.49065384908827
-28.66254673075456
-19.775692378118563
-13.13496604867628
-14.599832150759136
-3.7598229953459983
4.248111696040284
11.963073167009995
19.775692378118563
18.017853055619135
27.002365148393988
33.545433737697415
32.08056763561456
38.1353475242237
42.529945830472265
46.33859769588769
50.24490730144198
49.365987640192266
51.416800183108265
52.881666285191116
52.49103532463569
52.588693064774546
52.49103532463569
51.61211566338598
50.83085374227512
50.928511482413974
48.97535667963683
47.51049057755398
47.80346379797055
43.89715419241627
40.96742198825055
36.768139162279695
32.95948729686427
33.838406958113985
27.881284809643702
23.48668650339513
24.365606164644845
19.385061417563133
15.771725032425422
11.767757686732281
7.861448081177996
8.74036774242771
4.736400396734569
1.8066681925688564
2.490272373540856
0.43945983062485694
-0.9277485313191425
-1.6113527122911422
-2.392614633401999
-2.197299153124285
-3.1738765545128556
-3.9551384756237127
-3.7598229953459983
-4.736400396734569
-5.517662317845426
-6.298924238956283
-7.080186160067139
-6.884870679789426
-7.861448081177996
-8.642710002288853
-8.44739452201114
-10.400549324788281
-11.865415426871138
-13.427939269092851
-14.990463111314565
-14.697489890897993
-16.650644693675137
-18.11551079575799
-17.724879835202564
-20.654612039368278
-22.90074006256199
-24.267948424505988
-25.92813000686656
-25.537499046311133
-27.49065384908827
-28.95551995117113
-28.66254673075456
-30.615701533531702
-32.08056763561456
-33.64309147783627
-35.20561532005799
-34.81498435950255
-35.889219501029984
-36.57282368200198
-36.37750820172427
-37.35408560311284
-38.1353475242237
-38.91660944533455
-39.600213626306555
-39.5025558861677
-40.479133287556266
-41.16273746852827
-40.96742198825055
-40.96742198825055
-40.96742198825055
-41.943999389639124
-42.62760357061112
-42.529945830472265
-43.50652323186084
-44.19012741283284
-43.99481193255512
-44.97138933394369
-45.654993514915695
-45.55733577477684
-45.55733577477684
-45.55733577477684
-45.55733577477684
-45.45967803463798
-45.45967803463798
-44.48310063324941
-43.79949645227741
-40.08850232700084
-37.06111238269627
-37.74471656366827
-32.764171816586554
-29.053177691309987
-29.9320973525597
-22.119478141451133
-16.16235599298085
-7.959105821316854
-0.24414435034714274
-1.9043259327077133
8.838025482566568
16.943617914091707
15.185778591592278
26.025787747005417
34.131380178530556
41.84634164950027
49.658960860608836
47.90112153810941
54.932478828107115
60.01068131532769
58.936446173800256
63.91699092088197
67.53032730601969
68.60456244754711
70.26474402990769
69.87411306935225
70.85069047074083
71.63195239185168
71.43663691157397
71.43663691157397
71.33897917143511
69.48348210879682
67.92095826657511
68.21393148699168
64.3076218814374
61.37788967727169
61.96383611810483
58.057526512550545
55.03013656824598
49.951934081025406
45.362020294499125
46.33859769588769
41.358052948805984
37.64705882352941
38.42832074464027
34.424353398947126
31.494621194781413
28.369573510337986
25.24452582589456
25.92813000686656
22.90074006256199
20.654612039368278
21.14290074006256
15.283436331731137
10.888838025482567
4.248111696040284
-1.8066681925688564
-0.43945983062485694
-9.326314183260854
-15.967040512703136
-14.50217441062028
-18.60379949645228
-21.533531700617992
-21.826504921034562
-22.705424582284277
-22.510109102006563
-20.654612039368278
-19.092088197146563
-19.48271915770199
-14.599832150759136
-10.888838025482567
-7.959105821316854
-4.736400396734569
-5.420004577706569
-4.345769436179141
-3.662165255207141
-3.7598229953459983
-6.591897459372854
-8.838025482566568
-11.181811245899137
-13.525597009231708
-13.037308308537423
-15.088120851453422
-16.45532921339742
-16.16235599298085
-18.11551079575799
-19.58037689784085
-21.14290074006256
-22.705424582284277
-22.412451361867703
-24.365606164644845
-25.830472266727703
-25.537499046311133
-27.49065384908827
-28.95551995117113
-29.541466392004274
-30.322728313115128
-30.127412832837415
-32.08056763561456
-33.545433737697415
-33.252460517280845
-33.252460517280845
-33.252460517280845
-34.22903791866941
-34.91264209964141
-34.717326619363696
-34.81498435950255
-34.81498435950255
-34.717326619363696
-32.86182955672541
-31.2993057145037
-27.881284809643702
-24.756237125200276
-25.439841306172273
-18.60379949645228
-13.427939269092851
-14.599832150759136
-5.71297779812314
0.8300907911802854
10.79118028534371
19.971007858396277
17.920195315480278
29.834439612420844
38.62363622491798
36.67048142214084
48.584725719081405
57.37392233157855
64.89356832227054
72.80384527351796
71.04600595101854
79.05394064240483
84.81574731059739
83.54619668879225
88.52674143587396
92.14007782101167
95.16746776531625
98.29251544975968
97.51125352864881
99.56206607156481
101.02693217364767
100.63630121309224
100.63630121309224
100.63630121309224
100.63630121309224
100.53864347295338
100.53864347295338
97.60891126878766
95.36278324559396
95.85107194628824
92.82368200198367
90.57755397878996
85.30403601129167
80.71412222476539
81.78835736629281
75.73357747768368
71.33897917143511
72.31555657282368
66.3584344243534
61.86617837796597
57.08094911116198
52.39337758449683
53.467612726024264
47.51049057755398
43.018234531166556
43.99481193255512
39.99084458686198
37.06111238269627
33.838406958113985
30.71335927367056
31.396963454642556
28.369573510337986
26.22110322728313
26.709391927977418
22.705424582284277
19.775692378118563
17.52956435492485
15.185778591592278
15.674067292286564
11.767757686732281
8.838025482566568
9.42397192339971
5.517662317845426
2.5879301136797133
-0.537117570763714
-3.662165255207141
-2.9785610742351416
-5.908293278400855
-8.154421301594567
-7.666132600900283
-11.572442206454566
-14.50217441062028
-16.748302433813993
-19.092088197146563
-18.60379949645228
-21.533531700617992
-23.682001983672848
-23.19371328297856
-26.22110322728313
-28.369573510337986
-30.71335927367056
-33.05714503700313
-32.56885633630884
-34.52201113908598
-35.98687724116884
-35.69390402075227
-38.62363622491798
-40.772106507972836
-42.236972610055695
-43.79949645227741
-43.40886549172198
-44.48310063324941
-45.16670481422141
-44.97138933394369
-46.92454413672083
-48.38941023880369
-48.97535667963683
-49.75661860074769
-49.56130312046998
-50.53788052185855
-51.31914244296941
-51.123826962691695
-50.14724956130312
-49.365987640192266
-47.60814831769284
-46.14328221560998
-46.43625543602655
-42.529945830472265
-39.600213626306555
-40.186160067139696
-33.3501182574197
-28.174258030060273
-19.775692378118563
-12.060730907148852
-13.81857022964828
-2.8809033340962844
5.127031357289998
3.2715342946517127
16.064698252841993
25.63515678644999
34.0337224383917
42.62760357061112
40.67444876783398
50.635538261997404
57.95986877241169
56.29968719005112
63.33104448004883
68.50690470740825
72.12024109254597
76.02655069810025
75.14763103685054
78.17502098115511
80.32349126420996
79.83520256351568
77.97970550087739
76.41718165865568
72.02258335240711
68.21393148699168
68.99519340810254
62.061493858243686
56.88563363088426
58.057526512550545
52.97932402532997
49.365987640192266
47.31517509727627
44.873731593804834
45.362020294499125
43.311207751583126
41.84634164950027
42.13931486991684
42.04165712977798
42.04165712977798
42.04165712977798
42.04165712977798
42.04165712977798
38.23300526436255
35.20561532005799
35.889219501029984
30.908674753948272
27.295338368810558
23.291371023117417
19.385061417563133
20.263981078812847
16.260013733119706
13.330281528953995
13.916227969787137
10.009918364232853
7.080186160067139
2.8809033340962844
-0.8300907911802854
0.04882887006942855
-3.9551384756237127
-6.884870679789426
-6.298924238956283
-10.205233844510566
-13.13496604867628
-17.334248874647134
-21.14290074006256
-20.263981078812847
-24.267948424505988
-27.1976806286717
-26.514076447699704
-30.518043793392845
-33.44777599755856
-36.57282368200198
-39.69787136644541
-39.014267185473415
-41.943999389639124
-44.19012741283284
-43.70183871213855
-46.63157091630426
-48.78004119935912
-51.123826962691695
-53.467612726024264
-52.97932402532997
-54.932478828107115
-56.39734493018997
-56.1043717097734
-58.936446173800256
-61.182574196993976
-62.54978255893797
-64.11230640115969
-63.819333180743115
-65.77248798352025
-67.23735408560312
-66.84672312504769
-68.79987792782482
-70.26474402990769
-70.85069047074083
-71.63195239185168
-71.43663691157397
-72.41321431296254
-73.09681849393453
-72.90150301365682
-73.87808041504539
-74.65934233615626
-74.46402685587854
-74.46402685587854
-74.46402685587854
-73.48744945448996
-72.70618753337911
-72.80384527351796
-69.87411306935225
-67.62798504615854
-63.33104448004883
-59.522392614633404
-60.30365453574426
-52.49103532463569
-46.533913176165406
-47.90112153810941
-37.06111238269627
-28.95551995117113
-19.287403677424276
-10.009918364232853
-12.060730907148852
-0.14648661020828566
8.642710002288853
6.591897459372854
16.650644693675137
23.974975204089418
29.9320973525597
36.27985046158541
34.81498435950255
40.86976424811169
45.26436255436027
44.19012741283284
47.31517509727627
49.46364538033112
49.951934081025406
50.73319600213626
50.53788052185855
50.53788052185855
50.53788052185855
50.53788052185855
49.56130312046998
48.78004119935912
45.16670481422141
42.13931486991684
42.822919050888835
38.818951705195694
35.889219501029984
36.475165941863125
31.592278934920273
27.881284809643702
22.90074006256199
18.310826276035705
19.287403677424276
13.330281528953995
8.935683222705425
9.912260624093996
5.908293278400855
2.9785610742351416
-0.14648661020828566
-3.1738765545128556
-2.490272373540856
-4.541084916456855
-6.005951018539712
-5.71297779812314
-8.642710002288853
-10.888838025482567
-12.256046387426567
-13.81857022964828
-13.525597009231708
-15.47875181200885
-16.943617914091707
-16.650644693675137
-19.58037689784085
-21.728847180895706
-24.072632944228275
-26.416418707560844
-25.92813000686656
-28.857862211032273
-31.103990234225986
-30.615701533531702
-33.545433737697415
-35.79156176089113
-38.1353475242237
-40.479133287556266
-39.893186846723125
-41.943999389639124
-43.311207751583126
-43.018234531166556
-45.947966735332265
-48.09643701838712
-49.56130312046998
-51.123826962691695
-50.73319600213626
-51.80743114366369
-52.49103532463569
-52.295719844357976
-54.24887464713512
-55.713740749217976
-56.29968719005112
-57.08094911116198
-56.88563363088426
-57.86221103227283
-58.54581521324483
-58.44815747310597
-58.44815747310597
-58.350499732967116
-58.350499732967116
-58.350499732967116
-58.350499732967116
-58.350499732967116
-58.350499732967116
-58.25284199282826
-58.25284199282826
-58.25284199282826
-58.25284199282826
-58.25284199282826
-58.1551842526894
-57.178606851300835
-56.49500267032883
-56.59266041046769
-58.44815747310597
-59.91302357518883
-63.42870222018769
-66.45609216449226
-65.77248798352025
-66.84672312504769
-67.53032730601969
-67.33501182574197
-62.54978255893797
-58.8387884336614
-47.21751735713741
-37.35408560311284
-39.5025558861677
-22.803082322423133
-10.302891584649425
-13.037308308537423
8.44739452201114
24.65857938506142
39.20958266575113
54.053559166857404
50.73319600213626
64.79591058213168
75.04997329671168
72.70618753337911
79.93286030365454
85.0110627908751
88.62439917601282
92.5307087815671
91.65178912031739
93.70260166323338
95.06981002517739
94.77683680476082
95.75341420614939
96.43701838712138
96.24170290684367
96.24170290684367
96.24170290684367
94.28854810406654
92.72602426184481
93.11665522240024
90.08926527809568
87.84313725490196
83.54619668879225
79.73754482337682
80.51880674448768
74.5616845960174
70.16708628976883
71.1436636911574
65.18654154268711
60.694285496299685
55.90905622949569
51.22148470283055
52.295719844357976
47.21751735713741
43.604180971999696
44.38544289311055
39.40489814602884
35.69390402075227
32.6665140764477
29.541466392004274
30.22507057297627
26.22110322728313
23.291371023117417
23.974975204089418
20.947585259784848
18.701457236591136
15.381094071869994
12.353704127565424
13.037308308537423
10.009918364232853
7.763790341039139
8.252079041733426
4.345769436179141
1.416037232013428
-1.7090104524299992
-4.834058136873426
-4.052796215762569
-7.080186160067139
-9.326314183260854
-8.838025482566568
-12.74433508812085
-15.674067292286564
-17.920195315480278
-20.263981078812847
-19.678034637979707
-22.705424582284277
-24.853894865339132
-24.365606164644845
-27.392996108949415
-29.541466392004274
-31.885252155336843
-34.22903791866941
-33.74074921797513
-35.69390402075227
-37.15877012283513
-36.86579690241855
-38.818951705195694
-40.28381780727855
-41.84634164950027
-43.40886549172198
-43.018234531166556
-43.99481193255512
-44.77607385366598
-44.580758373388264
-46.533913176165406
-47.998779278248264
-48.584725719081405
-49.365987640192266
-49.17067215991455
-50.14724956130312
-50.928511482413974
-50.73319600213626
-50.73319600213626
-50.73319600213626
-49.75661860074769
-48.97535667963683
-49.073014419775696
-45.26436255436027
-42.236972610055695
-42.92057679102769
-36.0845349813077
-30.908674753948272
-22.510109102006563
-14.795147631036851
-16.45532921339742
-4.638742656595713
4.052796215762569
2.0996414129854277
15.869382772564279
26.22110322728313
35.4009308003357
44.77607385366598
42.62760357061112
53.56527046616312
61.67086289768826
59.815365835049974
68.79987792782482
75.44060425726711
79.63988708323797
84.42511635004196
83.35088120851454
87.35484855420768
90.18692301823454
89.50331883726253
92.5307087815671
94.67917906462196
95.16746776531625
95.9487296864271
95.75341420614939
94.77683680476082
93.99557488364995
94.19089036392768
92.14007782101167
90.67521171892882
87.15953307392996
84.03448538948653
84.71808957045853
79.73754482337682
76.02655069810025
76.90547035934996
69.9717708094911
64.79591058213168
59.22941939421683
53.760585946440834
54.932478828107115
47.998779278248264
42.822919050888835
43.99481193255512
37.06111238269627
31.885252155336843
28.174258030060273
24.267948424505988
25.146868085755703
20.16632333867399
16.45532921339742
17.236591134508277
13.232623788815136
10.302891584649425
7.177843900205997
4.052796215762569
4.736400396734569
0.7324330510414282
-2.0996414129854277
-1.416037232013428
-5.420004577706569
-8.349736781872283
-11.47478446631571
-14.599832150759136
-13.916227969787137
-17.82253757534142
-20.752269779507134
-20.16632333867399
-24.072632944228275
-27.002365148393988
-29.2484931715877
-31.592278934920273
-31.103990234225986
-35.010299839780274
-37.94003204394598
-37.256427862973986
-43.11589227130541
-47.51049057755398
-55.127794308384836
-61.96383611810483
-60.401312275883114
-68.4092469672694
-74.26871137560083
-72.90150301365682
-77.00312809948882
-79.93286030365454
-80.12817578393225
-81.00709544518196
-80.81177996490425
-78.95628290226597
-77.39375906004425
-77.68673228046082
-72.80384527351796
-69.0928511482414
-65.18654154268711
-61.182574196993976
-62.061493858243686
-59.91302357518883
-58.44815747310597
-58.8387884336614
-58.74113069352254
-58.74113069352254
-58.643472953383686
-58.643472953383686
-58.643472953383686
-56.690318150606544
-55.22545204852369
-55.51842526894026
-51.61211566338598
-48.68238345922026
-42.62760357061112
-37.256427862973986
-38.42832074464027
-27.68596932936599
-19.48271915770199
-21.338216220340275
-8.545052262149996
0.9277485313191425
12.158388647287708
23.096055542839704
20.654612039368278
33.545433737697415
43.11589227130541
40.96742198825055
51.90508888380255
60.01068131532769
66.74906538490883
73.78042267490653
72.21789883268482
77.29610131990539
80.9094377050431
80.12817578393225
84.13214312962539
86.96421759365225
88.23376821545739
89.7962920576791
89.40566109712367
90.47989623865111
91.1635004196231
90.96818493934539
89.99160753795681
89.21034561684596
87.45250629434653
85.88998245212481
86.1829556725414
82.27664606698711
79.3469138628214
79.93286030365454
74.07339589532312
69.58113984893568
62.9404135194934
56.7879758907454
58.057526512550545
51.123826962691695
45.947966735332265
47.0222018768597
40.08850232700084
34.91264209964141
30.322728313115128
25.63515678644999
26.709391927977418
20.752269779507134
16.260013733119706
17.236591134508277
13.232623788815136
10.302891584649425
7.177843900205997
4.052796215762569
4.736400396734569
0.7324330510414282
-2.0996414129854277
-1.416037232013428
-5.420004577706569
-8.349736781872283
-11.47478446631571
-14.599832150759136
-13.916227969787137
-18.89677271686885
-22.510109102006563
-21.728847180895706
-25.732814526588847
-28.66254673075456
-31.787594415197987
-34.91264209964141
-34.131380178530556
-38.1353475242237
-41.065079728389414
-40.38147554741741
-44.38544289311055
-47.31517509727627
-49.46364538033112
-51.80743114366369
-51.31914244296941
-54.24887464713512
-56.39734493018997
-55.90905622949569
-57.95986877241169
-59.32707713435569
-61.86617837796597
-64.20996414129854
-63.6240177004654
-64.69825284199283
-65.38185702296482
-65.18654154268711
-67.13969634546426
-68.60456244754711
-70.16708628976883
-71.63195239185168
-71.33897917143511
-72.31555657282368
-72.99916075379568
-72.80384527351796
-73.78042267490653
-74.5616845960174
-74.36636911573969
-74.36636911573969
-74.26871137560083
-74.26871137560083
-74.26871137560083
-74.26871137560083
-72.31555657282368
-70.85069047074083
-66.3584344243534
-62.54978255893797
-63.33104448004883
-55.51842526894026
-49.56130312046998
-50.928511482413974
-41.065079728389414
-33.64309147783627
-22.90074006256199
-12.84199282825971
-15.088120851453422
-2.197299153124285
7.275501640344854
5.127031357289998
18.017853055619135
27.588311589227132
35.98687724116884
44.580758373388264
42.62760357061112
51.61211566338598
58.25284199282826
56.7879758907454
61.86617837796597
65.47951476310368
68.4092469672694
71.53429465171283
70.85069047074083
72.90150301365682
74.36636911573969
73.97573815518425
73.97573815518425
73.97573815518425
72.02258335240711
70.55771725032426
70.85069047074083
67.92095826657511
65.6748302433814
66.16311894407569
61.182574196993976
57.471580071717405
52.588693064774546
47.90112153810941
48.97535667963683
42.04165712977798
36.86579690241855
38.03768978408484
31.00633249408713
25.92813000686656
21.338216220340275
16.55298695353628
17.627222095063708
12.646677347981994
8.935683222705425
9.71694514381628
1.9043259327077133
-3.8574807354848555
-12.060730907148852
-19.775692378118563
-18.11551079575799
-27.97894254978256
-35.303273060196844
-33.74074921797513
-38.818951705195694
-42.43228809033341
-43.50652323186084
-45.16670481422141
-44.77607385366598
-43.89715419241627
-43.11589227130541
-43.311207751583126
-38.42832074464027
-34.717326619363696
-31.787594415197987
-28.564888990615703
-29.2484931715877
-29.150835431448844
-29.150835431448844
-29.150835431448844
-31.9829098954757
-34.22903791866941
-37.549401083390556
-40.57679102769512
-39.893186846723125
-42.92057679102769
-45.069047074082555
-44.580758373388264
-47.51049057755398
-49.658960860608836
-51.123826962691695
-52.6863508049134
-52.295719844357976
-54.24887464713512
-55.713740749217976
-55.420767528801406
-57.37392233157855
-58.8387884336614
-60.401312275883114
-61.96383611810483
-61.5732051575494
-62.54978255893797
-63.233386739909974
-63.13572899977112
-64.01464866102083
-64.79591058213168
-65.57717250324254
-66.26077668421455
-66.06546120393683
-66.16311894407569
-66.06546120393683
-66.06546120393683
-66.06546120393683
-66.06546120393683
-64.11230640115969
-62.64744029907683
-62.9404135194934
-59.03410391393912
-56.006713969634546
-56.690318150606544
-49.85427634088655
-44.67841611352712
-37.15877012283513
-30.22507057297627
-31.787594415197987
-19.971007858396277
-11.08415350576028
-13.037308308537423
-1.2207217517357138
7.568474860761425
17.041275654230564
26.416418707560844
24.267948424505988
34.32669565880827
41.651026169222554
39.99084458686198
47.998779278248264
53.760585946440834
57.27626459143969
61.28023193713283
60.30365453574426
62.45212481879911
63.819333180743115
63.526359960326545
64.50293736171511
65.18654154268711
64.9912260624094
65.08888380254825
64.9912260624094
62.15915159838254
59.91302357518883
60.401312275883114
56.39734493018997
53.467612726024264
49.26832990005341
45.45967803463798
46.240939955748836
40.38147554741741
35.889219501029984
36.86579690241855
30.029755092698558
24.853894865339132
20.263981078812847
15.47875181200885
16.55298695353628
11.572442206454566
7.861448081177996
8.74036774242771
4.736400396734569
1.8066681925688564
-0.34180209048599985
-2.68558785381857
-2.197299153124285
-5.224689097428855
-7.373159380483711
-6.884870679789426
-9.81460288395514
-12.060730907148852
-14.404516670481422
-16.748302433813993
-16.260013733119706
-19.18974593728542
-21.43587396047913
-20.947585259784848
-23.87731746395056
-26.123445487144274
-28.467231250476843
-30.811017013809415
-30.22507057297627
-33.252460517280845
-35.4009308003357
-34.91264209964141
-36.86579690241855
-38.33066300450141
-40.86976424811169
-43.21355001144427
-42.62760357061112
-44.67841611352712
-46.14328221560998
-45.75265125505455
-47.705806057831694
-49.17067215991455
-49.75661860074769
-50.635538261997404
-50.44022278171969
-51.416800183108265
-52.10040436408026
-51.90508888380255
-52.881666285191116
-53.56527046616312
-55.32310978866255
-56.88563363088426
-56.49500267032883
-57.471580071717405
-58.25284199282826
-58.057526512550545
-58.057526512550545
-58.057526512550545
-58.936446173800256
-59.71770809491112
-59.522392614633404
-59.522392614633404
-59.522392614633404
-59.42473487449455
-59.42473487449455
-59.42473487449455
-58.44815747310597
-57.66689555199512
-57.86221103227283
-55.90905622949569
-54.346532387273975
-54.7371633478294
-49.85427634088655
-46.14328221560998
-40.28381780727855
-34.81498435950255
-36.0845349813077
-27.1976806286717
-20.55695429922942
-22.021820401312276
-11.181811245899137
-3.076218814373999
6.494239719233997
15.771725032425422
13.720912489509422
24.65857938506142
32.764171816586554
30.908674753948272
39.014267185473415
44.77607385366598
49.26832990005341
53.95590142671855
52.881666285191116
56.88563363088426
59.815365835049974
59.13176165407798
57.37392233157855
55.81139848935683
51.416800183108265
47.60814831769284
48.38941023880369
40.57679102769512
34.61966887922484
35.98687724116884
30.908674753948272
27.1976806286717
25.146868085755703
22.705424582284277
23.291371023117417
21.24055848020142
19.775692378118563
20.068665598535134
19.971007858396277
19.971007858396277
19.971007858396277
19.971007858396277
19.971007858396277
18.11551079575799
16.55298695353628
16.943617914091707
12.060730907148852
8.349736781872283
6.298924238956283
3.8574807354848555
4.443427176317998
1.416037232013428
-0.6347753109025711
-0.14648661020828566
-2.197299153124285
-3.662165255207141
-6.201266498817426
-8.44739452201114
-7.959105821316854
-10.986495765621424
-13.13496604867628
-12.646677347981994
-15.576409552147707
-17.82253757534142
-20.16632333867399
-22.510109102006563
-22.021820401312276
-24.95155260547799
-27.1976806286717
-26.61173418783856
-30.615701533531702
-33.545433737697415
-35.69390402075227
-38.03768978408484
-37.549401083390556
-40.479133287556266
-42.72526131074998
-42.236972610055695
-45.16670481422141
-47.31517509727627
-48.78004119935912
-50.34256504158083
-49.951934081025406
-51.90508888380255
-53.36995498588541
-53.07698176546884
-55.03013656824598
-56.49500267032883
-57.08094911116198
-57.86221103227283
-57.66689555199512
-59.62005035477226
-61.08491645685512
-60.694285496299685
-61.67086289768826
-62.45212481879911
-63.233386739909974
-63.91699092088197
-63.72167544060426
-63.819333180743115
-63.72167544060426
-63.72167544060426
-63.72167544060426
-63.72167544060426
-64.60059510185397
-65.38185702296482
-65.18654154268711
-65.18654154268711
-65.18654154268711
-65.08888380254825
-64.11230640115969
-63.42870222018769
-61.67086289768826
-60.108339055466544
-60.401312275883114
-56.49500267032883
-53.56527046616312
-54.15121690699626
-48.291752498664835
-43.79949645227741
-36.182192721446555
-29.2484931715877
-30.811017013809415
-20.947585259784848
-13.525597009231708
-15.185778591592278
-3.36919203479057
5.322346837567712
12.939650568398566
20.84992751964599
19.092088197146563
27.100022888532845
32.95948729686427
31.592278934920273
37.64705882352941
42.04165712977798
44.873731593804834
47.998779278248264
47.31517509727627
48.38941023880369
49.073014419775696
48.877698939497975
47.0222018768597
45.45967803463798
42.92057679102769
40.67444876783398
41.16273746852827
37.15877012283513
34.22903791866941
34.91264209964141
28.95551995117113
24.560921644922562
20.752269779507134
16.84596017395285
17.724879835202564
12.74433508812085
9.033340962844282
9.81460288395514
5.810635538261997
2.8809033340962844
1.7090104524299992
0.04882887006942855
0.43945983062485694
-0.537117570763714
-1.3183794918745708
-1.1230640115968566
-2.0996414129854277
-2.8809033340962844
-2.68558785381857
-2.68558785381857
-2.68558785381857
-3.662165255207141
-4.345769436179141
-4.248111696040284
-5.224689097428855
-5.908293278400855
-6.6895551995117115
-7.470817120622568
-7.373159380483711
-9.326314183260854
-10.79118028534371
-10.400549324788281
-12.45136186770428
-13.916227969787137
-15.47875181200885
-17.041275654230564
-16.650644693675137
-18.60379949645228
-20.068665598535134
-19.775692378118563
-21.728847180895706
-23.19371328297856
-24.756237125200276
-26.318760967421987
-25.92813000686656
-27.97894254978256
-29.443808651865414
-29.053177691309987
-30.127412832837415
-30.811017013809415
-31.592278934920273
-32.37354085603113
-32.178225375753414
-33.15480277714199
-33.838406958113985
-33.74074921797513
-34.717326619363696
-35.4009308003357
-35.20561532005799
-35.303273060196844
-35.20561532005799
-36.182192721446555
-36.96345464255741
-36.768139162279695
-36.768139162279695
-36.768139162279695
-36.768139162279695
-36.768139162279695
-36.67048142214084
-36.67048142214084
-36.67048142214084
-36.67048142214084
-39.5025558861677
-41.74868390936141
-46.92454413672083
-51.51445792324712
-50.53788052185855
-56.39734493018997
-60.79194323643854
-59.815365835049974
-60.987258716716255
-61.67086289768826
-60.49897001602197
-59.815365835049974
-59.91302357518883
-54.15121690699626
-49.658960860608836
-50.635538261997404
-42.822919050888835
-36.86579690241855
-31.494621194781413
-26.025787747005417
-27.1976806286717
-23.096055542839704
-20.16632333867399
-20.84992751964599
-20.654612039368278
-20.654612039368278
-21.63118944075685
-22.412451361867703
-22.21713588158999
-22.21713588158999
-22.21713588158999
-22.21713588158999
-22.21713588158999
-22.21713588158999
-21.24055848020142
-20.45929655909056
-20.654612039368278
-17.724879835202564
-15.47875181200885
-15.967040512703136
-10.205233844510566
-5.71297779812314
3.662165255207141
12.060730907148852
10.205233844510566
23.974975204089418
34.32669565880827
31.9829098954757
47.80346379797055
59.522392614633404
71.24132143129626
82.86259250782025
80.2258335240711
94.19089036392768
104.44495307850767
102.1011673151751
113.03883421072709
121.14442664225223
125.92965590905622
131.49614709697107
130.22659647516593
134.32822156099795
137.1602960250248
136.4766918440528
138.42984664682993
139.89471274891278
139.50408178835735
139.50408178835735
139.50408178835735
139.4064240482185
139.4064240482185
139.30876630807964
137.3556115053025
135.89074540321965
132.3750667582208
129.25001907377737
129.93362325474936
125.92965590905622
122.90226596475166
123.4882124055848
117.62874799725337
113.13649195086595
107.37468528267338
102.00350957503625
103.17540245670253
96.14404516670481
90.96818493934539
92.14007782101167
85.10872053101396
79.93286030365454
75.34294651712825
70.65537499046312
71.63195239185168
66.65140764476998
62.9404135194934
63.72167544060426
59.71770809491112
56.7879758907454
53.56527046616312
50.44022278171969
51.123826962691695
47.11985961699855
44.19012741283284
44.77607385366598
39.893186846723125
36.182192721446555
33.15480277714199
30.029755092698558
30.71335927367056
26.709391927977418
23.779659723811704
24.4632639047837
19.48271915770199
15.771725032425422
12.84199282825971
9.619287403677424
10.302891584649425
6.39658197909514
3.466849774929427
4.052796215762569
0.14648661020828566
-2.68558785381857
-5.908293278400855
-9.033340962844282
-8.349736781872283
-11.279468986037996
-13.525597009231708
-13.037308308537423
-15.967040512703136
-18.21316853589685
-20.55695429922942
-22.90074006256199
-22.314793621728846
-24.365606164644845
-25.830472266727703
-25.537499046311133
-27.49065384908827
-28.95551995117113
-29.541466392004274
-30.322728313115128
-30.127412832837415
-32.08056763561456
-33.545433737697415
-33.252460517280845
-34.22903791866941
-35.010299839780274
-35.79156176089113
-36.475165941863125
-36.37750820172427
-36.37750820172427
-36.37750820172427
-36.37750820172427
-37.256427862973986
-38.03768978408484
-38.818951705195694
-39.5025558861677
-39.40489814602884
-39.40489814602884
-39.40489814602884
-39.40489814602884
-40.28381780727855
-41.065079728389414
-41.84634164950027
-42.529945830472265
-42.43228809033341
-43.40886549172198
-44.09246967269398
-43.89715419241627
-44.873731593804834
-45.654993514915695
-46.33859769588769
-47.11985961699855
-46.92454413672083
-47.0222018768597
-46.92454413672083
-46.92454413672083
-45.947966735332265
-45.26436255436027
-42.529945830472265
-40.186160067139696
-40.67444876783398
-34.91264209964141
-30.420386053253985
-31.396963454642556
-22.60776684214542
-15.967040512703136
-5.908293278400855
3.1738765545128556
1.1230640115968566
14.013885709925994
23.58434424353399
21.43587396047913
34.32669565880827
43.79949645227741
52.19806210421912
60.79194323643854
58.936446173800256
66.94438086518655
72.80384527351796
71.43663691157397
74.5616845960174
76.71015487907225
74.26871137560083
72.90150301365682
73.19447623407339
69.28816662851911
66.26077668421455
66.94438086518655
64.89356832227054
63.33104448004883
63.72167544060426
63.6240177004654
63.6240177004654
65.47951476310368
66.94438086518655
66.55374990463112
69.48348210879682
71.72961013199054
72.12024109254597
72.99916075379568
72.70618753337911
69.87411306935225
67.62798504615854
68.11627374685283
61.28023193713283
56.1043717097734
51.51445792324712
46.826886396581976
47.80346379797055
42.822919050888835
39.11192492561227
39.893186846723125
34.91264209964141
31.2993057145037
28.27191577019913
25.146868085755703
25.830472266727703
22.803082322423133
20.55695429922942
21.045242999923705
18.11551079575799
15.869382772564279
13.525597009231708
11.181811245899137
11.670099946593423
8.642710002288853
6.494239719233997
6.982528419928283
2.9785610742351416
0.04882887006942855
-2.0019836728465705
-4.443427176317998
-3.8574807354848555
-7.861448081177996
-10.79118028534371
-10.10757610437171
-13.13496604867628
-15.283436331731137
-17.627222095063708
-19.971007858396277
-19.48271915770199
-22.412451361867703
-24.65857938506142
-24.17029068436713
-26.123445487144274
-27.588311589227132
-30.127412832837415
-32.471198596169984
-31.885252155336843
-33.93606469825284
-35.4009308003357
-35.010299839780274
-37.94003204394598
-40.186160067139696
-41.5533684290837
-43.11589227130541
-42.822919050888835
-43.79949645227741
-44.48310063324941
-44.28778515297169
-46.240939955748836
-47.705806057831694
-48.291752498664835
-49.17067215991455
-48.97535667963683
-49.951934081025406
-50.635538261997404
-50.44022278171969
-51.416800183108265
-52.19806210421912
-52.002746623941405
-52.002746623941405
-52.002746623941405
-52.881666285191116
-53.66292820630198
-53.467612726024264
-53.467612726024264
-53.467612726024264
-53.467612726024264
-53.36995498588541
-53.36995498588541
-53.36995498588541
-53.36995498588541
-53.36995498588541
-53.36995498588541
-53.27229724574655
-53.27229724574655
-53.27229724574655
-53.27229724574655
-52.295719844357976
-51.51445792324712
-51.709773403524835
-49.75661860074769
-48.19409475852598
-42.822919050888835
-38.23300526436255
-39.307240405889985
-31.396963454642556
-25.537499046311133
-26.807049668116274
-15.088120851453422
-6.201266498817426
5.127031357289998
15.967040512703136
13.525597009231708
27.392996108949415
37.74471656366827
35.4009308003357
48.291752498664835
57.86221103227283
66.16311894407569
74.85465781643397
72.90150301365682
79.93286030365454
85.0110627908751
83.83916990920882
87.94079499504082
90.77286945906768
93.01899748226138
95.36278324559396
94.77683680476082
95.85107194628824
96.53467612726024
96.33936064698253
95.36278324559396
94.5815213244831
93.80025940337224
92.92133974212253
93.11665522240024
90.18692301823454
87.94079499504082
88.4290836957351
84.42511635004196
81.49538414587624
76.41718165865568
71.72961013199054
72.70618753337911
66.74906538490883
62.35446707866026
63.33104448004883
57.37392233157855
52.881666285191116
48.19409475852598
43.50652323186084
44.48310063324941
39.5025558861677
35.79156176089113
36.57282368200198
32.56885633630884
29.63912413214313
27.392996108949415
25.049210345616846
25.537499046311133
22.60776684214542
20.361638818951704
20.84992751964599
17.82253757534142
15.674067292286564
13.232623788815136
10.888838025482567
11.47478446631571
8.44739452201114
6.298924238956283
6.787212939650568
2.783245593957427
-0.04882887006942855
-2.197299153124285
-4.638742656595713
-4.052796215762569
-7.080186160067139
-9.228656443121995
-8.74036774242771
-11.767757686732281
-13.916227969787137
-17.236591134508277
-20.361638818951704
-19.678034637979707
-21.728847180895706
-23.19371328297856
-22.803082322423133
-28.564888990615703
-33.05714503700313
-40.67444876783398
-47.51049057755398
-45.947966735332265
-53.95590142671855
-59.815365835049974
-58.44815747310597
-62.54978255893797
-65.47951476310368
-64.79591058213168
-64.89356832227054
-64.89356832227054
-60.987258716716255
-58.057526512550545
-58.643472953383686
-52.78400854505226
-48.291752498664835
-42.62760357061112
-37.15877012283513
-38.42832074464027
-36.182192721446555
-34.717326619363696
-35.10795757991913
-35.889219501029984
-36.67048142214084
-37.4517433432517
-38.23300526436255
-38.03768978408484
-38.03768978408484
-38.03768978408484
-38.03768978408484
-38.03768978408484
-38.03768978408484
-37.06111238269627
-36.27985046158541
-36.475165941863125
-32.56885633630884
-29.63912413214313
-30.22507057297627
-24.365606164644845
-19.971007858396277
-13.232623788815136
-7.080186160067139
-8.44739452201114
2.197299153124285
10.302891584649425
8.545052262149996
19.385061417563133
27.49065384908827
35.20561532005799
43.018234531166556
41.26039520866713
50.24490730144198
56.88563363088426
55.32310978866255
61.37788967727169
65.77248798352025
69.58113984893568
73.48744945448996
72.5108720531014
74.65934233615626
76.02655069810025
75.73357747768368
76.71015487907225
77.39375906004425
76.31952391851682
75.53826199740597
75.63591973754482
73.68276493476768
72.21789883268482
72.5108720531014
69.58113984893568
67.33501182574197
63.03807125963226
59.13176165407798
60.01068131532769
54.053559166857404
49.658960860608836
50.635538261997404
44.67841611352712
40.186160067139696
36.37750820172427
32.471198596169984
33.3501182574197
28.369573510337986
24.65857938506142
25.537499046311133
21.43587396047913
18.506141756313422
16.357671473258563
13.916227969787137
14.50217441062028
12.45136186770428
10.986495765621424
11.279468986037996
8.349736781872283
6.103608758678568
4.736400396734569
3.1738765545128556
3.466849774929427
0.537117570763714
-1.6113527122911422
-1.1230640115968566
-3.076218814373999
-4.541084916456855
-8.05676356145571
-11.08415350576028
-10.400549324788281
-13.427939269092851
-15.576409552147707
-15.088120851453422
-18.11551079575799
-20.263981078812847
-22.60776684214542
-24.95155260547799
-24.4632639047837
-26.514076447699704
-27.881284809643702
-27.588311589227132
-30.518043793392845
-32.764171816586554
-34.131380178530556
-35.69390402075227
-35.303273060196844
-37.35408560311284
-38.818951705195694
-38.42832074464027
-40.38147554741741
-41.84634164950027
-43.40886549172198
-44.97138933394369
-44.580758373388264
-45.654993514915695
-46.33859769588769
-47.11985961699855
-47.90112153810941
-47.705806057831694
-49.658960860608836
-51.123826962691695
-50.73319600213626
-50.83085374227512
-50.73319600213626
-50.73319600213626
-50.73319600213626
-50.73319600213626
-49.75661860074769
-48.97535667963683
-49.17067215991455
-46.240939955748836
-43.99481193255512
-44.48310063324941
-39.600213626306555
-35.889219501029984
-28.076600289921416
-21.24055848020142
-22.705424582284277
-11.865415426871138
-3.7598229953459983
-5.615320057984283
6.201266498817426
14.990463111314565
24.4632639047837
33.838406958113985
31.68993667505913
42.62760357061112
50.73319600213626
55.61608300907912
61.182574196993976
59.91302357518883
65.8701457236591
70.26474402990769
69.28816662851911
72.31555657282368
74.46402685587854
74.95231555657283
75.73357747768368
75.53826199740597
74.65934233615626
73.87808041504539
73.97573815518425
72.99916075379568
72.21789883268482
69.48348210879682
67.23735408560312
67.7256427862974
62.745098039215684
59.03410391393912
59.91302357518883
54.932478828107115
51.22148470283055
46.240939955748836
41.651026169222554
42.62760357061112
36.67048142214084
32.27588311589227
33.252460517280845
27.295338368810558
22.90074006256199
17.13893339436942
11.767757686732281
12.939650568398566
4.052796215762569
-2.490272373540856
-1.0254062714579995
-8.935683222705425
-14.795147631036851
-18.310826276035705
-22.314793621728846
-21.338216220340275
-22.510109102006563
-23.19371328297856
-23.096055542839704
-22.119478141451133
-21.338216220340275
-18.701457236591136
-16.357671473258563
-16.943617914091707
-13.916227969787137
-11.670099946593423
-12.158388647287708
-12.060730907148852
-12.060730907148852
-14.990463111314565
-17.13893339436942
-16.650644693675137
-20.55695429922942
-23.58434424353399
-22.90074006256199
-25.92813000686656
-28.076600289921416
-30.420386053253985
-32.764171816586554
-32.27588311589227
-35.20561532005799
-37.35408560311284
-36.86579690241855
-39.893186846723125
-42.04165712977798
-43.40886549172198
-45.069047074082555
-44.67841611352712
-47.60814831769284
-49.75661860074769
-49.26832990005341
-52.19806210421912
-54.44419012741283
-55.81139848935683
-57.37392233157855
-57.08094911116198
-59.03410391393912
-60.49897001602197
-60.108339055466544
-62.061493858243686
-63.526359960326545
-64.11230640115969
-64.89356832227054
-64.69825284199283
-64.69825284199283
-64.69825284199283
-64.69825284199283
-64.69825284199283
-64.69825284199283
-62.745098039215684
-61.182574196993976
-61.5732051575494
-57.66689555199512
-54.639505607690545
-55.32310978866255
-48.48706797894255
-43.21355001144427
-35.79156176089113
-28.857862211032273
-30.420386053253985
-18.60379949645228
-9.71694514381628
-11.670099946593423
-0.7324330510414282
7.177843900205997
15.967040512703136
24.4632639047837
22.60776684214542
31.592278934920273
38.1353475242237
36.67048142214084
42.72526131074998
47.11985961699855
49.951934081025406
53.07698176546884
52.39337758449683
54.44419012741283
55.81139848935683
55.51842526894026
56.49500267032883
57.27626459143969
56.1043717097734
55.420767528801406
55.51842526894026
52.588693064774546
50.34256504158083
50.83085374227512
47.90112153810941
45.654993514915695
41.358052948805984
37.549401083390556
38.33066300450141
32.37354085603113
27.97894254978256
28.95551995117113
22.998397802700847
18.60379949645228
15.771725032425422
12.549019607843137
13.232623788815136
9.228656443121995
6.298924238956283
6.982528419928283
3.9551384756237127
1.8066681925688564
1.3183794918745708
0.43945983062485694
0.6347753109025711
-1.2207217517357138
-2.68558785381857
-2.392614633401999
-3.36919203479057
-4.150453955901427
-5.810635538261997
-7.373159380483711
-6.982528419928283
-9.033340962844282
-10.498207064927138
-10.10757610437171
-12.158388647287708
-13.623254749370565
-16.16235599298085
-18.40848401617456
-17.920195315480278
-20.84992751964599
-23.096055542839704
-22.60776684214542
-24.560921644922562
-26.025787747005417
-28.564888990615703
-30.908674753948272
-30.322728313115128
-32.37354085603113
-33.838406958113985
-33.44777599755856
-35.4009308003357
-36.86579690241855
-38.42832074464027
-39.99084458686198
-39.69787136644541
-40.67444876783398
-41.358052948805984
-41.26039520866713
-43.11589227130541
-44.580758373388264
-45.26436255436027
-46.04562447547112
-45.85030899519341
-46.826886396581976
-47.51049057755398
-47.31517509727627
-48.291752498664835
-49.073014419775696
-49.85427634088655
-50.53788052185855
-50.44022278171969
-50.44022278171969
-50.44022278171969
-50.34256504158083
-50.34256504158083
-50.34256504158083
-49.365987640192266
-48.584725719081405
-48.78004119935912
-44.873731593804834
-41.943999389639124
-42.529945830472265
-35.69390402075227
-30.518043793392845
-23.096055542839704
-16.16235599298085
-17.724879835202564
-5.908293278400855
2.8809033340962844
0.9277485313191425
13.720912489509422
23.291371023117417
31.68993667505913
40.28381780727855
38.33066300450141
48.291752498664835
55.61608300907912
53.95590142671855
60.987258716716255
66.16311894407569
66.84672312504769
68.60456244754711
68.21393148699168
64.40527962157626
61.37788967727169
62.061493858243686
56.20202944991226
51.709773403524835
50.83085374227512
49.073014419775696
49.46364538033112
48.38941023880369
47.60814831769284
47.80346379797055
49.658960860608836
51.123826962691695
53.66292820630198
55.90905622949569
55.420767528801406
57.37392233157855
58.8387884336614
58.44815747310597
56.59266041046769
55.127794308384836
50.635538261997404
46.826886396581976
47.705806057831694
42.72526131074998
39.014267185473415
39.79552910658427
35.79156176089113
32.86182955672541
30.615701533531702
28.27191577019913
28.760204470893417
25.830472266727703
23.58434424353399
24.072632944228275
22.021820401312276
20.55695429922942
18.017853055619135
15.771725032425422
16.260013733119706
13.232623788815136
11.08415350576028
11.572442206454566
8.545052262149996
6.298924238956283
2.9785610742351416
0.04882887006942855
0.6347753109025711
-2.2949568932631417
-4.541084916456855
-4.052796215762569
-7.959105821316854
-10.888838025482567
-13.037308308537423
-15.47875181200885
-14.892805371175708
-17.920195315480278
-20.068665598535134
-19.58037689784085
-22.60776684214542
-24.756237125200276
-26.123445487144274
-27.783627069504846
-27.392996108949415
-30.322728313115128
-32.56885633630884
-31.9829098954757
-33.05714503700313
-33.74074921797513
-35.49858854047456
-37.06111238269627
-36.67048142214084
-37.74471656366827
-38.42832074464027
-38.23300526436255
-39.20958266575113
-39.99084458686198
-40.772106507972836
-41.45571068894484
-41.26039520866713
-42.236972610055695
-43.018234531166556
-42.822919050888835
-42.822919050888835
-42.822919050888835
-42.822919050888835
-42.822919050888835
-42.822919050888835
-40.86976424811169
-39.40489814602884
-39.69787136644541
-35.79156176089113
-32.86182955672541
-26.807049668116274
-21.43587396047913
-22.60776684214542
-12.74433508812085
-5.420004577706569
-7.080186160067139
3.7598229953459983
11.767757686732281
21.43587396047913
30.71335927367056
28.66254673075456
39.600213626306555
47.705806057831694
45.85030899519341
53.85824368657969
59.71770809491112
64.11230640115969
68.89753566796368
67.82330052643626
70.85069047074083
72.99916075379568
72.5108720531014
74.46402685587854
75.9288929579614
75.63591973754482
75.63591973754482
75.63591973754482
73.68276493476768
72.21789883268482
72.5108720531014
70.4600595101854
68.99519340810254
65.47951476310368
62.45212481879911
63.03807125963226
58.1551842526894
54.44419012741283
55.22545204852369
50.24490730144198
46.533913176165406
41.651026169222554
36.96345464255741
38.03768978408484
32.95948729686427
29.346150911726557
30.127412832837415
26.123445487144274
23.19371328297856
19.971007858396277
16.84596017395285
17.52956435492485
14.50217441062028
12.353704127565424
12.84199282825971
10.79118028534371
9.326314183260854
6.787212939650568
4.541084916456855
5.0293736171511405
2.9785610742351416
1.513694972152285
1.8066681925688564
-1.0254062714579995
-3.1738765545128556
-5.615320057984283
-7.959105821316854
-7.373159380483711
-10.400549324788281
-12.549019607843137
-12.060730907148852
-15.088120851453422
-17.236591134508277
-19.58037689784085
-21.92416266117342
-21.43587396047913
-23.389028763256274
-24.853894865339132
-24.560921644922562
-27.49065384908827
-29.63912413214313
-31.103990234225986
-32.6665140764477
-32.27588311589227
-34.32669565880827
-35.79156176089113
-35.4009308003357
-37.35408560311284
-38.818951705195694
-40.38147554741741
-41.943999389639124
-41.5533684290837
-42.62760357061112
-43.311207751583126
-43.11589227130541
-45.069047074082555
-46.533913176165406
-47.11985961699855
-47.998779278248264
-47.80346379797055
-47.80346379797055
-47.80346379797055
-47.705806057831694
-48.68238345922026
-49.46364538033112
-51.123826962691695
-52.6863508049134
-52.295719844357976
-56.20202944991226
-59.13176165407798
-58.44815747310597
-59.522392614633404
-60.2059967956054
-56.20202944991226
-53.27229724574655
-53.85824368657969
-44.19012741283284
-36.768139162279695
-38.42832074464027
-23.682001983672848
-12.646677347981994
2.9785610742351416
17.627222095063708
14.306858930342566
31.2993057145037
43.70183871213855
40.96742198825055
53.95590142671855
63.42870222018769
68.01861600671397
73.68276493476768
72.41321431296254
77.39375906004425
81.00709544518196
80.2258335240711
82.27664606698711
83.6438544289311
83.35088120851454
83.35088120851454
83.35088120851454
83.35088120851454
83.25322346837568
83.25322346837568
81.30006866559853
79.83520256351568
76.31952391851682
73.19447623407339
73.87808041504539
68.89753566796368
65.28419928282597
66.06546120393683
60.108339055466544
55.713740749217976
50.928511482413974
46.240939955748836
47.21751735713741
41.26039520866713
36.86579690241855
37.84237430380713
32.86182955672541
29.150835431448844
25.146868085755703
21.24055848020142
22.119478141451133
19.092088197146563
16.84596017395285
17.334248874647134
14.404516670481422
12.158388647287708
9.81460288395514
7.470817120622568
7.959105821316854
5.0293736171511405
2.783245593957427
3.2715342946517127
0.34180209048599985
-1.8066681925688564
-4.150453955901427
-6.494239719233997
-6.005951018539712
-8.935683222705425
-11.181811245899137
-10.693522545204852
-13.623254749370565
-15.869382772564279
-18.21316853589685
-20.55695429922942
-20.068665598535134
-23.974975204089418
-26.90470740825513
-26.22110322728313
-29.2484931715877
-31.396963454642556
-32.86182955672541
-34.424353398947126
-34.0337224383917
-36.96345464255741
-39.20958266575113
-38.62363622491798
-40.67444876783398
-42.13931486991684
-42.72526131074998
-43.50652323186084
-43.311207751583126
-45.26436255436027
-46.72922865644312
-46.43625543602655
-47.412832837415124
-48.09643701838712
-48.877698939497975
-49.658960860608836
-49.46364538033112
-49.46364538033112
-49.46364538033112
-49.46364538033112
-50.44022278171969
-51.123826962691695
-50.928511482413974
-50.928511482413974
-50.928511482413974
-50.928511482413974
-50.928511482413974
-50.928511482413974
-49.951934081025406
-49.17067215991455
-46.43625543602655
-44.19012741283284
-44.67841611352712
-38.818951705195694
-34.32669565880827
-35.303273060196844
-28.467231250476843
-23.291371023117417
-14.892805371175708
-7.177843900205997
-8.838025482566568
1.9043259327077133
10.009918364232853
8.154421301594567
17.13893339436942
23.779659723811704
30.908674753948272
37.84237430380713
36.27985046158541
42.33463035019455
46.72922865644312
45.75265125505455
50.73319600213626
54.346532387273975
55.420767528801406
57.08094911116198
56.690318150606544
57.764553292133975
58.44815747310597
58.25284199282826
57.37392233157855
56.59266041046769
53.85824368657969
51.51445792324712
52.002746623941405
48.09643701838712
45.16670481422141
45.75265125505455
40.86976424811169
37.15877012283513
32.27588311589227
27.588311589227132
28.564888990615703
23.58434424353399
19.971007858396277
20.752269779507134
16.748302433813993
13.81857022964828
10.595864805065995
7.470817120622568
8.154421301594567
6.103608758678568
4.638742656595713
5.0293736171511405
2.9785610742351416
1.513694972152285
0.9277485313191425
0.04882887006942855
0.24414435034714274
-1.6113527122911422
-3.076218814373999
-2.68558785381857
-4.736400396734569
-6.201266498817426
-7.763790341039139
-9.326314183260854
-8.935683222705425
-11.865415426871138
-14.11154345006485
-13.623254749370565
-16.55298695353628
-18.799114976729992
-20.16632333867399
-21.728847180895706
-21.43587396047913
-24.365606164644845
-26.514076447699704
-26.025787747005417
-29.053177691309987
-31.201647974364842
-35.49858854047456
-39.307240405889985
-38.42832074464027
-47.21751735713741
-53.85824368657969
-52.295719844357976
-59.32707713435569
-64.40527962157626
-66.16311894407569
-68.60456244754711
-68.01861600671397
-68.11627374685283
-68.11627374685283
-68.11627374685283
-64.20996414129854
-61.28023193713283
-55.22545204852369
-49.85427634088655
-51.02616922255284
-43.99481193255512
-38.91660944533455
-39.99084458686198
-35.889219501029984
-32.95948729686427
-33.64309147783627
-33.44777599755856
-33.545433737697415
-33.44777599755856
-33.44777599755856
-33.44777599755856
-32.471198596169984
-31.787594415197987
-29.053177691309987
-26.807049668116274
-27.295338368810558
-21.43587396047913
-16.943617914091707
-17.920195315480278
-10.10757610437171
-4.248111696040284
3.9551384756237127
11.670099946593423
9.912260624093996
20.84992751964599
28.857862211032273
27.100022888532845
37.06111238269627
44.38544289311055
51.31914244296941
58.350499732967116
56.7879758907454
62.84275577935454
67.13969634546426
66.16311894407569
70.16708628976883
73.09681849393453
74.26871137560083
75.9288929579614
75.53826199740597
75.63591973754482
75.53826199740597
75.53826199740597
74.5616845960174
73.78042267490653
71.04600595101854
68.79987792782482
69.28816662851911
64.3076218814374
60.694285496299685
61.475547417410546
56.49500267032883
52.78400854505226
47.90112153810941
43.21355001144427
44.19012741283284
38.23300526436255
33.838406958113985
34.81498435950255
29.834439612420844
26.123445487144274
24.072632944228275
21.63118944075685
22.21713588158999
19.18974593728542
16.943617914091707
17.43190661478599
15.47875181200885
14.013885709925994
12.353704127565424
10.79118028534371
11.181811245899137
8.252079041733426
6.005951018539712
6.494239719233997
4.443427176317998
2.9785610742351416
0.43945983062485694
-1.7090104524299992
-1.2207217517357138
-4.150453955901427
-6.39658197909514
-5.908293278400855
-9.81460288395514
-12.74433508812085
-14.990463111314565
-17.334248874647134
-16.84596017395285
-19.775692378118563
-22.021820401312276
-21.533531700617992
-24.4632639047837
-26.61173418783856
-29.053177691309987
-31.2993057145037
-30.811017013809415
-32.86182955672541
-34.32669565880827
-33.93606469825284
-35.889219501029984
-37.35408560311284
-38.91660944533455
-40.479133287556266
-40.08850232700084
-42.13931486991684
-43.604180971999696
-43.21355001144427
-45.16670481422141
-46.63157091630426
-47.21751735713741
-48.09643701838712
-47.90112153810941
-49.75661860074769
-51.22148470283055
-50.928511482413974
-51.90508888380255
-52.588693064774546
-52.49103532463569
-52.49103532463569
-52.49103532463569
-52.39337758449683
-52.39337758449683
-52.39337758449683
-52.39337758449683
-52.39337758449683
-50.44022278171969
-48.97535667963683
-49.26832990005341
-46.33859769588769
-44.09246967269398
-44.580758373388264
-38.72129396505684
-34.22903791866941
-26.61173418783856
-19.775692378118563
-21.24055848020142
-11.377126726176853
-4.052796215762569
-5.615320057984283
5.127031357289998
13.232623788815136
20.947585259784848
28.760204470893417
27.002365148393988
35.98687724116884
42.62760357061112
41.065079728389414
47.11985961699855
51.51445792324712
53.36995498588541
55.81139848935683
55.22545204852369
57.27626459143969
58.74113069352254
58.350499732967116
57.471580071717405
56.690318150606544
54.932478828107115
53.36995498588541
53.66292820630198
50.73319600213626
48.48706797894255
48.97535667963683
44.09246967269398
40.38147554741741
36.475165941863125
32.56885633630884
33.3501182574197
28.369573510337986
24.756237125200276
25.537499046311133
20.55695429922942
16.943617914091707
13.916227969787137
10.693522545204852
11.47478446631571
8.44739452201114
6.201266498817426
6.6895551995117115
4.638742656595713
3.1738765545128556
-1.1230640115968566
-4.931715877012284
-4.052796215762569
-10.986495765621424
-16.064698252841993
-14.990463111314565
-22.803082322423133
-28.760204470893417
-31.201647974364842
-34.424353398947126
-33.74074921797513
-34.81498435950255
-35.49858854047456
-35.4009308003357
-34.424353398947126
-33.64309147783627
-30.029755092698558
-27.002365148393988
-27.68596932936599
-23.682001983672848
-20.752269779507134
-21.338216220340275
-21.24055848020142
-21.24055848020142
-23.19371328297856
-24.65857938506142
-24.267948424505988
-26.22110322728313
-27.68596932936599
-27.392996108949415
-29.346150911726557
-30.811017013809415
-32.37354085603113
-33.93606469825284
-33.545433737697415
-35.596246280613414
-37.06111238269627
-36.67048142214084
-37.74471656366827
-38.42832074464027
-39.20958266575113
-39.99084458686198
-39.79552910658427
-40.772106507972836
-41.45571068894484
-41.26039520866713
-42.236972610055695
-43.018234531166556
-43.79949645227741
-44.580758373388264
-44.38544289311055
-45.362020294499125
-46.04562447547112
-45.85030899519341
-44.97138933394369
-44.19012741283284
-43.40886549172198
-42.62760357061112
-42.72526131074998
-38.91660944533455
-35.889219501029984
-36.57282368200198
-30.615701533531702
-26.22110322728313
-18.60379949645228
-11.670099946593423
-13.232623788815136
-2.392614633401999
5.615320057984283
3.8574807354848555
14.697489890897993
22.803082322423133
31.494621194781413
40.08850232700084
38.1353475242237
47.11985961699855
53.66292820630198
52.19806210421912
58.25284199282826
62.64744029907683
65.47951476310368
68.60456244754711
67.92095826657511
68.99519340810254
69.67879758907453
69.48348210879682
69.48348210879682
69.48348210879682
67.53032730601969
66.06546120393683
66.3584344243534
62.45212481879911
59.42473487449455
60.108339055466544
56.1043717097734
53.17463950560769
48.09643701838712
43.40886549172198
44.48310063324941
38.525978484779124
34.0337224383917
35.010299839780274
30.029755092698558
26.318760967421987
22.412451361867703
18.506141756313422
19.385061417563133
16.260013733119706
14.11154345006485
14.599832150759136
12.549019607843137
11.08415350576028
9.521629663538567
7.959105821316854
8.252079041733426
6.298924238956283
4.834058136873426
5.127031357289998
3.1738765545128556
1.7090104524299992
-0.7324330510414282
-3.076218814373999
-2.490272373540856
-5.517662317845426
-7.666132600900283
-7.177843900205997
-9.228656443121995
-10.693522545204852
-13.232623788815136
-15.47875181200885
-14.990463111314565
-18.017853055619135
-20.16632333867399
-19.678034637979707
-22.60776684214542
-24.853894865339132
-26.22110322728313
-27.881284809643702
-27.49065384908827
-29.443808651865414
-30.908674753948272
-30.615701533531702
-32.56885633630884
-34.0337224383917
-35.596246280613414
-37.15877012283513
-36.768139162279695
-37.74471656366827
-38.525978484779124
-38.33066300450141
-40.28381780727855
-41.74868390936141
-42.33463035019455
-43.11589227130541
-42.92057679102769
-43.89715419241627
-44.67841611352712
-44.48310063324941
-45.45967803463798
-46.14328221560998
-46.92454413672083
-47.705806057831694
-47.51049057755398
-47.51049057755398
-47.51049057755398
-47.51049057755398
-47.51049057755398
-47.51049057755398
-45.55733577477684
-44.09246967269398
-44.38544289311055
-41.45571068894484
-39.20958266575113
-39.69787136644541
-34.81498435950255
-31.103990234225986
-24.267948424505988
-18.11551079575799
-19.48271915770199
-9.619287403677424
-2.2949568932631417
-3.8574807354848555
6.884870679789426
14.990463111314565
22.705424582284277
30.518043793392845
28.760204470893417
38.72129396505684
46.04562447547112
44.38544289311055
51.416800183108265
56.49500267032883
59.13176165407798
62.35446707866026
61.67086289768826
63.72167544060426
65.08888380254825
64.79591058213168
64.79591058213168
64.79591058213168
60.01068131532769
56.29968719005112
57.08094911116198
48.291752498664835
41.651026169222554
43.11589227130541
32.27588311589227
24.17029068436713
18.310826276035705
11.963073167009995
13.330281528953995
9.228656443121995
6.298924238956283
6.982528419928283
5.908293278400855
5.127031357289998
8.154421301594567
10.400549324788281
9.912260624093996
13.81857022964828
16.748302433813993
16.064698252841993
17.13893339436942
17.920195315480278
15.771725032425422
14.306858930342566
14.697489890897993
12.646677347981994
11.181811245899137
11.572442206454566
9.521629663538567
8.05676356145571
5.517662317845426
3.2715342946517127
3.7598229953459983
1.7090104524299992
0.24414435034714274
0.537117570763714
-2.2949568932631417
-4.443427176317998
-6.884870679789426
-9.130998702983138
-8.642710002288853
-10.693522545204852
-12.158388647287708
-11.767757686732281
-14.697489890897993
-16.943617914091707
-19.287403677424276
-21.63118944075685
-21.14290074006256
-24.072632944228275
-26.318760967421987
-25.830472266727703
-27.783627069504846
-29.2484931715877
-30.811017013809415
-32.37354085603113
-31.9829098954757
-34.0337224383917
-35.4009308003357
-35.10795757991913
-36.0845349813077
-36.86579690241855
-38.62363622491798
-40.08850232700084
-39.69787136644541
-40.772106507972836
-41.45571068894484
-41.26039520866713
-42.236972610055695
-43.018234531166556
-43.79949645227741
-44.580758373388264
-44.38544289311055
-44.38544289311055
-44.38544289311055
-44.38544289311055
-44.28778515297169
-44.28778515297169
-43.311207751583126
-42.62760357061112
-42.72526131074998
-40.772106507972836
-39.307240405889985
-39.600213626306555
-34.717326619363696
-31.00633249408713
-24.17029068436713
-18.11551079575799
-19.48271915770199
-9.619287403677424
-2.197299153124285
-3.8574807354848555
7.861448081177996
16.650644693675137
25.24452582589456
33.838406958113985
31.885252155336843
42.822919050888835
50.928511482413974
49.073014419775696
56.1043717097734
61.182574196993976
64.89356832227054
68.79987792782482
67.92095826657511
70.94834821087969
73.09681849393453
72.60852979324025
72.70618753337911
72.60852979324025
71.63195239185168
70.85069047074083
71.04600595101854
68.11627374685283
65.8701457236591
66.3584344243534
62.35446707866026
59.42473487449455
55.32310978866255
51.416800183108265
52.295719844357976
45.362020294499125
40.186160067139696
41.358052948805984
35.303273060196844
30.908674753948272
27.100022888532845
23.19371328297856
24.072632944228275
19.971007858396277
17.041275654230564
17.724879835202564
14.697489890897993
12.549019607843137
10.10757610437171
7.763790341039139
8.349736781872283
6.298924238956283
4.834058136873426
5.127031357289998
3.1738765545128556
1.7090104524299992
0.14648661020828566
-1.3183794918745708
-1.0254062714579995
-2.9785610742351416
-4.443427176317998
-4.150453955901427
-7.080186160067139
-9.228656443121995
-11.670099946593423
-14.013885709925994
-13.427939269092851
-16.45532921339742
-18.60379949645228
-18.11551079575799
-21.14290074006256
-23.291371023117417
-25.63515678644999
-27.97894254978256
-27.49065384908827
-29.443808651865414
-30.908674753948272
-30.615701533531702
-32.56885633630884
-34.0337224383917
-34.61966887922484
-35.4009308003357
-35.303273060196844
-36.27985046158541
-36.96345464255741
-36.768139162279695
-38.72129396505684
-40.186160067139696
-40.772106507972836
-41.5533684290837
-41.45571068894484
-42.43228809033341
-43.11589227130541
-42.92057679102769
-43.89715419241627
-44.67841611352712
-44.48310063324941
-44.48310063324941
-44.48310063324941
-45.362020294499125
-46.14328221560998
-45.947966735332265
-45.947966735332265
-45.947966735332265
-45.947966735332265
-45.947966735332265
-45.947966735332265
-43.99481193255512
-42.43228809033341
-42.822919050888835
-38.91660944533455
-35.889219501029984
-32.764171816586554
-29.63912413214313
-30.322728313115128
-27.295338368810558
-25.049210345616846
-25.537499046311133
-19.678034637979707
-15.283436331731137
-6.6895551995117115
0.8300907911802854
-0.7324330510414282
10.009918364232853
18.11551079575799
16.260013733119706
29.150835431448844
38.62363622491798
47.998779278248264
57.37392233157855
55.22545204852369
64.3076218814374
70.85069047074083
69.38582436865796
73.48744945448996
76.31952391851682
74.75700007629511
74.07339589532312
74.26871137560083
71.33897917143511
69.0928511482414
69.58113984893568
65.57717250324254
62.64744029907683
58.44815747310597
54.639505607690545
55.420767528801406
49.46364538033112
45.069047074082555
46.04562447547112
40.08850232700084
35.69390402075227
30.908674753948272
26.22110322728313
27.295338368810558
22.21713588158999
18.60379949645228
19.385061417563133
16.357671473258563
14.11154345006485
11.767757686732281
9.42397192339971
9.912260624093996
7.861448081177996
6.39658197909514
6.787212939650568
4.736400396734569
3.2715342946517127
1.7090104524299992
0.14648661020828566
0.537117570763714
-1.416037232013428
-2.8809033340962844
-2.490272373540856
-5.420004577706569
-7.666132600900283
-9.033340962844282
-10.693522545204852
-10.302891584649425
-13.232623788815136
-15.47875181200885
-14.990463111314565
-17.920195315480278
-20.16632333867399
-22.510109102006563
-24.853894865339132
-24.267948424505988
-26.318760967421987
-27.783627069504846
-27.392996108949415
-29.443808651865414
-30.908674753948272
-32.471198596169984
-34.0337224383917
-33.64309147783627
-35.596246280613414
-37.06111238269627
-36.768139162279695
-37.74471656366827
-38.42832074464027
-39.20958266575113
-39.99084458686198
-39.79552910658427
-40.772106507972836
-41.5533684290837
-41.358052948805984
-42.33463035019455
-43.018234531166556
-43.79949645227741
-44.580758373388264
-44.38544289311055
-44.38544289311055
-44.38544289311055
-44.38544289311055
-44.38544289311055
-44.38544289311055
-43.40886549172198
-42.62760357061112
-42.822919050888835
-40.86976424811169
-39.307240405889985
-39.69787136644541
-35.79156176089113
-32.764171816586554
-26.709391927977418
-21.43587396047913
-22.60776684214542
-13.720912489509422
-7.080186160067139
-8.545052262149996
2.197299153124285
10.302891584649425
19.971007858396277
29.2484931715877
27.1976806286717
37.15877012283513
44.48310063324941
42.822919050888835
51.80743114366369
58.350499732967116
62.54978255893797
67.33501182574197
66.26077668421455
70.26474402990769
73.19447623407339
72.5108720531014
73.58510719462882
74.26871137560083
73.19447623407339
72.41321431296254
72.60852979324025
70.55771725032426
69.0928511482414
69.38582436865796
65.47951476310368
62.54978255893797
57.37392233157855
52.78400854505226
53.760585946440834
47.80346379797055
43.40886549172198
44.38544289311055
37.4517433432517
32.27588311589227
27.68596932936599
22.998397802700847
24.072632944228275
18.994430457007706
15.381094071869994
16.16235599298085
11.181811245899137
7.568474860761425
5.517662317845426
3.076218814373999
3.5645075150682843
0.6347753109025711
-1.513694972152285
-1.0254062714579995
-3.9551384756237127
-6.201266498817426
-8.545052262149996
-10.888838025482567
-10.400549324788281
-13.330281528953995
-15.576409552147707
-15.088120851453422
-18.017853055619135
-20.16632333867399
-23.48668650339513
-26.61173418783856
-25.92813000686656
-28.95551995117113
-31.103990234225986
-30.615701533531702
-33.545433737697415
-35.79156176089113
-38.1353475242237
-40.479133287556266
-39.893186846723125
-42.92057679102769
-45.069047074082555
-44.580758373388264
-46.533913176165406
-47.998779278248264
-49.56130312046998
-51.123826962691695
-50.73319600213626
-52.78400854505226
-54.15121690699626
-53.85824368657969
-54.83482108796826
-55.51842526894026
-60.2059967956054
-63.91699092088197
-63.03807125963226
-70.85069047074083
-76.71015487907225
-75.34294651712825
-82.37430380712597
-87.45250629434653
-89.1126878767071
-91.55413138017853
-90.96818493934539
-91.06584267948425
-91.06584267948425
-91.06584267948425
-87.15953307392996
-84.13214312962539
-77.19844357976653
-71.04600595101854
-72.41321431296254
-65.38185702296482
-60.2059967956054
-61.37788967727169
-57.27626459143969
-54.346532387273975
-53.07698176546884
-51.416800183108265
-51.709773403524835
-46.92454413672083
-43.21355001144427
-43.99481193255512
-37.06111238269627
-31.885252155336843
-23.48668650339513
-15.869382772564279
-17.52956435492485
-7.568474860761425
-0.24414435034714274
-1.9043259327077133
8.838025482566568
16.943617914091707
23.779659723811704
30.811017013809415
29.2484931715877
35.303273060196844
39.69787136644541
38.72129396505684
42.72526131074998
45.654993514915695
46.826886396581976
48.48706797894255
48.09643701838712
47.21751735713741
46.43625543602655
46.63157091630426
44.67841611352712
43.11589227130541
39.600213626306555
36.57282368200198
37.256427862973986
31.396963454642556
26.90470740825513
27.881284809643702
22.90074006256199
19.18974593728542
14.306858930342566
9.71694514381628
10.693522545204852
6.6895551995117115
3.7598229953459983
4.345769436179141
1.3183794918745708
-0.7324330510414282
-1.2207217517357138
-2.0996414129854277
-1.9043259327077133
-2.8809033340962844
-3.5645075150682843
-3.466849774929427
-3.466849774929427
-3.466849774929427
-4.443427176317998
-5.127031357289998
-5.0293736171511405
-6.005951018539712
-6.6895551995117115
-6.494239719233997
-8.44739452201114
-9.912260624093996
-10.595864805065995
-11.377126726176853
-11.181811245899137
-14.11154345006485
-16.357671473258563
-15.869382772564279
-17.82253757534142
-19.287403677424276
-20.84992751964599
-22.412451361867703
-22.119478141451133
-23.096055542839704
-23.779659723811704
-23.682001983672848
-25.537499046311133
-27.100022888532845
-28.66254673075456
-30.127412832837415
-29.834439612420844
-30.811017013809415
-31.592278934920273
-31.396963454642556
-31.396963454642556
-31.396963454642556
-32.37354085603113
-33.05714503700313
-32.86182955672541
-32.95948729686427
-32.86182955672541
-32.86182955672541
-32.86182955672541
-32.86182955672541
-32.86182955672541
-32.86182955672541
-32.86182955672541
-32.86182955672541
-32.86182955672541
-32.764171816586554
-32.764171816586554
-32.764171816586554
-32.764171816586554
-32.764171816586554
-32.764171816586554
-32.764171816586554
-32.764171816586554
-32.764171816586554
-32.764171816586554
-32.6665140764477
-32.6665140764477
-32.6665140764477
-32.6665140764477
-33.64309147783627
-34.32669565880827
-34.131380178530556
-34.22903791866941
-34.22903791866941
-33.252460517280845
-32.471198596169984
-32.6665140764477
-31.592278934920273
-30.908674753948272
-31.00633249408713
-28.076600289921416
-25.92813000686656
-20.654612039368278
-16.064698252841993
-17.041275654230564
-7.275501640344854
0.04882887006942855
-1.6113527122911422
12.060730907148852
22.412451361867703
34.424353398947126
46.04562447547112
43.40886549172198
59.22941939421683
71.04600595101854
68.4092469672694
83.25322346837568
94.19089036392768
102.29648279545282
110.89036392767224
108.93720912489509
117.04280155642023
122.8046082246128
121.4373998626688
127.49217975127794
131.78912031738764
133.64461738002595
136.08606088349737
135.50011444266423
136.4766918440528
137.1602960250248
136.96498054474708
136.96498054474708
136.86732280460822
134.9141680018311
133.44930189974824
133.7422751201648
129.73830777447165
126.80857557030595
127.39452201113909
122.41397726405738
118.70298313878081
113.82009613183794
109.1325246051728
110.10910200656139
103.17540245670253
97.99954222934309
99.07377737087053
92.14007782101167
86.96421759365225
79.44457160296025
72.5108720531014
74.07339589532312
63.13572899977112
55.03013656824598
56.7879758907454
46.826886396581976
39.5025558861677
34.424353398947126
28.857862211032273
30.127412832837415
27.002365148393988
24.756237125200276
25.24452582589456
25.146868085755703
25.146868085755703
27.100022888532845
28.564888990615703
28.174258030060273
29.2484931715877
29.9320973525597
29.736781872281988
27.881284809643702
26.416418707560844
21.92416266117342
18.11551079575799
18.994430457007706
14.013885709925994
10.302891584649425
11.181811245899137
7.177843900205997
4.248111696040284
1.0254062714579995
-2.0019836728465705
-1.3183794918745708
-5.224689097428855
-8.154421301594567
-7.568474860761425
-10.595864805065995
-12.74433508812085
-15.088120851453422
-17.43190661478599
-16.943617914091707
-19.87335011825742
-22.119478141451133
-21.63118944075685
-24.560921644922562
-26.807049668116274
-28.174258030060273
-29.736781872281988
-29.346150911726557
-32.37354085603113
-34.52201113908598
-34.0337224383917
-35.10795757991913
-35.79156176089113
-37.549401083390556
-39.014267185473415
-38.72129396505684
-39.69787136644541
-40.38147554741741
-40.28381780727855
-40.28381780727855
-40.28381780727855
-38.33066300450141
-36.86579690241855
-37.15877012283513
-33.252460517280845
-30.22507057297627
-30.908674753948272
-24.072632944228275
-18.89677271686885
-11.47478446631571
-4.541084916456855
-6.103608758678568
5.615320057984283
14.50217441062028
12.549019607843137
24.365606164644845
33.252460517280845
41.74868390936141
50.34256504158083
48.38941023880369
57.37392233157855
64.01464866102083
62.45212481879911
69.48348210879682
74.5616845960174
78.17502098115511
82.17898832684826
81.20241092545967
84.22980086976425
86.37827115281911
85.88998245212481
86.96421759365225
87.64782177462425
86.47592889295797
85.79232471198596
85.88998245212481
82.96025024795911
80.71412222476539
81.20241092545967
76.31952391851682
72.60852979324025
67.62798504615854
62.9404135194934
64.01464866102083
56.1043717097734
50.14724956130312
51.51445792324712
44.48310063324941
39.307240405889985
34.717326619363696
30.029755092698558
31.103990234225986
25.049210345616846
20.654612039368278
21.63118944075685
17.627222095063708
14.697489890897993
12.45136186770428
10.10757610437171
10.595864805065995
6.6895551995117115
3.7598229953459983
4.345769436179141
1.416037232013428
-0.7324330510414282
-3.076218814373999
-5.420004577706569
-4.931715877012284
-8.838025482566568
-11.767757686732281
-11.181811245899137
-15.088120851453422
-18.017853055619135
-20.263981078812847
-22.60776684214542
-22.021820401312276
-26.025787747005417
-28.95551995117113
-28.27191577019913
-31.2993057145037
-33.44777599755856
-35.79156176089113
-38.1353475242237
-37.64705882352941
-40.57679102769512
-42.72526131074998
-42.236972610055695
-44.28778515297169
-45.75265125505455
-47.31517509727627
-48.877698939497975
-48.48706797894255
-50.44022278171969
-51.90508888380255
-51.51445792324712
-53.56527046616312
-54.932478828107115
-56.49500267032883
-58.057526512550545
-57.66689555199512
-58.74113069352254
-59.42473487449455
-59.22941939421683
-60.2059967956054
-60.987258716716255
-60.79194323643854
-60.79194323643854
-60.79194323643854
-58.8387884336614
-57.27626459143969
-57.66689555199512
-53.760585946440834
-50.73319600213626
-43.79949645227741
-37.64705882352941
-39.014267185473415
-28.174258030060273
-20.068665598535134
-21.826504921034562
-7.177843900205997
3.8574807354848555
16.650644693675137
29.053177691309987
26.318760967421987
43.11589227130541
55.61608300907912
52.78400854505226
66.74906538490883
77.00312809948882
85.20637827115281
93.8979171435111
91.94476234073396
100.92927443350881
107.47234302281224
105.90981918059052
110.9880216678111
114.60135805294881
114.69901579308767
115.57793545433738
115.38261997405966
110.59739070725567
106.8863965819791
107.66765850308995
101.71053635461966
97.21828030823224
94.38620584420539
91.1635004196231
91.8471046005951
89.7962920576791
88.23376821545739
88.52674143587396
88.4290836957351
88.4290836957351
89.40566109712367
90.08926527809568
89.89394979781795
89.89394979781795
89.89394979781795
89.89394979781795
85.0110627908751
81.30006866559853
73.48744945448996
66.65140764476998
68.11627374685283
60.108339055466544
54.24887464713512
55.51842526894026
48.584725719081405
43.40886549172198
38.818951705195694
34.0337224383917
35.10795757991913
29.150835431448844
24.756237125200276
25.732814526588847
19.775692378118563
15.283436331731137
11.572442206454566
7.568474860761425
8.44739452201114
2.5879301136797133
-1.8066681925688564
-0.8300907911802854
-5.810635538261997
-9.42397192339971
-14.404516670481422
-18.994430457007706
-17.920195315480278
-22.90074006256199
-26.61173418783856
-25.830472266727703
-29.736781872281988
-32.6665140764477
-36.768139162279695
-40.67444876783398
-39.79552910658427
-43.79949645227741
-46.72922865644312
-46.04562447547112
-48.97535667963683
-51.22148470283055
-54.54184786755169
-57.56923781185626
-56.88563363088426
-59.91302357518883
-62.061493858243686
-61.5732051575494
-63.526359960326545
-64.9912260624094
-67.53032730601969
-69.77645532921339
-69.28816662851911
-71.24132143129626
-72.70618753337911
-72.31555657282368
-74.26871137560083
-75.73357747768368
-76.31952391851682
-77.10078583962768
-76.90547035934996
-76.90547035934996
-76.90547035934996
-76.90547035934996
-75.9288929579614
-75.14763103685054
-72.41321431296254
-70.16708628976883
-70.65537499046312
-63.819333180743115
-58.643472953383686
-59.71770809491112
-49.951934081025406
-42.529945830472265
-32.6665140764477
-23.389028763256274
-25.439841306172273
-11.670099946593423
-1.3183794918745708
-3.662165255207141
9.228656443121995
18.701457236591136
28.076600289921416
37.4517433432517
35.303273060196844
44.38544289311055
50.928511482413974
49.46364538033112
56.49500267032883
61.5732051575494
64.20996414129854
67.43266956588083
66.74906538490883
69.67879758907453
71.8272678721294
71.33897917143511
71.43663691157397
71.43663691157397
69.48348210879682
67.92095826657511
68.31158922713054
64.40527962157626
61.37788967727169
62.061493858243686
57.08094911116198
53.36995498588541
47.51049057755398
42.13931486991684
43.311207751583126
35.4009308003357
29.443808651865414
30.811017013809415
23.779659723811704
18.701457236591136
13.13496604867628
7.666132600900283
8.838025482566568
3.8574807354848555
0.14648661020828566
0.9277485313191425
-2.8809033340962844
-5.810635538261997
-9.033340962844282
-12.158388647287708
-11.47478446631571
-14.404516670481422
-16.650644693675137
-16.16235599298085
-20.068665598535134
-22.998397802700847
-26.123445487144274
-29.2484931715877
-28.564888990615703
-32.56885633630884
-35.49858854047456
-34.81498435950255
-38.72129396505684
-41.651026169222554
-44.873731593804834
-47.90112153810941
-47.21751735713741
-51.22148470283055
-54.053559166857404
-53.467612726024264
-56.39734493018997
-58.643472953383686
-60.987258716716255
-63.233386739909974
-62.745098039215684
-65.6748302433814
-67.92095826657511
-67.33501182574197
-69.38582436865796
-70.85069047074083
-72.41321431296254
-73.87808041504539
-73.48744945448996
-74.5616845960174
-75.2452887769894
-75.04997329671168
-77.00312809948882
-78.46799420157168
-79.05394064240483
-79.83520256351568
-79.63988708323797
-80.61646448462653
-81.30006866559853
-81.10475318532082
-82.0813305867094
-82.7649347676814
-82.56961928740368
-82.56961928740368
-82.56961928740368
-81.5930418860151
-80.81177996490425
-81.00709544518196
-77.10078583962768
-74.07339589532312
-71.8272678721294
-69.48348210879682
-69.9717708094911
-66.06546120393683
-63.03807125963226
-63.72167544060426
-55.90905622949569
-49.951934081025406
-38.818951705195694
-28.857862211032273
-31.103990234225986
-14.404516670481422
-1.8066681925688564
-4.638742656595713
13.13496604867628
26.318760967421987
41.5533684290837
56.29968719005112
52.97932402532997
68.01861600671397
78.95628290226597
76.51483939879454
84.62043183031967
90.38223849851225
92.92133974212253
96.14404516670481
95.36278324559396
96.53467612726024
97.12062256809338
97.02296482795452
97.02296482795452
96.92530708781567
94.09323262378882
91.74944686045625
92.23773556115053
88.33142595559625
85.30403601129167
85.98764019226367
80.03051804379339
75.63591973754482
68.89753566796368
62.745098039215684
64.11230640115969
56.1043717097734
50.24490730144198
51.51445792324712
43.604180971999696
37.74471656366827
31.396963454642556
25.146868085755703
26.514076447699704
20.45929655909056
16.064698252841993
17.041275654230564
12.060730907148852
8.349736781872283
4.443427176317998
0.537117570763714
1.416037232013428
-3.466849774929427
-7.177843900205997
-6.39658197909514
-10.302891584649425
-13.232623788815136
-17.43190661478599
-21.24055848020142
-20.361638818951704
-24.365606164644845
-27.295338368810558
-26.61173418783856
-31.592278934920273
-35.20561532005799
-38.23300526436255
-41.358052948805984
-40.67444876783398
-44.580758373388264
-47.51049057755398
-46.826886396581976
-50.83085374227512
-53.760585946440834
-55.90905622949569
-58.25284199282826
-57.764553292133975
-60.694285496299685
-62.84275577935454
-62.35446707866026
-64.40527962157626
-65.77248798352025
-67.33501182574197
-68.89753566796368
-68.50690470740825
-70.4600595101854
-71.92492561226825
-71.63195239185168
-72.60852979324025
-73.29213397421225
-74.07339589532312
-74.85465781643397
-74.65934233615626
-75.63591973754482
-76.31952391851682
-76.12420843823911
-76.12420843823911
-76.12420843823911
-76.12420843823911
-76.02655069810025
-76.02655069810025
-75.04997329671168
-74.26871137560083
-74.46402685587854
-71.53429465171283
-69.28816662851911
-65.96780346379796
-62.84275577935454
-63.526359960326545
-56.59266041046769
-51.416800183108265
-52.588693064774546
-42.72526131074998
-35.4009308003357
-25.537499046311133
-16.260013733119706
-18.310826276035705
-4.541084916456855
5.71297779812314
3.36919203479057
16.357671473258563
25.830472266727703
34.22903791866941
42.822919050888835
40.96742198825055
49.951934081025406
56.49500267032883
55.03013656824598
61.08491645685512
65.38185702296482
68.21393148699168
71.43663691157397
70.65537499046312
71.8272678721294
72.5108720531014
72.31555657282368
72.31555657282368
72.21789883268482
68.4092469672694
65.47951476310368
66.06546120393683
61.08491645685512
57.471580071717405
58.25284199282826
51.31914244296941
46.14328221560998
40.57679102769512
35.20561532005799
36.37750820172427
29.443808651865414
24.267948424505988
25.342183566033416
18.40848401617456
13.330281528953995
9.619287403677424
5.71297779812314
6.591897459372854
2.5879301136797133
-0.24414435034714274
0.24414435034714274
-2.68558785381857
-4.834058136873426
-7.177843900205997
-9.521629663538567
-9.033340962844282
-11.963073167009995
-14.209201190203707
-13.720912489509422
-16.650644693675137
-18.89677271686885
-21.24055848020142
-23.58434424353399
-22.998397802700847
-27.002365148393988
-29.9320973525597
-29.2484931715877
-32.27588311589227
-34.424353398947126
-37.74471656366827
-40.772106507972836
-40.08850232700084
-43.11589227130541
-45.26436255436027
-44.77607385366598
-47.80346379797055
-49.951934081025406
-52.295719844357976
-54.639505607690545
-54.053559166857404
-56.1043717097734
-57.56923781185626
-57.178606851300835
-59.13176165407798
-60.59662775616083
-64.9912260624094
-68.79987792782482
-67.92095826657511
-75.73357747768368
-81.5930418860151
-80.32349126420996
-88.13611047531853
-93.99557488364995
-95.55809872587167
-97.99954222934309
-97.41359578850995
-96.6323338673991
-95.75341420614939
-95.9487296864271
-92.04242008087282
-89.01503013656824
-81.10475318532082
-74.26871137560083
-75.73357747768368
-67.7256427862974
-61.86617837796597
-63.13572899977112
-57.08094911116198
-52.6863508049134
-48.877698939497975
-44.97138933394369
-45.75265125505455
-38.91660944533455
-33.74074921797513
-34.81498435950255
-24.072632944228275
-15.967040512703136
-5.322346837567712
4.638742656595713
2.392614633401999
17.13893339436942
28.174258030060273
25.732814526588847
38.72129396505684
48.19409475852598
57.56923781185626
66.84672312504769
64.79591058213168
72.90150301365682
78.6633096818494
77.39375906004425
83.35088120851454
87.7454795147631
88.62439917601282
90.2845807583734
89.89394979781795
90.87052719920653
91.55413138017853
91.45647364003968
90.47989623865111
89.69863431754024
86.96421759365225
84.62043183031967
85.10872053101396
81.20241092545967
78.17502098115511
78.85862516212711
72.02258335240711
66.84672312504769
61.28023193713283
55.81139848935683
56.983291371023114
49.073014419775696
43.11589227130541
44.48310063324941
37.4517433432517
32.27588311589227
26.709391927977418
21.338216220340275
22.510109102006563
17.43190661478599
13.81857022964828
14.599832150759136
10.595864805065995
7.666132600900283
4.443427176317998
1.416037232013428
2.0996414129854277
-1.8066681925688564
-4.736400396734569
-4.052796215762569
-8.05676356145571
-10.986495765621424
-14.11154345006485
-17.236591134508277
-16.55298695353628
-20.55695429922942
-23.48668650339513
-22.803082322423133
-26.807049668116274
-29.736781872281988
-32.86182955672541
-35.98687724116884
-35.20561532005799
-39.20958266575113
-42.13931486991684
-41.45571068894484
-45.45967803463798
-48.38941023880369
-50.53788052185855
-52.881666285191116
-52.39337758449683
-54.346532387273975
-55.81139848935683
-55.420767528801406
-57.471580071717405
-58.8387884336614
-60.401312275883114
-61.96383611810483
-61.5732051575494
-63.6240177004654
-64.9912260624094
-64.69825284199283
-65.6748302433814
-66.3584344243534
-67.13969634546426
-67.92095826657511
-67.7256427862974
-68.70222018768597
-69.38582436865796
-69.19050888838025
-70.16708628976883
-70.94834821087969
-70.75303273060197
-70.75303273060197
-70.75303273060197
-69.77645532921339
-68.99519340810254
-69.0928511482414
-68.11627374685283
-67.33501182574197
-65.57717250324254
-64.01464866102083
-64.3076218814374
-59.522392614633404
-55.81139848935683
-56.59266041046769
-49.658960860608836
-44.48310063324941
-36.0845349813077
-28.369573510337986
-30.127412832837415
-18.310826276035705
-9.42397192339971
-11.377126726176853
1.3183794918745708
10.888838025482567
20.263981078812847
29.63912413214313
27.49065384908827
37.549401083390556
44.873731593804834
43.21355001144427
50.24490730144198
55.32310978866255
57.95986877241169
61.182574196993976
60.49897001602197
61.5732051575494
62.2568093385214
62.061493858243686
61.182574196993976
60.401312275883114
57.66689555199512
55.32310978866255
55.81139848935683
50.928511482413974
47.21751735713741
48.09643701838712
41.16273746852827
35.98687724116884
30.420386053253985
24.95155260547799
26.22110322728313
18.310826276035705
12.353704127565424
13.720912489509422
6.6895551995117115
1.6113527122911422
-2.8809033340962844
-7.568474860761425
-6.591897459372854
-11.572442206454566
-15.185778591592278
-14.404516670481422
-17.43190661478599
-19.678034637979707
-21.045242999923705
-22.60776684214542
-22.314793621728846
-25.24452582589456
-27.392996108949415
-26.90470740825513
-28.95551995117113
-30.420386053253985
-35.79156176089113
-40.28381780727855
-39.307240405889985
-47.11985961699855
-52.97932402532997
-51.709773403524835
-59.62005035477226
-65.47951476310368
-67.92095826657511
-71.1436636911574
-70.4600595101854
-72.5108720531014
-73.87808041504539
-73.58510719462882
-71.72961013199054
-70.16708628976883
-65.6748302433814
-61.86617837796597
-62.745098039215684
-57.764553292133975
-54.053559166857404
-54.83482108796826
-53.66292820630198
-52.97932402532997
-53.07698176546884
-53.07698176546884
-53.07698176546884
-53.95590142671855
-54.7371633478294
-54.54184786755169
-54.54184786755169
-54.54184786755169
-54.54184786755169
-54.44419012741283
-54.44419012741283
-54.44419012741283
-54.44419012741283
-54.44419012741283
-55.32310978866255
-56.1043717097734
-55.90905622949569
-55.90905622949569
-55.90905622949569
-55.90905622949569
-55.90905622949569
-55.81139848935683
-54.83482108796826
-54.15121690699626
-52.39337758449683
-50.83085374227512
-51.123826962691695
-48.19409475852598
-45.947966735332265
-46.43625543602655
-39.600213626306555
-34.424353398947126
-26.025787747005417
-18.310826276035705
-20.068665598535134
-7.275501640344854
2.197299153124285
0.14648661020828566
14.892805371175708
25.92813000686656
37.74471656366827
49.46364538033112
46.826886396581976
59.815365835049974
69.28816662851911
67.13969634546426
77.19844357976653
84.52277409018082
89.50331883726253
95.06981002517739
93.80025940337224
97.80422674906538
100.7339589532311
100.0503547722591
102.1011673151751
103.4683756771191
102.19882505531396
101.51522087434195
101.6128786144808
99.65972381170367
98.09719996948196
98.39017318989853
93.50728618295567
89.7962920576791
84.81574731059739
80.2258335240711
81.20241092545967
75.2452887769894
70.75303273060197
71.72961013199054
64.79591058213168
59.62005035477226
55.03013656824598
50.34256504158083
51.31914244296941
45.362020294499125
40.96742198825055
41.943999389639124
37.84237430380713
34.91264209964141
31.787594415197987
28.66254673075456
29.346150911726557
26.318760967421987
24.072632944228275
24.560921644922562
20.654612039368278
17.724879835202564
15.47875181200885
13.13496604867628
13.623254749370565
9.71694514381628
6.6895551995117115
7.373159380483711
3.36919203479057
0.43945983062485694
-2.5879301136797133
-5.71297779812314
-5.0293736171511405
-9.033340962844282
-11.963073167009995
-11.279468986037996
-14.306858930342566
-16.45532921339742
-18.799114976729992
-21.14290074006256
-20.654612039368278
-23.58434424353399
-25.830472266727703
-25.342183566033416
-27.295338368810558
-28.760204470893417
-31.2993057145037
-33.545433737697415
-33.05714503700313
-35.10795757991913
-36.57282368200198
-36.182192721446555
-37.15877012283513
-37.94003204394598
-39.69787136644541
-41.16273746852827
-40.772106507972836
-42.822919050888835
-44.28778515297169
-43.89715419241627
-44.873731593804834
-45.654993514915695
-46.43625543602655
-47.21751735713741
-47.0222018768597
-47.0222018768597
-47.0222018768597
-46.92454413672083
-46.92454413672083
-46.92454413672083
-45.947966735332265
-45.16670481422141
-45.362020294499125
-42.43228809033341
-40.186160067139696
-40.67444876783398
-35.79156176089113
-32.08056763561456
-24.365606164644845
-17.43190661478599
-18.994430457007706
-7.177843900205997
1.6113527122911422
-0.24414435034714274
13.427939269092851
23.682001983672848
35.69390402075227
47.412832837415124
44.77607385366598
58.643472953383686
68.89753566796368
66.65140764476998
77.58907454032196
85.6946669718471
91.45647364003968
97.80422674906538
96.33936064698253
101.41756313420309
105.0308995193408
104.1519798580911
107.17936980239567
109.32784008545052
108.83955138475623
108.93720912489509
108.83955138475623
106.8863965819791
105.42153047989623
105.7145037003128
102.68711375600824
100.44098573281453
92.33539330128939
85.49935149156939
86.96421759365225
73.29213397421225
62.9404135194934
65.18654154268711
51.31914244296941
40.96742198825055
33.74074921797513
25.732814526588847
27.49065384908827
21.43587396047913
17.041275654230564
18.017853055619135
15.869382772564279
14.404516670481422
17.627222095063708
19.775692378118563
19.287403677424276
22.21713588158999
24.4632639047837
23.974975204089418
24.072632944228275
23.974975204089418
20.16632333867399
17.236591134508277
17.82253757534142
12.939650568398566
9.228656443121995
10.009918364232853
6.103608758678568
3.076218814373999
0.04882887006942855
-3.076218814373999
-2.392614633401999
-7.275501640344854
-10.986495765621424
-10.10757610437171
-14.11154345006485
-17.041275654230564
-20.263981078812847
-23.389028763256274
-22.60776684214542
-25.63515678644999
-27.881284809643702
-27.392996108949415
-31.2993057145037
-34.22903791866941
-36.37750820172427
-38.72129396505684
-38.23300526436255
-40.28381780727855
-41.651026169222554
-41.358052948805984
-43.311207751583126
-44.77607385366598
-46.33859769588769
-47.90112153810941
-47.51049057755398
-48.584725719081405
-49.26832990005341
-49.073014419775696
-51.02616922255284
-52.49103532463569
-53.07698176546884
-53.85824368657969
-53.66292820630198
-54.639505607690545
-55.32310978866255
-55.22545204852369
-55.22545204852369
-55.22545204852369
-55.127794308384836
-55.127794308384836
-55.127794308384836
-54.15121690699626
-53.36995498588541
-53.56527046616312
-49.658960860608836
-46.72922865644312
-40.67444876783398
-35.303273060196844
-36.475165941863125
-25.732814526588847
-17.627222095063708
-19.385061417563133
-5.615320057984283
4.638742656595713
17.627222095063708
29.9320973525597
27.1976806286717
42.13931486991684
53.07698176546884
50.635538261997404
64.60059510185397
74.85465781643397
82.96025024795911
91.65178912031739
89.69863431754024
96.82764934767681
101.80819409475852
100.7339589532311
104.73792629892424
107.5700007629511
109.8161287861448
112.15991454947738
111.57396810864424
111.6716258487831
111.57396810864424
111.57396810864424
110.59739070725567
109.8161287861448
106.10513466086825
103.07774471656367
103.66369115739681
98.78080415045396
95.06981002517739
95.85107194628824
88.91737239642939
83.74151216906996
77.19844357976653
71.04600595101854
72.31555657282368
63.42870222018769
56.7879758907454
58.25284199282826
50.24490730144198
44.38544289311055
38.03768978408484
31.787594415197987
33.15480277714199
27.100022888532845
22.705424582284277
23.682001983672848
18.701457236591136
14.990463111314565
11.08415350576028
7.177843900205997
8.05676356145571
4.052796215762569
1.1230640115968566
1.7090104524299992
-2.0996414129854277
-5.0293736171511405
-8.252079041733426
-11.377126726176853
-10.693522545204852
-15.576409552147707
-19.287403677424276
-18.40848401617456
-22.412451361867703
-25.342183566033416
-29.443808651865414
-33.252460517280845
-32.471198596169984
-36.475165941863125
-39.307240405889985
-38.72129396505684
-41.651026169222554
-43.89715419241627
-47.21751735713741
-50.24490730144198
-49.56130312046998
-52.588693064774546
-54.7371633478294
-54.24887464713512
-56.20202944991226
-57.66689555199512
-59.22941939421683
-60.79194323643854
-60.401312275883114
-62.35446707866026
-63.819333180743115
-63.42870222018769
-65.47951476310368
-66.84672312504769
-67.53032730601969
-68.31158922713054
-68.11627374685283
-69.0928511482414
-69.77645532921339
-69.58113984893568
-70.55771725032426
-71.24132143129626
-72.02258335240711
-72.80384527351796
-72.60852979324025
-72.60852979324025
-72.60852979324025
-72.5108720531014
-70.65537499046312
-69.0928511482414
-66.55374990463112
-64.20996414129854
-64.69825284199283
-56.983291371023114
-51.02616922255284
-52.295719844357976
-42.43228809033341
-35.10795757991913
-26.22110322728313
-17.627222095063708
-19.58037689784085
-9.619287403677424
-2.2949568932631417
-3.8574807354848555
4.931715877012284
11.572442206454566
20.55695429922942
29.053177691309987
27.1976806286717
38.1353475242237
46.14328221560998
44.38544289311055
55.22545204852369
63.33104448004883
72.02258335240711
80.51880674448768
78.6633096818494
85.6946669718471
90.77286945906768
89.60097657740138
92.72602426184481
94.87449454489968
91.45647364003968
89.30800335698481
89.7962920576791
84.81574731059739
81.10475318532082
81.88601510643167
75.04997329671168
69.87411306935225
63.33104448004883
57.178606851300835
58.44815747310597
50.53788052185855
44.67841611352712
45.947966735332265
37.94003204394598
32.08056763561456
26.709391927977418
21.24055848020142
22.412451361867703
17.334248874647134
13.720912489509422
14.50217441062028
9.521629663538567
5.908293278400855
2.8809033340962844
-0.14648661020828566
0.43945983062485694
-2.490272373540856
-4.638742656595713
-4.150453955901427
-8.154421301594567
-11.08415350576028
-13.232623788815136
-15.674067292286564
-15.088120851453422
-18.994430457007706
-21.92416266117342
-21.338216220340275
-24.267948424505988
-26.514076447699704
-29.834439612420844
-32.86182955672541
-32.178225375753414
-35.20561532005799
-37.35408560311284
-36.86579690241855
-40.772106507972836
-43.70183871213855
-45.947966735332265
-48.291752498664835
-47.705806057831694
-50.73319600213626
-52.881666285191116
-52.39337758449683
-55.32310978866255
-57.56923781185626
-58.936446173800256
-60.49897001602197
-60.108339055466544
-62.15915159838254
-63.526359960326545
-63.233386739909974
-64.20996414129854
-64.89356832227054
-66.65140764476998
-68.11627374685283
-67.82330052643626
-68.79987792782482
-69.48348210879682
-69.28816662851911
-70.26474402990769
-71.04600595101854
-70.85069047074083
-70.85069047074083
-70.85069047074083
-71.72961013199054
-72.41321431296254
-72.31555657282368
-71.33897917143511
-70.55771725032426
-67.82330052643626
-65.57717250324254
-66.06546120393683
-61.08491645685512
-57.37392233157855
-58.25284199282826
-50.34256504158083
-44.48310063324941
-34.32669565880827
-25.049210345616846
-27.100022888532845
-13.330281528953995
-2.9785610742351416
-5.322346837567712
10.400549324788281
22.119478141451133
32.86182955672541
43.89715419241627
41.45571068894484
53.36995498588541
62.15915159838254
60.2059967956054
69.19050888838025
75.73357747768368
80.03051804379339
84.81574731059739
83.6438544289311
85.79232471198596
87.25719081406882
86.8665598535134
86.8665598535134
86.8665598535134
85.88998245212481
85.10872053101396
85.30403601129167
81.39772640573739
78.37033646143283
79.05394064240483
73.09681849393453
68.70222018768597
62.9404135194934
57.471580071717405
58.74113069352254
50.73319600213626
44.873731593804834
46.14328221560998
38.23300526436255
32.37354085603113
27.881284809643702
23.19371328297856
24.17029068436713
18.21316853589685
13.81857022964828
14.795147631036851
10.79118028534371
7.861448081177996
4.638742656595713
1.513694972152285
2.197299153124285
-0.7324330510414282
-2.8809033340962844
-2.392614633401999
-5.322346837567712
-7.568474860761425
-10.888838025482567
-14.013885709925994
-13.232623788815136
-16.260013733119706
-18.506141756313422
-18.017853055619135
-20.947585259784848
-23.19371328297856
-26.514076447699704
-29.541466392004274
-28.857862211032273
-32.764171816586554
-35.69390402075227
-35.10795757991913
-38.03768978408484
-40.28381780727855
-43.604180971999696
-46.63157091630426
-45.947966735332265
-48.97535667963683
-51.123826962691695
-50.635538261997404
-52.588693064774546
-54.053559166857404
-55.61608300907912
-57.178606851300835
-56.7879758907454
-58.74113069352254
-60.2059967956054
-59.91302357518883
-60.8896009765774
-61.5732051575494
-66.16311894407569
-69.87411306935225
-69.0928511482414
-77.78439002059967
-84.42511635004196
-82.96025024795911
-89.89394979781795
-94.97215228503853
-96.72999160753795
-99.17143511100939
-98.58548867017625
-97.70656900892652
-96.92530708781567
-97.02296482795452
-91.26115815976196
-86.76890211337454
-78.17502098115511
-70.55771725032426
-72.21789883268482
-60.30365453574426
-51.51445792324712
-53.467612726024264
-43.40886549172198
-36.0845349813077
-29.150835431448844
-22.119478141451133
-23.58434424353399
-10.888838025482567
-1.3183794918745708
-3.36919203479057
10.302891584649425
20.654612039368278
31.68993667505913
42.62760357061112
40.186160067139696
53.07698176546884
62.64744029907683
60.49897001602197
70.4600595101854
77.78439002059967
82.7649347676814
88.33142595559625
87.06187533379111
92.04242008087282
95.75341420614939
94.87449454489968
95.9487296864271
96.6323338673991
96.43701838712138
96.43701838712138
96.43701838712138
93.50728618295567
91.26115815976196
91.74944686045625
86.8665598535134
83.15556572823682
78.17502098115511
73.48744945448996
74.5616845960174
67.62798504615854
62.45212481879911
63.526359960326545
55.61608300907912
49.75661860074769
44.38544289311055
38.818951705195694
40.08850232700084
34.0337224383917
29.63912413214313
30.615701533531702
26.514076447699704
23.58434424353399
20.45929655909056
17.334248874647134
18.017853055619135
14.990463111314565
12.74433508812085
13.232623788815136
10.302891584649425
8.05676356145571
5.71297779812314
3.36919203479057
3.8574807354848555
0.9277485313191425
-1.2207217517357138
-0.7324330510414282
-3.662165255207141
-5.908293278400855
-9.228656443121995
-12.256046387426567
-11.572442206454566
-14.599832150759136
-16.84596017395285
-16.260013733119706
-20.263981078812847
-23.19371328297856
-25.342183566033416
-27.783627069504846
-27.1976806286717
-30.127412832837415
-32.37354085603113
-31.885252155336843
-33.838406958113985
-35.303273060196844
-36.86579690241855
-38.42832074464027
-38.03768978408484
-40.08850232700084
-41.5533684290837
-41.16273746852827
-42.236972610055695
-42.92057679102769
-44.67841611352712
-46.14328221560998
-45.75265125505455
-46.826886396581976
-47.51049057755398
-47.31517509727627
-48.291752498664835
-49.073014419775696
-49.85427634088655
-50.53788052185855
-50.34256504158083
-50.44022278171969
-50.34256504158083
-50.34256504158083
-51.31914244296941
-52.002746623941405
-50.928511482413974
-50.14724956130312
-50.34256504158083
-48.38941023880369
-46.826886396581976
-47.21751735713741
-43.311207751583126
-40.28381780727855
-34.22903791866941
-28.95551995117113
-30.127412832837415
-19.287403677424276
-11.181811245899137
-13.037308308537423
0.6347753109025711
10.986495765621424
22.021820401312276
32.95948729686427
30.518043793392845
45.362020294499125
56.39734493018997
53.95590142671855
65.8701457236591
74.65934233615626
80.32349126420996
86.67124437323568
85.20637827115281
91.26115815976196
95.55809872587167
94.5815213244831
97.60891126878766
99.75738155184253
99.26909285114824
99.3667505912871
99.26909285114824
97.41359578850995
95.85107194628824
96.14404516670481
93.2143129625391
90.96818493934539
85.6946669718471
81.10475318532082
82.0813305867094
75.14763103685054
69.9717708094911
71.04600595101854
63.13572899977112
57.27626459143969
50.928511482413974
44.67841611352712
