ppg
-76.51483939879454
-71.53429465171283
-67.92095826657511
-67.7256427862974
-66.74906538490883
-66.94438086518655
-68.79987792782482
-70.26474402990769
-69.87411306935225
-71.92492561226825
-73.29213397421225
-73.97573815518425
-74.75700007629511
-74.5616845960174
-74.5616845960174
-74.46402685587854
-74.46402685587854
-75.44060425726711
-76.12420843823911
-76.90547035934996
-77.68673228046082
-77.4914168001831
-78.46799420157168
-79.15159838254368
-78.95628290226597
-78.95628290226597
-78.95628290226597
-79.83520256351568
-80.61646448462653
-80.42114900434882
-80.42114900434882
-80.32349126420996
-80.32349126420996
-78.37033646143283
-76.90547035934996
-72.41321431296254
-68.60456244754711
-69.48348210879682
-60.59662775616083
-53.95590142671855
-55.420767528801406
-41.74868390936141
-31.396963454642556
-16.45532921339742
-2.5879301136797133
-5.71297779812314
14.990463111314565
30.420386053253985
26.90470740825513
47.705806057831694
63.13572899977112
77.88204776073853
92.72602426184481
89.40566109712367
105.32387273975738
117.04280155642023
114.4060425726711
126.41794460975052
135.1094834821088
141.7502098115511
148.7815671015488
147.21904325932707
152.29724574654765
155.8129243915465
155.03166247043563
157.96139467460137
160.1098649576562
161.4770733196002
163.03959716182192
162.6489662012665
161.67238879987792
160.89112687876707
160.98878461890592
157.08247501335165
154.05508506904707
148.97688258182652
144.28931105516136
145.26588845654993
137.3556115053025
131.49614709697107
132.76569771877624
120.94911116197451
112.06225680933852
102.49179827573053
93.11665522240024
95.16746776531625
82.27664606698711
72.70618753337911
74.85465781643397
62.84275577935454
54.053559166857404
46.43625543602655
38.525978484779124
40.28381780727855
31.2993057145037
24.65857938506142
26.123445487144274
19.092088197146563
14.013885709925994
8.44739452201114
2.9785610742351416
4.248111696040284
-1.7090104524299992
-6.103608758678568
-5.127031357289998
-11.08415350576028
-15.47875181200885
-19.287403677424276
-23.19371328297856
-22.314793621728846
-28.174258030060273
-32.56885633630884
-31.592278934920273
-36.57282368200198
-40.28381780727855
-44.19012741283284
-48.09643701838712
-47.21751735713741
-52.19806210421912
-55.81139848935683
-54.932478828107115
-59.91302357518883
-63.526359960326545
-66.55374990463112
-69.67879758907453
-68.99519340810254
-71.92492561226825
-74.07339589532312
-73.58510719462882
-76.51483939879454
-78.76096742198825
-80.12817578393225
-81.69069962615396
-81.30006866559853
-83.25322346837568
-84.71808957045853
-84.3274586099031
-86.37827115281911
-87.7454795147631
-89.30800335698481
-90.87052719920653
-90.47989623865111
-92.43305104142824
-93.8979171435111
-93.50728618295567
-94.48386358434425
-95.2651255054551
-95.06981002517739
-95.06981002517739
-94.97215228503853
-94.97215228503853
-94.97215228503853
-94.87449454489968
-93.8979171435111
-93.11665522240024
-89.50331883726253
-86.47592889295797
-87.06187533379111
-81.20241092545967
-76.71015487907225
-77.68673228046082
-67.92095826657511
-60.49897001602197
-47.80346379797055
-36.27985046158541
-38.818951705195694
-20.068665598535134
-6.103608758678568
-9.228656443121995
11.47478446631571
26.90470740825513
43.50652323186084
59.815365835049974
56.20202944991226
74.17105363546197
87.25719081406882
84.3274586099031
98.29251544975968
108.54657816433966
115.77325093461509
123.68352788586252
121.92568856336308
124.1718165865568
125.5390249485008
125.14839398794537
120.46082246128023
116.6521705958648
110.79270618753338
105.32387273975738
106.49576562142367
101.41756313420309
97.70656900892652
98.48783093003739
96.43701838712138
94.97215228503853
94.28854810406654
93.40962844281681
93.60494392309452
93.50728618295567
93.50728618295567
93.40962844281681
90.57755397878996
88.33142595559625
81.10475318532082
75.04997329671168
76.41718165865568
64.60059510185397
55.713740749217976
57.66689555199512
45.75265125505455
36.96345464255741
30.322728313115128
23.19371328297856
24.756237125200276
16.748302433813993
10.888838025482567
12.158388647287708
5.224689097428855
0.04882887006942855
-4.443427176317998
-9.130998702983138
-8.05676356145571
-13.037308308537423
-16.748302433813993
-15.967040512703136
-21.826504921034562
-26.22110322728313
-31.00633249408713
-35.596246280613414
-34.61966887922484
-39.600213626306555
-43.21355001144427
-42.43228809033341
-47.31517509727627
-51.02616922255284
-54.932478828107115
-58.8387884336614
-57.95986877241169
-62.84275577935454
-66.55374990463112
-65.6748302433814
-69.67879758907453
-72.60852979324025
-75.73357747768368
-78.85862516212711
-78.07736324101626
-82.0813305867094
-85.0110627908751
-84.3274586099031
-87.25719081406882
-89.40566109712367
-91.74944686045625
-94.09323262378882
-93.50728618295567
-95.55809872587167
-96.92530708781567
-96.6323338673991
-98.58548867017625
-99.95269703212024
-100.63630121309224
-101.41756313420309
-101.12458991378652
-102.1011673151751
-102.7847714961471
-102.58945601586939
-103.56603341725796
-104.24963759822995
-104.05432211795224
-104.1519798580911
-104.05432211795224
-103.07774471656367
-102.29648279545282
-102.39414053559167
-98.58548867017625
-95.55809872587167
-90.47989623865111
-85.79232471198596
-86.8665598535134
-76.02655069810025
-67.92095826657511
-69.67879758907453
-54.053559166857404
-42.236972610055695
-25.732814526588847
-10.302891584649425
-13.720912489509422
7.959105821316854
24.17029068436713
20.55695429922942
42.33463035019455
58.44815747310597
72.02258335240711
86.1829556725414
83.05790798809797
97.99954222934309
108.93720912489509
106.49576562142367
116.55451285572595
123.78118562600137
128.85938811322194
134.32822156099795
133.0586709391928
136.18371862363622
138.33218890669107
137.74624246585793
137.8439002059968
137.74624246585793
135.7930876630808
134.32822156099795
134.62119478141452
129.73830777447165
125.92965590905622
126.71091783016709
119.87487602044709
114.60135805294881
106.2027924010071
98.48783093003739
100.14801251239795
88.33142595559625
79.44457160296025
81.39772640573739
68.50690470740825
58.936446173800256
61.08491645685512
49.073014419775696
40.28381780727855
31.68993667505913
23.096055542839704
25.049210345616846
14.990463111314565
7.666132600900283
1.7090104524299992
-4.541084916456855
-3.1738765545128556
-9.130998702983138
-13.525597009231708
-12.549019607843137
-18.506141756313422
-22.90074006256199
-26.709391927977418
-30.615701533531702
-29.736781872281988
-35.69390402075227
-40.08850232700084
-39.014267185473415
-44.97138933394369
-49.365987640192266
-54.15121690699626
-58.74113069352254
-57.764553292133975
-63.6240177004654
-68.01861600671397
-67.0420386053254
-72.99916075379568
-77.39375906004425
-81.10475318532082
-85.0110627908751
-84.13214312962539
-89.1126878767071
-92.72602426184481
-91.8471046005951
-94.87449454489968
-97.02296482795452
-99.3667505912871
-101.71053635461966
-101.12458991378652
-103.17540245670253
-104.54261081864652
-104.24963759822995
-105.22621499961852
-105.90981918059052
-106.69108110170139
-107.37468528267338
-107.17936980239567
-108.15594720378424
-108.83955138475623
-108.64423590447852
-108.64423590447852
-108.64423590447852
-108.54657816433966
-108.54657816433966
-108.54657816433966
-107.5700007629511
-106.78873884184024
-106.8863965819791
-105.81216144045166
-105.12855725947966
-103.27306019684139
-101.71053635461966
-102.1011673151751
-100.0503547722591
-98.58548867017625
-98.87846189059282
-93.99557488364995
-90.18692301823454
-83.35088120851454
-77.19844357976653
-78.56565194171054
-65.8701457236591
-56.20202944991226
-58.350499732967116
-42.529945830472265
-30.811017013809415
-15.283436331731137
-0.537117570763714
-3.8574807354848555
15.869382772564279
30.615701533531702
27.295338368810558
46.14328221560998
60.108339055466544
72.21789883268482
84.81574731059739
81.98367284657053
93.11665522240024
101.12458991378652
99.26909285114824
106.30045014114596
111.37865262836652
114.01541161211567
117.23811703669794
116.45685511558709
116.55451285572595
116.55451285572595
116.45685511558709
113.62478065156023
111.37865262836652
106.98405432211796
103.17540245670253
103.95666437781338
96.14404516670481
90.18692301823454
91.45647364003968
81.5930418860151
74.17105363546197
64.40527962157626
55.127794308384836
57.08094911116198
46.14328221560998
38.03768978408484
39.893186846723125
29.9320973525597
22.510109102006563
16.55298695353628
10.205233844510566
11.572442206454566
5.615320057984283
1.2207217517357138
2.197299153124285
-3.662165255207141
-8.05676356145571
-10.888838025482567
-14.11154345006485
-13.427939269092851
-17.334248874647134
-20.263981078812847
-19.678034637979707
-23.58434424353399
-26.514076447699704
-29.736781872281988
-32.764171816586554
-32.08056763561456
-37.06111238269627
-40.67444876783398
-39.893186846723125
-43.79949645227741
-46.72922865644312
-49.951934081025406
-52.97932402532997
-52.295719844357976
-57.178606851300835
-60.8896009765774
-60.01068131532769
-64.01464866102083
-66.94438086518655
-69.0928511482414
-71.43663691157397
-70.94834821087969
-73.87808041504539
-76.02655069810025
-75.53826199740597
-77.4914168001831
-78.95628290226597
-79.54222934309911
-80.32349126420996
-80.12817578393225
-81.10475318532082
-81.88601510643167
-81.69069962615396
-82.56961928740368
-83.35088120851454
-84.13214312962539
-84.81574731059739
-84.62043183031967
-84.62043183031967
-84.62043183031967
-84.62043183031967
-85.49935149156939
-86.28061341268025
-86.96421759365225
-87.7454795147631
-87.55016403448539
-87.55016403448539
-87.55016403448539
-87.45250629434653
-86.47592889295797
-85.79232471198596
-83.05790798809797
-80.71412222476539
-81.20241092545967
-74.36636911573969
-69.19050888838025
-70.36240177004655
-57.66689555199512
-47.998779278248264
-33.93606469825284
-20.752269779507134
-23.682001983672848
-2.0019836728465705
14.013885709925994
10.498207064927138
33.15480277714199
50.04959182116426
68.31158922713054
86.1829556725414
82.17898832684826
100.24567025253681
113.33180743114366
110.40207522697796
125.34370946822308
136.28137636377508
143.3127336537728
151.22301060502022
149.4651712825208
155.51995117112992
159.81689173723964
158.84031433585108
161.86770428015564
164.0161745632105
164.40680552376594
165.1880674448768
164.99275196459908
163.03959716182192
161.4770733196002
161.77004654001678
157.8637369344625
154.83634699015792
148.7815671015488
143.3127336537728
144.48462653543908
134.62119478141452
127.19920653086137
128.85938811322194
116.94514381628137
108.05828946364538
97.60891126878766
87.55016403448539
89.69863431754024
76.8078126192111
67.23735408560312
69.28816662851911
57.37392233157855
48.584725719081405
39.99084458686198
31.396963454642556
33.252460517280845
24.267948424505988
17.627222095063708
19.092088197146563
12.060730907148852
6.982528419928283
1.416037232013428
-3.9551384756237127
-2.68558785381857
-9.71694514381628
-14.795147631036851
-13.720912489509422
-19.678034637979707
-24.072632944228275
-28.760204470893417
-33.44777599755856
-32.37354085603113
-38.33066300450141
-42.72526131074998
-41.74868390936141
-47.705806057831694
-52.10040436408026
-56.7879758907454
-61.475547417410546
-60.401312275883114
-65.38185702296482
-68.99519340810254
-68.21393148699168
-72.21789883268482
-75.04997329671168
-77.29610131990539
-79.63988708323797
-79.05394064240483
-81.98367284657053
-84.22980086976425
-83.6438544289311
-86.67124437323568
-88.81971465629053
-90.18692301823454
-91.74944686045625
-91.35881589990082
-92.43305104142824
-93.11665522240024
-92.92133974212253
-94.77683680476082
-96.24170290684367
-96.82764934767681
-97.60891126878766
-97.41359578850995
-98.39017318989853
-99.07377737087053
-98.87846189059282
-98.87846189059282
-98.87846189059282
-98.87846189059282
-98.78080415045396
-98.78080415045396
-96.82764934767681
-95.36278324559396
-95.65575646601053
-92.62836652170596
-90.38223849851225
-84.22980086976425
-78.85862516212711
-80.03051804379339
-69.19050888838025
-61.08491645685512
-62.84275577935454
-48.09643701838712
-37.06111238269627
-21.338216220340275
-6.6895551995117115
-9.912260624093996
10.693522545204852
26.123445487144274
22.705424582284277
43.50652323186084
58.936446173800256
72.70618753337911
86.76890211337454
83.6438544289311
97.60891126878766
107.86297398336767
105.51918822003509
115.57793545433738
122.8046082246128
127.88281071183337
133.35164415960938
132.08209353780424
135.20714122224766
137.3556115053025
136.76966506446936
136.86732280460822
136.76966506446936
134.81651026169223
133.35164415960938
133.64461738002595
128.76173037308308
124.95307850766766
125.73434042877851
117.92172121766994
111.96459906919966
104.64026855878538
97.60891126878766
99.17143511100939
87.35484855420768
78.46799420157168
80.42114900434882
68.50690470740825
59.62005035477226
50.14724956130312
40.772106507972836
42.822919050888835
31.885252155336843
23.779659723811704
25.537499046311133
15.576409552147707
8.252079041733426
3.1738765545128556
-2.2949568932631417
-1.0254062714579995
-7.959105821316854
-13.13496604867628
-11.963073167009995
-16.943617914091707
-20.654612039368278
-25.537499046311133
-30.127412832837415
-29.150835431448844
-34.131380178530556
-37.74471656366827
-36.96345464255741
-41.84634164950027
-45.55733577477684
-48.584725719081405
-51.709773403524835
-50.928511482413974
-55.90905622949569
-59.522392614633404
-58.74113069352254
-62.64744029907683
-65.57717250324254
-68.70222018768597
-71.8272678721294
-71.1436636911574
-75.04997329671168
-77.97970550087739
-77.29610131990539
-79.3469138628214
-80.71412222476539
-83.25322346837568
-85.49935149156939
-85.0110627908751
-86.96421759365225
-88.4290836957351
-88.03845273517967
-89.99160753795681
-91.45647364003968
-93.01899748226138
-94.5815213244831
-94.19089036392768
-96.14404516670481
-97.60891126878766
-97.21828030823224
-98.19485770962082
-98.87846189059282
-99.65972381170367
-100.44098573281453
-100.24567025253681
-101.22224765392538
-101.90585183489738
-101.71053635461966
-101.71053635461966
-101.6128786144808
-100.63630121309224
-99.85503929198138
-100.0503547722591
-96.14404516670481
-93.11665522240024
-93.80025940337224
-85.98764019226367
-80.03051804379339
-69.87411306935225
-60.59662775616083
-62.64744029907683
-45.947966735332265
-33.44777599755856
-36.182192721446555
-16.45532921339742
-1.7090104524299992
15.869382772564279
32.95948729686427
29.150835431448844
50.04959182116426
65.38185702296482
61.96383611810483
79.93286030365454
93.11665522240024
103.4683756771191
114.50370031280995
111.96459906919966
122.02334630350195
129.34767681391622
127.68749523155566
132.76569771877624
136.37903410391394
138.33218890669107
140.67597467002366
140.18768596932938
140.18768596932938
140.18768596932938
140.09002822919052
138.13687342641336
136.6720073243305
132.1797512779431
128.2734416723888
129.1523613336385
122.21866178377967
117.04280155642023
118.11703669794767
108.2536049439231
100.83161669336995
91.94476234073396
83.4485389486534
85.30403601129167
72.41321431296254
62.84275577935454
64.9912260624094
52.97932402532997
44.19012741283284
35.596246280613414
27.002365148393988
28.95551995117113
19.87335011825742
13.330281528953995
14.795147631036851
6.787212939650568
0.9277485313191425
-3.36919203479057
-8.154421301594567
-7.080186160067139
-13.037308308537423
-17.43190661478599
-16.45532921339742
-22.412451361867703
-26.807049668116274
-30.615701533531702
-34.52201113908598
-33.64309147783627
-38.62363622491798
-42.236972610055695
-41.45571068894484
-46.33859769588769
-50.04959182116426
-53.95590142671855
-57.86221103227283
-56.983291371023114
-61.86617837796597
-65.57717250324254
-64.69825284199283
-68.70222018768597
-71.63195239185168
-74.75700007629511
-77.88204776073853
-77.10078583962768
-80.12817578393225
-82.27664606698711
-81.78835736629281
-84.71808957045853
-86.8665598535134
-88.33142595559625
-89.89394979781795
-89.50331883726253
-91.45647364003968
-92.92133974212253
-92.5307087815671
-93.50728618295567
-94.19089036392768
-95.9487296864271
-97.41359578850995
-97.02296482795452
-98.09719996948196
-98.78080415045396
-98.58548867017625
-99.56206607156481
-100.24567025253681
-101.02693217364767
-101.71053635461966
-101.51522087434195
-100.53864347295338
-99.75738155184253
-99.95269703212024
-98.87846189059282
-98.09719996948196
-95.46044098573282
-93.11665522240024
-93.60494392309452
-87.7454795147631
-83.25322346837568
-84.22980086976425
-75.34294651712825
-68.70222018768597
-56.7879758907454
-46.04562447547112
-48.48706797894255
-31.68993667505913
-19.18974593728542
-21.92416266117342
-2.197299153124285
12.45136186770428
28.27191577019913
43.79949645227741
40.28381780727855
58.25284199282826
71.43663691157397
68.50690470740825
82.47196154726483
92.72602426184481
99.95269703212024
107.86297398336767
106.00747692072939
112.15991454947738
116.45685511558709
115.48027771419852
118.5076676585031
120.65613794155794
120.16784924086366
120.16784924086366
120.16784924086366
118.21469443808652
116.6521705958648
116.94514381628137
112.06225680933852
108.35126268406195
101.51522087434195
95.36278324559396
96.6323338673991
87.7454795147631
81.10475318532082
82.56961928740368
70.75303273060197
61.86617837796597
53.36995498588541
44.67841611352712
46.63157091630426
35.69390402075227
27.588311589227132
29.346150911726557
19.385061417563133
12.060730907148852
6.982528419928283
1.416037232013428
2.68558785381857
-3.2715342946517127
-7.666132600900283
-6.591897459372854
-11.670099946593423
-15.283436331731137
-14.50217441062028
-19.385061417563133
-23.096055542839704
-27.002365148393988
-30.908674753948272
-30.029755092698558
-34.0337224383917
-36.96345464255741
-41.065079728389414
-44.873731593804834
-44.09246967269398
-48.97535667963683
-52.6863508049134
-51.80743114366369
-56.7879758907454
-60.401312275883114
-63.42870222018769
-66.55374990463112
-65.77248798352025
-69.77645532921339
-72.70618753337911
-72.02258335240711
-75.9288929579614
-78.85862516212711
-81.98367284657053
-85.10872053101396
-84.3274586099031
-87.35484855420768
-89.50331883726253
-89.01503013656824
-90.96818493934539
-92.43305104142824
-93.99557488364995
-95.55809872587167
-95.16746776531625
-97.12062256809338
-98.48783093003739
-98.19485770962082
-100.14801251239795
-101.6128786144808
-102.19882505531396
-102.98008697642481
-102.68711375600824
-103.66369115739681
-104.44495307850767
-104.1519798580911
-105.12855725947966
-105.81216144045166
-105.61684596017395
-105.7145037003128
-105.61684596017395
-105.61684596017395
-105.51918822003509
-105.51918822003509
-103.56603341725796
-102.1011673151751
-99.46440833142596
-97.12062256809338
-97.60891126878766
-90.87052719920653
-85.59700923170824
-86.76890211337454
-75.9288929579614
-67.82330052643626
-55.32310978866255
-43.70183871213855
-46.240939955748836
-27.588311589227132
-13.525597009231708
-16.650644693675137
2.9785610742351416
17.724879835202564
32.56885633630884
47.412832837415124
44.09246967269398
61.08491645685512
73.48744945448996
70.75303273060197
82.7649347676814
91.45647364003968
97.12062256809338
103.4683756771191
102.1011673151751
107.08171206225681
110.69504844739453
109.91378652628366
110.9880216678111
111.6716258487831
110.49973296711681
109.71847104600594
109.91378652628366
105.0308995193408
101.31990539406424
102.1011673151751
95.16746776531625
89.99160753795681
82.56961928740368
75.53826199740597
77.10078583962768
67.13969634546426
59.815365835049974
61.37788967727169
50.53788052185855
42.43228809033341
35.596246280613414
28.564888990615703
30.127412832837415
22.998397802700847
17.920195315480278
19.092088197146563
13.037308308537423
8.642710002288853
4.834058136873426
0.9277485313191425
1.8066681925688564
-2.0996414129854277
-5.0293736171511405
-4.345769436179141
-7.373159380483711
-9.619287403677424
-12.939650568398566
-15.967040512703136
-15.283436331731137
-19.287403677424276
-22.21713588158999
-21.533531700617992
-25.537499046311133
-28.467231250476843
-31.592278934920273
-34.717326619363696
-33.93606469825284
-37.94003204394598
-40.86976424811169
-40.186160067139696
-44.19012741283284
-47.11985961699855
-50.24490730144198
-53.36995498588541
-52.588693064774546
-55.61608300907912
-57.764553292133975
-57.27626459143969
-61.182574196993976
-64.11230640115969
-65.38185702296482
-66.94438086518655
-66.55374990463112
-69.48348210879682
-71.72961013199054
-71.1436636911574
-73.19447623407339
-74.65934233615626
-76.22186617837797
-77.68673228046082
-77.39375906004425
-78.37033646143283
-79.05394064240483
-78.85862516212711
-79.83520256351568
-80.51880674448768
-81.30006866559853
-82.0813305867094
-81.88601510643167
-81.88601510643167
-81.88601510643167
-81.78835736629281
-81.78835736629281
-81.78835736629281
-82.66727702754254
-83.4485389486534
-83.25322346837568
-83.25322346837568
-83.15556572823682
-83.15556572823682
-83.15556572823682
-83.15556572823682
-83.05790798809797
-83.05790798809797
-83.05790798809797
-83.05790798809797
-82.96025024795911
-82.96025024795911
-82.96025024795911
-82.96025024795911
-82.86259250782025
-82.86259250782025
-82.86259250782025
-82.7649347676814
-82.7649347676814
-82.7649347676814
-81.78835736629281
-81.00709544518196
-80.2258335240711
-79.3469138628214
-79.54222934309911
-78.56565194171054
-77.78439002059967
-77.88204776073853
-76.90547035934996
-76.12420843823911
-75.34294651712825
-74.46402685587854
-74.65934233615626
-73.68276493476768
-72.90150301365682
-72.99916075379568
-71.04600595101854
-69.58113984893568
-68.89753566796368
-68.11627374685283
-68.21393148699168
-65.28419928282597
-63.03807125963226
-63.526359960326545
-57.66689555199512
-53.27229724574655
-45.55733577477684
-38.72129396505684
-40.186160067139696
-24.560921644922562
-12.74433508812085
-15.381094071869994
4.150453955901427
18.89677271686885
39.5025558861677
58.74113069352254
54.44419012741283
79.24925612268254
97.60891126878766
93.50728618295567
116.35919737544823
133.15632867933166
146.53543907835507
160.69581139848935
157.57076371404594
170.55924315251391
180.03204394598308
177.8835736629282
186.86808575570305
193.41115434500648
195.65728236820019
198.8799877927825
198.09872587167163
199.17296101319906
199.85656519417105
199.56359197375448
196.73151750972764
194.38773174639505
191.06736858167392
187.84466315709162
188.52826733806364
181.59456778820478
176.41870756084535
177.49294270237277
167.6295109483482
160.20752269779507
152.29724574654765
144.38696879530022
146.14480811779964
135.20714122224766
127.00389105058366
128.76173037308308
117.82406347753108
109.71847104600594
101.90585183489738
94.09323262378882
95.85107194628824
87.7454795147631
81.88601510643167
83.15556572823682
73.29213397421225
65.8701457236591
56.1043717097734
46.72922865644312
48.78004119935912
37.84237430380713
29.736781872281988
31.494621194781413
23.48668650339513
17.627222095063708
14.11154345006485
10.10757610437171
11.08415350576028
9.912260624093996
9.130998702983138
9.326314183260854
10.205233844510566
10.986495765621424
12.74433508812085
14.209201190203707
13.916227969787137
11.08415350576028
8.838025482566568
9.326314183260854
3.5645075150682843
-0.8300907911802854
-4.638742656595713
-8.545052262149996
-7.666132600900283
-12.646677347981994
-16.260013733119706
-15.47875181200885
-20.45929655909056
-24.072632944228275
-27.100022888532845
-30.22507057297627
-29.541466392004274
-33.44777599755856
-36.37750820172427
-35.69390402075227
-38.72129396505684
-40.86976424811169
-42.33463035019455
-43.89715419241627
-43.50652323186084
-46.43625543602655
-48.68238345922026
-48.19409475852598
-50.14724956130312
-51.61211566338598
-53.17463950560769
-54.7371633478294
-54.346532387273975
-55.32310978866255
-56.1043717097734
-55.90905622949569
-57.86221103227283
-59.32707713435569
-59.91302357518883
-60.694285496299685
-60.49897001602197
-61.475547417410546
-62.15915159838254
-61.96383611810483
-62.9404135194934
-63.72167544060426
-63.526359960326545
-63.526359960326545
-63.526359960326545
-64.40527962157626
-65.18654154268711
-64.9912260624094
-64.9912260624094
-64.9912260624094
-64.89356832227054
-64.89356832227054
-64.89356832227054
-64.89356832227054
-64.79591058213168
-64.79591058213168
-65.77248798352025
-66.45609216449226
-66.26077668421455
-66.26077668421455
-66.26077668421455
-65.28419928282597
-64.50293736171511
-64.69825284199283
-63.72167544060426
-62.9404135194934
-60.2059967956054
-57.95986877241169
-58.44815747310597
-51.61211566338598
-46.43625543602655
-47.51049057755398
-35.79156176089113
-26.90470740825513
-13.623254749370565
-1.3183794918745708
-4.052796215762569
15.576409552147707
30.322728313115128
27.002365148393988
47.80346379797055
63.13572899977112
79.73754482337682
96.14404516670481
92.43305104142824
111.37865262836652
125.24605172808423
122.12100404364081
136.18371862363622
146.34012359807735
154.54337376974135
163.13725490196077
161.18410009918364
167.23887998779279
171.53582055390248
170.55924315251391
173.5866330968185
175.73510337987335
176.12573434042878
176.90699626153963
176.71168078126192
173.78194857709622
171.53582055390248
171.9264515144579
167.92248416876478
164.99275196459908
157.96139467460137
151.80895704585336
153.0785076676585
144.1916533150225
137.45326924544136
138.9181353475242
129.05470359349965
121.63271534294651
111.76928358892195
102.49179827573053
104.44495307850767
93.50728618295567
85.40169375143053
87.15953307392996
77.19844357976653
69.77645532921339
62.84275577935454
55.81139848935683
57.27626459143969
50.24490730144198
45.16670481422141
46.240939955748836
39.307240405889985
34.131380178530556
29.541466392004274
24.853894865339132
25.830472266727703
19.87335011825742
15.47875181200885
16.45532921339742
10.498207064927138
6.103608758678568
2.2949568932631417
-1.513694972152285
-0.6347753109025711
-6.591897459372854
-10.986495765621424
-10.009918364232853
-14.990463111314565
-18.60379949645228
-22.60776684214542
-26.514076447699704
-25.63515678644999
-30.615701533531702
-34.22903791866941
-33.44777599755856
-38.33066300450141
-42.04165712977798
-45.947966735332265
-49.85427634088655
-48.97535667963683
-52.97932402532997
-55.81139848935683
-55.22545204852369
-58.1551842526894
-60.401312275883114
-63.6240177004654
-66.74906538490883
-66.06546120393683
-68.01861600671397
-69.48348210879682
-69.19050888838025
-72.02258335240711
-74.26871137560083
-74.65934233615626
-75.53826199740597
-75.34294651712825
-77.19844357976653
-78.6633096818494
-78.37033646143283
-79.3469138628214
-80.03051804379339
-80.81177996490425
-81.5930418860151
-81.39772640573739
-82.37430380712597
-83.05790798809797
-82.86259250782025
-82.86259250782025
-82.86259250782025
-82.7649347676814
-82.7649347676814
-82.7649347676814
-82.7649347676814
-82.66727702754254
-82.66727702754254
-82.66727702754254
-82.56961928740368
-82.56961928740368
-82.56961928740368
-82.56961928740368
-81.5930418860151
-80.81177996490425
-80.9094377050431
-80.9094377050431
-80.81177996490425
-79.83520256351568
-79.05394064240483
-79.24925612268254
-78.27267872129397
-77.4914168001831
-77.58907454032196
-75.63591973754482
-74.17105363546197
-70.65537499046312
-67.53032730601969
-68.21393148699168
-59.42473487449455
-52.78400854505226
-54.24887464713512
-41.45571068894484
-31.885252155336843
-16.84596017395285
-2.9785610742351416
-6.005951018539712
14.599832150759136
30.029755092698558
26.61173418783856
49.26832990005341
66.16311894407569
82.47196154726483
98.87846189059282
95.16746776531625
114.11306935225453
127.98046845197223
124.8554207675288
138.9181353475242
149.07454032196537
156.3012130922408
164.21149004348823
162.35599298084992
169.38735027084763
174.4655527580682
173.29365987640193
176.3210498207065
178.46952010376134
177.8835736629282
177.98123140306706
177.8835736629282
175.93041886015106
174.36789501792936
174.66086823834593
170.65690089265277
167.72716868848707
161.57473105973907
156.20355535210194
157.37544823376822
148.48859388113223
141.7502098115511
143.21507591363394
132.3750667582208
124.1718165865568
115.48027771419852
106.8863965819791
108.74189364461738
96.82764934767681
87.94079499504082
89.89394979781795
78.95628290226597
70.85069047074083
64.01464866102083
56.88563363088426
58.44815747310597
49.46364538033112
42.92057679102769
44.28778515297169
37.35408560311284
32.178225375753414
27.588311589227132
22.90074006256199
23.87731746395056
17.920195315480278
13.525597009231708
14.50217441062028
8.545052262149996
4.150453955901427
-0.537117570763714
-5.224689097428855
-4.150453955901427
-9.130998702983138
-12.84199282825971
-11.963073167009995
-17.920195315480278
-22.314793621728846
-26.123445487144274
-30.029755092698558
-29.150835431448844
-34.131380178530556
-37.74471656366827
-36.96345464255741
-41.84634164950027
-45.55733577477684
-48.48706797894255
-51.61211566338598
-50.928511482413974
-55.81139848935683
-59.522392614633404
-58.643472953383686
-61.67086289768826
-63.91699092088197
-63.33104448004883
-67.23735408560312
-70.16708628976883
-71.43663691157397
-72.99916075379568
-72.60852979324025
-74.65934233615626
-76.02655069810025
-76.71015487907225
-77.4914168001831
-77.29610131990539
-79.15159838254368
-80.61646448462653
-80.32349126420996
-80.32349126420996
-80.32349126420996
-81.20241092545967
-81.98367284657053
-81.78835736629281
-82.66727702754254
-83.4485389486534
-83.25322346837568
-84.22980086976425
-84.91340505073624
-85.6946669718471
-86.37827115281911
-86.1829556725414
-86.1829556725414
-86.1829556725414
-86.1829556725414
-86.1829556725414
-86.08529793240254
-85.10872053101396
-84.3274586099031
-84.52277409018082
-81.5930418860151
-79.3469138628214
-79.83520256351568
-74.85465781643397
-71.1436636911574
-63.42870222018769
-56.49500267032883
-57.95986877241169
-45.26436255436027
-35.69390402075227
-37.74471656366827
-21.045242999923705
-8.545052262149996
6.787212939650568
21.43587396047913
18.21316853589685
38.03768978408484
52.6863508049134
49.365987640192266
67.33501182574197
80.51880674448768
91.8471046005951
103.56603341725796
100.92927443350881
111.96459906919966
119.97253376058595
118.21469443808652
125.24605172808423
130.3242542153048
132.96101319905395
136.08606088349737
135.40245670252537
137.3556115053025
138.82047760738536
138.42984664682993
137.45326924544136
136.6720073243305
132.96101319905395
129.93362325474936
130.61722743572136
124.66010528725108
120.16784924086366
121.14442664225223
113.2341496910048
107.27702754253453
99.07377737087053
91.26115815976196
93.01899748226138
82.0813305867094
73.97573815518425
75.73357747768368
64.79591058213168
56.690318150606544
48.97535667963683
41.065079728389414
42.822919050888835
33.838406958113985
27.1976806286717
28.66254673075456
21.63118944075685
16.55298695353628
11.963073167009995
7.275501640344854
8.252079041733426
3.2715342946517127
-0.34180209048599985
0.43945983062485694
-4.443427176317998
-8.154421301594567
-11.08415350576028
-14.209201190203707
-13.525597009231708
-18.506141756313422
-22.119478141451133
-21.338216220340275
-25.342183566033416
-28.27191577019913
-32.37354085603113
-36.182192721446555
-35.303273060196844
-40.28381780727855
-43.89715419241627
-43.11589227130541
-47.11985961699855
-50.04959182116426
-53.17463950560769
-56.29968719005112
-55.51842526894026
-59.522392614633404
-62.45212481879911
-61.768520637827116
-64.69825284199283
-66.94438086518655
-69.28816662851911
-71.63195239185168
-71.04600595101854
-73.09681849393453
-74.46402685587854
-74.17105363546197
-76.12420843823911
-77.58907454032196
-79.05394064240483
-80.61646448462653
-80.2258335240711
-82.17898832684826
-83.6438544289311
-83.35088120851454
-85.30403601129167
-86.67124437323568
-87.35484855420768
-88.13611047531853
-87.84313725490196
-88.81971465629053
-89.60097657740138
-89.40566109712367
-89.40566109712367
-89.30800335698481
-89.30800335698481
-89.30800335698481
-89.30800335698481
-88.23376821545739
-87.55016403448539
-87.64782177462425
-85.6946669718471
-84.13214312962539
-78.76096742198825
-74.17105363546197
-75.14763103685054
-67.33501182574197
-61.37788967727169
-62.64744029907683
-49.951934081025406
-40.38147554741741
-27.1976806286717
-14.795147631036851
-17.52956435492485
1.1230640115968566
15.088120851453422
11.963073167009995
29.834439612420844
43.018234531166556
55.32310978866255
67.92095826657511
65.08888380254825
78.07736324101626
87.55016403448539
85.40169375143053
95.46044098573282
102.68711375600824
105.81216144045166
109.91378652628366
108.93720912489509
110.9880216678111
112.45288776989395
112.06225680933852
111.18333714808881
110.3044174868391
106.69108110170139
103.66369115739681
104.24963759822995
98.39017318989853
93.8979171435111
94.87449454489968
86.96421759365225
81.00709544518196
72.80384527351796
64.9912260624094
66.74906538490883
56.7879758907454
49.46364538033112
51.02616922255284
41.065079728389414
33.74074921797513
27.783627069504846
21.43587396047913
22.803082322423133
16.748302433813993
12.353704127565424
13.330281528953995
8.349736781872283
4.736400396734569
1.7090104524299992
-1.416037232013428
-0.6347753109025711
-3.662165255207141
-5.908293278400855
-5.420004577706569
-8.349736781872283
-10.595864805065995
-12.939650568398566
-15.283436331731137
-14.697489890897993
-18.701457236591136
-21.63118944075685
-20.947585259784848
-24.95155260547799
-27.881284809643702
-30.029755092698558
-32.37354085603113
-31.885252155336843
-35.79156176089113
-38.72129396505684
-38.03768978408484
-42.04165712977798
-44.97138933394369
-47.11985961699855
-49.46364538033112
-48.97535667963683
-52.881666285191116
-55.81139848935683
-55.127794308384836
-58.1551842526894
-60.30365453574426
-61.67086289768826
-63.233386739909974
-62.9404135194934
-64.89356832227054
-66.3584344243534
-65.96780346379796
-67.92095826657511
-69.38582436865796
-70.94834821087969
-72.5108720531014
-72.12024109254597
-73.09681849393453
-73.78042267490653
-73.58510719462882
-74.5616845960174
-75.34294651712825
-75.14763103685054
-75.14763103685054
-75.14763103685054
-76.02655069810025
-76.71015487907225
-76.51483939879454
-76.61249713893339
-76.51483939879454
-76.51483939879454
-76.51483939879454
-76.51483939879454
-76.41718165865568
-76.41718165865568
-76.41718165865568
-76.41718165865568
-76.31952391851682
-76.31952391851682
-76.31952391851682
-76.31952391851682
-76.22186617837797
-76.22186617837797
-76.22186617837797
-76.22186617837797
-76.12420843823911
-75.14763103685054
-74.36636911573969
-74.5616845960174
-73.58510719462882
-72.80384527351796
-72.90150301365682
-71.92492561226825
-71.1436636911574
-71.33897917143511
-71.24132143129626
-71.24132143129626
-69.28816662851911
-67.82330052643626
-68.11627374685283
-67.0420386053254
-66.26077668421455
-65.47951476310368
-64.69825284199283
-64.79591058213168
-62.84275577935454
-61.37788967727169
-61.67086289768826
-58.74113069352254
-56.49500267032883
-52.19806210421912
-48.38941023880369
-49.17067215991455
-39.40489814602884
-32.08056763561456
-33.64309147783627
-18.994430457007706
-7.959105821316854
8.642710002288853
24.072632944228275
20.55695429922942
43.311207751583126
60.2059967956054
56.39734493018997
80.12817578393225
97.80422674906538
115.77325093461509
133.64461738002595
129.6406500343328
147.70733196002135
160.7934691386282
157.8637369344625
170.85221637293049
180.32501716639965
185.79385061417562
192.14160372320134
190.6767376211185
194.68070496681162
197.5127794308385
196.8291752498665
197.90341039139392
198.48935683222706
196.43854428931107
194.87602044708933
195.1689936675059
190.28610666056306
186.47745479514762
187.25871671625848
180.32501716639965
175.1491569390402
167.6295109483482
160.5981536583505
162.1606775005722
151.22301060502022
143.11741817349508
144.8752574959945
132.96101319905395
124.07415884641794
115.48027771419852
106.8863965819791
108.74189364461738
97.80422674906538
89.69863431754024
91.45647364003968
83.35088120851454
77.4914168001831
71.1436636911574
64.89356832227054
66.26077668421455
60.2059967956054
55.81139848935683
56.690318150606544
50.73319600213626
46.33859769588769
41.5533684290837
36.86579690241855
37.94003204394598
31.9829098954757
27.49065384908827
28.467231250476843
22.510109102006563
18.11551079575799
13.427939269092851
8.74036774242771
9.71694514381628
4.736400396734569
1.0254062714579995
1.9043259327077133
-3.9551384756237127
-8.349736781872283
-12.158388647287708
-16.064698252841993
-15.185778591592278
-20.16632333867399
-23.779659723811704
-22.998397802700847
-27.97894254978256
-31.592278934920273
-34.61966887922484
-37.74471656366827
-37.06111238269627
-40.96742198825055
-43.89715419241627
-43.21355001144427
-46.240939955748836
-48.38941023880369
-51.709773403524835
-54.83482108796826
-54.053559166857404
-56.1043717097734
-57.56923781185626
-57.27626459143969
-60.108339055466544
-62.35446707866026
-63.72167544060426
-65.28419928282597
-64.89356832227054
-66.94438086518655
-68.31158922713054
-68.01861600671397
-69.9717708094911
-71.43663691157397
-72.02258335240711
-72.80384527351796
-72.60852979324025
-73.58510719462882
-74.26871137560083
-74.07339589532312
-75.04997329671168
-75.73357747768368
-75.63591973754482
-75.63591973754482
-75.53826199740597
-75.53826199740597
-75.53826199740597
-75.53826199740597
-75.44060425726711
-75.44060425726711
-76.41718165865568
-77.10078583962768
-76.90547035934996
-76.90547035934996
-76.90547035934996
-76.90547035934996
-76.8078126192111
-76.8078126192111
-76.8078126192111
-76.8078126192111
-76.71015487907225
-75.73357747768368
-75.04997329671168
-75.14763103685054
-73.19447623407339
-71.63195239185168
-68.21393148699168
-65.08888380254825
-65.77248798352025
-58.936446173800256
-53.760585946440834
-54.83482108796826
-43.11589227130541
-34.22903791866941
-19.971007858396277
-6.884870679789426
-9.81460288395514
9.81460288395514
24.560921644922562
21.24055848020142
43.018234531166556
59.13176165407798
74.65934233615626
90.2845807583734
86.76890211337454
104.64026855878538
117.82406347753108
114.89433127336538
128.85938811322194
139.01579308766307
146.2424658579385
154.15274280918592
152.3949034866865
158.44968337529565
162.74662394140535
161.77004654001678
164.79743648432137
166.84824902723736
166.35996032654307
166.35996032654307
166.35996032654307
164.40680552376594
162.8442816815442
163.13725490196077
158.25436789501794
154.4457160296025
147.6096742198825
141.45723659113452
142.72678721293966
132.8633554589151
125.44136720836194
127.10154879072252
115.18730449378195
106.30045014114596
95.85107194628824
85.6946669718471
87.94079499504082
76.90547035934996
68.79987792782482
70.55771725032426
59.71770809491112
51.61211566338598
44.77607385366598
37.64705882352941
39.20958266575113
32.178225375753414
27.100022888532845
28.174258030060273
21.24055848020142
16.064698252841993
12.45136186770428
8.44739452201114
9.326314183260854
3.466849774929427
-0.8300907911802854
0.04882887006942855
-5.810635538261997
-10.205233844510566
-14.013885709925994
-17.920195315480278
-17.041275654230564
-22.998397802700847
-27.392996108949415
-26.416418707560844
-32.37354085603113
-36.768139162279695
-40.57679102769512
-44.48310063324941
-43.604180971999696
-48.48706797894255
-52.19806210421912
-51.31914244296941
-56.29968719005112
-59.91302357518883
-63.91699092088197
-67.7256427862974
-66.84672312504769
-70.85069047074083
-73.78042267490653
-73.09681849393453
-77.00312809948882
-79.93286030365454
-82.0813305867094
-84.42511635004196
-83.93682764934768
-86.8665598535134
-89.01503013656824
-88.52674143587396
-90.47989623865111
-91.94476234073396
-93.50728618295567
-95.06981002517739
-94.67917906462196
-95.65575646601053
-96.33936064698253
-96.14404516670481
-97.12062256809338
-97.80422674906538
-98.58548867017625
-99.3667505912871
-99.17143511100939
-99.17143511100939
-99.07377737087053
-99.07377737087053
-99.07377737087053
-98.97611963073167
-97.99954222934309
-97.21828030823224
-97.41359578850995
-97.3159380483711
-97.3159380483711
-97.21828030823224
-96.24170290684367
-95.46044098573282
-95.65575646601053
-95.55809872587167
-95.55809872587167
-95.55809872587167
-95.46044098573282
-95.46044098573282
-94.48386358434425
-93.70260166323338
-92.92133974212253
-92.04242008087282
-92.23773556115053
-90.2845807583734
-88.72205691615167
-89.01503013656824
-85.10872053101396
-82.17898832684826
-76.12420843823911
-70.75303273060197
-71.92492561226825
-60.108339055466544
-51.22148470283055
-53.17463950560769
-37.4517433432517
-25.732814526588847
-8.252079041733426
7.861448081177996
4.248111696040284
27.002365148393988
43.89715419241627
40.08850232700084
62.84275577935454
79.73754482337682
94.09323262378882
109.03486686503395
105.7145037003128
120.65613794155794
131.59380483710993
129.1523613336385
140.18768596932938
148.19562066071566
152.10193026626993
156.88715953307394
155.71526665140763
158.84031433585108
160.89112687876707
160.40283817807278
161.37941557946135
162.06301976043335
159.0356298161288
156.78950179293508
157.1801327534905
153.17616540779736
150.24643320363165
150.8323796444648
143.01976043335623
137.06263828488594
129.73830777447165
122.70695048447395
124.1718165865568
113.33180743114366
105.22621499961852
106.98405432211796
95.06981002517739
86.1829556725414
77.68673228046082
68.99519340810254
70.94834821087969
61.86617837796597
55.22545204852369
56.690318150606544
49.658960860608836
44.580758373388264
39.99084458686198
35.20561532005799
36.27985046158541
31.201647974364842
27.588311589227132
28.369573510337986
22.412451361867703
18.017853055619135
14.209201190203707
10.302891584649425
11.181811245899137
6.201266498817426
2.490272373540856
3.36919203479057
-1.513694972152285
-5.224689097428855
-10.10757610437171
-14.697489890897993
-13.720912489509422
-18.701457236591136
-22.314793621728846
-21.533531700617992
-26.514076447699704
-30.127412832837415
-34.131380178530556
-37.94003204394598
-37.06111238269627
-41.065079728389414
-43.99481193255512
-43.311207751583126
-47.31517509727627
-50.24490730144198
-53.36995498588541
-56.49500267032883
-55.713740749217976
-58.74113069352254
-60.8896009765774
-60.401312275883114
-63.33104448004883
-65.57717250324254
-67.92095826657511
-70.26474402990769
-69.67879758907453
-71.72961013199054
-73.09681849393453
-72.80384527351796
-73.78042267490653
-74.46402685587854
-76.22186617837797
-77.68673228046082
-77.39375906004425
-77.39375906004425
-77.39375906004425
-77.29610131990539
-78.27267872129397
-78.95628290226597
-79.73754482337682
-80.51880674448768
-80.32349126420996
-80.32349126420996
-80.32349126420996
-80.2258335240711
-80.2258335240711
-80.2258335240711
-80.2258335240711
-80.12817578393225
-80.12817578393225
-80.12817578393225
-80.12817578393225
-80.03051804379339
-80.03051804379339
-80.03051804379339
-80.03051804379339
-79.93286030365454
-79.93286030365454
-79.93286030365454
-79.83520256351568
-79.83520256351568
-79.83520256351568
-79.83520256351568
-77.88204776073853
-76.31952391851682
-76.71015487907225
-73.68276493476768
-71.43663691157397
-71.92492561226825
-65.08888380254825
-59.91302357518883
-49.56130312046998
-40.38147554741741
-42.43228809033341
-25.732814526588847
-13.232623788815136
-15.967040512703136
3.662165255207141
18.310826276035705
36.96345464255741
54.83482108796826
50.83085374227512
72.70618753337911
88.81971465629053
85.20637827115281
105.0308995193408
119.67956054016938
130.71488517586022
142.53147173266194
139.89471274891278
150.93003738460365
158.93797207598993
157.08247501335165
164.11383230334937
169.19203479056992
171.82879377431905
174.9538414587625
174.17257953765164
174.2702372777905
174.17257953765164
174.17257953765164
172.2194247348745
170.65690089265277
167.14122224765393
164.0161745632105
164.60212100404365
157.76607919432365
152.49256122682536
153.66445410849164
144.77759975585565
138.0392156862745
128.9570458533608
120.46082246128023
122.31631952391852
110.40207522697796
101.51522087434195
103.4683756771191
91.55413138017853
82.66727702754254
74.17105363546197
65.47951476310368
67.43266956588083
58.350499732967116
51.709773403524835
53.17463950560769
45.26436255436027
39.307240405889985
32.95948729686427
26.709391927977418
28.174258030060273
22.119478141451133
17.724879835202564
18.701457236591136
12.74433508812085
8.252079041733426
3.5645075150682843
-1.0254062714579995
0.04882887006942855
-5.0293736171511405
-8.642710002288853
-7.861448081177996
-13.720912489509422
-18.11551079575799
-22.90074006256199
-27.588311589227132
-26.514076447699704
-31.494621194781413
-35.20561532005799
-34.32669565880827
-39.307240405889985
-42.92057679102769
-46.92454413672083
-50.73319600213626
-49.85427634088655
-53.85824368657969
-56.7879758907454
-56.1043717097734
-60.987258716716255
-64.69825284199283
-67.62798504615854
-70.75303273060197
-70.06942854962998
-73.09681849393453
-75.2452887769894
-74.75700007629511
-77.68673228046082
-79.83520256351568
-82.17898832684826
-84.52277409018082
-83.93682764934768
-85.98764019226367
-87.35484855420768
-87.06187533379111
-89.01503013656824
-90.47989623865111
-91.06584267948425
-91.8471046005951
-91.65178912031739
-92.62836652170596
-93.31197070267795
-93.11665522240024
-94.09323262378882
-94.77683680476082
-94.5815213244831
-94.5815213244831
-94.5815213244831
-95.46044098573282
-96.14404516670481
-95.9487296864271
-95.9487296864271
-95.9487296864271
-95.9487296864271
-95.85107194628824
-95.85107194628824
-95.85107194628824
-95.85107194628824
-95.75341420614939
-98.58548867017625
-100.83161669336995
-105.0308995193408
-108.83955138475623
-107.96063172350652
-112.84351873044938
-116.55451285572595
-115.67559319447624
-115.77325093461509
-115.77325093461509
-110.9880216678111
-107.17936980239567
-107.96063172350652
-97.21828030823224
-89.1126878767071
-90.87052719920653
-72.31555657282368
-58.25284199282826
-38.42832074464027
-19.971007858396277
-24.072632944228275
0.6347753109025711
18.994430457007706
14.892805371175708
38.72129396505684
56.39734493018997
75.34294651712825
93.99557488364995
89.7962920576791
111.6716258487831
127.78515297169452
124.1718165865568
142.14084077210651
155.3246356908522
164.6997787441825
174.9538414587625
172.61005569542993
181.69222552834364
188.13763637750822
186.67277027542534
191.65331502250706
195.26665140764476
196.3408865491722
197.90341039139392
197.5127794308385
197.5127794308385
197.41512169069964
197.41512169069964
194.4853894865339
192.14160372320134
187.84466315709162
183.93835355153735
184.7196154726482
177.78591592278934
172.61005569542993
173.68429083695736
163.82085908293277
156.39887083237966
146.53543907835507
137.25795376516365
139.21110856794078
126.32028686961166
116.74982833600366
118.80064087891967
105.90981918059052
96.33936064698253
86.96421759365225
77.4914168001831
79.63988708323797
68.60456244754711
60.49897001602197
62.2568093385214
52.295719844357976
44.97138933394369
38.91660944533455
32.6665140764477
34.0337224383917
26.025787747005417
20.16632333867399
21.43587396047913
13.525597009231708
7.666132600900283
2.2949568932631417
-3.076218814373999
-1.9043259327077133
-8.838025482566568
-14.013885709925994
-12.84199282825971
-19.775692378118563
-24.853894865339132
-30.420386053253985
-35.889219501029984
-34.61966887922484
-40.67444876783398
-44.97138933394369
-43.99481193255512
-50.928511482413974
-56.006713969634546
-59.62005035477226
-63.6240177004654
-62.745098039215684
-68.60456244754711
-72.99916075379568
-72.02258335240711
-77.00312809948882
-80.61646448462653
-82.66727702754254
-85.0110627908751
-84.42511635004196
-88.33142595559625
-91.26115815976196
-90.57755397878996
-92.62836652170596
-93.99557488364995
-95.55809872587167
-97.12062256809338
-96.72999160753795
-97.70656900892652
-98.48783093003739
-98.29251544975968
-99.17143511100939
-99.95269703212024
-100.63630121309224
-101.41756313420309
-101.22224765392538
-102.19882505531396
-102.88242923628596
-102.68711375600824
-103.66369115739681
-104.34729533836881
-104.1519798580911
-104.1519798580911
-104.1519798580911
-104.05432211795224
-104.05432211795224
-104.05432211795224
-103.07774471656367
-102.29648279545282
-100.44098573281453
-98.87846189059282
-99.26909285114824
-94.38620584420539
-90.57755397878996
-91.45647364003968
-83.54619668879225
-77.68673228046082
-67.43266956588083
-58.25284199282826
-60.30365453574426
-44.48310063324941
-32.764171816586554
-35.303273060196844
-16.650644693675137
-2.5879301136797133
13.232623788815136
28.760204470893417
25.342183566033416
44.19012741283284
58.1551842526894
55.03013656824598
70.06942854962998
81.00709544518196
89.01503013656824
97.70656900892652
95.75341420614939
102.88242923628596
107.86297398336767
106.78873884184024
110.79270618753338
113.62478065156023
113.9177538719768
114.79667353322652
114.50370031280995
112.64820325017166
111.08567940794995
111.37865262836652
108.44892042420081
106.2027924010071
100.92927443350881
96.33936064698253
97.3159380483711
89.40566109712367
83.54619668879225
84.81574731059739
75.83123521782254
69.19050888838025
61.182574196993976
53.36995498588541
55.03013656824598
44.19012741283284
36.0845349813077
37.84237430380713
28.857862211032273
22.21713588158999
16.064698252841993
9.81460288395514
11.181811245899137
6.103608758678568
2.490272373540856
3.2715342946517127
-0.6347753109025711
-3.5645075150682843
-5.810635538261997
-8.154421301594567
-7.666132600900283
-9.619287403677424
-11.08415350576028
-10.79118028534371
-11.767757686732281
-12.549019607843137
-14.306858930342566
-15.771725032425422
-15.47875181200885
-17.43190661478599
-18.89677271686885
-18.506141756313422
-21.43587396047913
-23.682001983672848
-26.025787747005417
-28.369573510337986
-27.881284809643702
-31.787594415197987
-34.717326619363696
-34.0337224383917
-38.91660944533455
-42.62760357061112
-45.654993514915695
-48.78004119935912
-47.998779278248264
-52.97932402532997
-56.59266041046769
-55.81139848935683
-59.71770809491112
-62.64744029907683
-64.89356832227054
-67.23735408560312
-66.65140764476998
-70.55771725032426
-73.48744945448996
-72.80384527351796
-74.85465781643397
-76.31952391851682
-77.88204776073853
-79.3469138628214
-79.05394064240483
-81.00709544518196
-82.37430380712597
-82.0813305867094
-84.03448538948653
-85.49935149156939
-86.08529793240254
-86.8665598535134
-86.67124437323568
-87.64782177462425
-88.33142595559625
-88.13611047531853
-89.1126878767071
-89.7962920576791
-90.57755397878996
-91.26115815976196
-91.06584267948425
-91.06584267948425
-91.06584267948425
-91.06584267948425
-91.06584267948425
-90.96818493934539
-90.96818493934539
-90.96818493934539
-90.87052719920653
-90.87052719920653
-90.87052719920653
-90.77286945906768
-89.7962920576791
-89.1126878767071
-89.21034561684596
-89.1126878767071
-89.1126878767071
-88.13611047531853
-87.35484855420768
-87.55016403448539
-86.47592889295797
-85.6946669718471
-84.91340505073624
-84.13214312962539
-84.22980086976425
-84.13214312962539
-84.13214312962539
-84.13214312962539
-83.15556572823682
-82.37430380712597
-79.63988708323797
-77.39375906004425
-77.88204776073853
-73.87808041504539
-70.94834821087969
-71.53429465171283
-62.84275577935454
-56.1043717097734
-44.19012741283284
-33.44777599755856
-35.889219501029984
-16.260013733119706
-1.513694972152285
-4.736400396734569
19.775692378118563
38.1353475242237
58.8387884336614
79.05394064240483
74.5616845960174
100.34332799267567
119.3865873197528
115.0896467536431
136.08606088349737
151.41832608529793
164.21149004348823
177.49294270237277
174.4655527580682
185.5985351338979
193.50881208514534
191.75097276264592
198.68467231250477
203.76287479972532
206.39963378347448
209.5246814679179
208.74341954680705
208.8410772869459
208.74341954680705
208.74341954680705
207.66918440527962
206.88792248416877
202.20035095750362
198.3916990920882
199.17296101319906
193.21583886472877
188.72358281834136
189.60250247959107
180.71564812695507
174.0749217975128
164.99275196459908
156.39887083237966
158.25436789501794
145.3635461966888
135.7930876630808
137.8439002059968
124.95307850766766
115.38261997405966
105.0308995193408
94.87449454489968
97.12062256809338
85.10872053101396
76.31952391851682
78.17502098115511
68.21393148699168
60.8896009765774
53.85824368657969
46.826886396581976
48.38941023880369
40.38147554741741
34.52201113908598
35.79156176089113
28.760204470893417
23.682001983672848
18.11551079575799
12.646677347981994
13.81857022964828
6.884870679789426
1.7090104524299992
2.8809033340962844
-2.9785610742351416
-7.373159380483711
-13.13496604867628
-18.506141756313422
-17.334248874647134
-23.291371023117417
-27.68596932936599
-26.709391927977418
-31.68993667505913
-35.303273060196844
-39.307240405889985
-43.11589227130541
-42.236972610055695
-47.21751735713741
-50.928511482413974
-50.04959182116426
-54.053559166857404
-56.983291371023114
-60.108339055466544
-63.233386739909974
-62.45212481879911
-65.47951476310368
-67.62798504615854
-67.13969634546426
-70.06942854962998
-72.31555657282368
-74.65934233615626
-76.90547035934996
-76.41718165865568
-79.3469138628214
-81.49538414587624
-81.00709544518196
-83.05790798809797
-84.42511635004196
-85.0110627908751
-85.79232471198596
-85.59700923170824
-87.55016403448539
-89.01503013656824
-88.62439917601282
-89.60097657740138
-90.38223849851225
-91.06584267948425
-91.8471046005951
-91.65178912031739
-91.65178912031739
-91.65178912031739
-91.55413138017853
-92.5307087815671
-93.2143129625391
-93.01899748226138
-93.01899748226138
-93.01899748226138
-93.8979171435111
-94.67917906462196
-94.48386358434425
-95.46044098573282
-96.14404516670481
-96.92530708781567
-97.60891126878766
-97.41359578850995
-97.41359578850995
-97.41359578850995
-97.41359578850995
-98.29251544975968
-98.97611963073167
-98.78080415045396
-98.78080415045396
-98.78080415045396
-97.80422674906538
-97.02296482795452
-97.12062256809338
-95.16746776531625
-93.70260166323338
-89.21034561684596
-85.40169375143053
-86.1829556725414
-77.39375906004425
-70.75303273060197
-72.21789883268482
-58.44815747310597
-48.09643701838712
-33.252460517280845
-19.287403677424276
-22.412451361867703
-0.7324330510414282
15.381094071869994
11.767757686732281
33.545433737697415
49.75661860074769
67.13969634546426
84.22980086976425
80.42114900434882
98.39017318989853
111.57396810864424
108.54657816433966
122.6092927443351
132.76569771877624
139.99237048905164
147.90264744029906
146.04715037766078
152.1995880064088
156.4965285725185
155.42229343099106
157.57076371404594
158.93797207598993
158.5473411154345
158.5473411154345
158.5473411154345
155.61760891126877
153.37148088807507
153.7621118486305
148.87922484168766
145.07057297627222
138.23453116655222
132.08209353780424
133.35164415960938
123.4882124055848
116.06622415503166
117.72640573739223
105.81216144045166
97.02296482795452
87.45250629434653
78.07736324101626
80.12817578393225
69.19050888838025
61.08491645685512
62.84275577935454
52.881666285191116
45.55733577477684
39.5025558861677
33.15480277714199
34.61966887922484
27.588311589227132
22.412451361867703
23.58434424353399
17.52956435492485
13.13496604867628
8.44739452201114
3.7598229953459983
4.736400396734569
-0.14648661020828566
-3.7598229953459983
-2.9785610742351416
-8.838025482566568
-13.330281528953995
-17.041275654230564
-21.045242999923705
-20.16632333867399
-25.049210345616846
-28.760204470893417
-27.881284809643702
-32.86182955672541
-36.57282368200198
-40.479133287556266
-44.38544289311055
-43.50652323186084
-48.38941023880369
-52.10040436408026
-51.22148470283055
-56.20202944991226
-59.815365835049974
-62.84275577935454
-65.96780346379796
-65.28419928282597
-69.19050888838025
-72.12024109254597
-71.43663691157397
-75.34294651712825
-78.27267872129397
-80.51880674448768
-82.86259250782025
-82.27664606698711
-84.3274586099031
-85.6946669718471
-85.40169375143053
-88.23376821545739
-90.47989623865111
-90.87052719920653
-91.74944686045625
-91.45647364003968
-92.43305104142824
-93.2143129625391
-93.01899748226138
-93.8979171435111
-94.67917906462196
-94.48386358434425
-94.48386358434425
-94.38620584420539
-94.38620584420539
-94.38620584420539
-94.28854810406654
-94.28854810406654
-94.28854810406654
-93.31197070267795
-92.5307087815671
-92.62836652170596
-92.62836652170596
-92.5307087815671
-92.5307087815671
-91.55413138017853
-90.77286945906768
-89.99160753795681
-89.1126878767071
-89.30800335698481
-88.23376821545739
-87.55016403448539
-87.64782177462425
-87.55016403448539
-87.55016403448539
-88.52674143587396
-89.21034561684596
-89.01503013656824
-89.99160753795681
-90.67521171892882
-90.47989623865111
-90.47989623865111
-90.47989623865111
-89.50331883726253
-88.72205691615167
-88.81971465629053
-85.0110627908751
-81.98367284657053
-82.56961928740368
-74.75700007629511
-68.89753566796368
-57.764553292133975
-47.80346379797055
-49.951934081025406
-31.2993057145037
-17.334248874647134
-20.45929655909056
0.24414435034714274
15.674067292286564
34.22903791866941
52.002746623941405
47.998779278248264
68.99519340810254
84.3274586099031
80.9094377050431
97.80422674906538
110.3044174868391
119.87487602044709
130.12893873502708
127.78515297169452
135.89074540321965
141.65255207141223
140.3830014496071
144.38696879530022
147.21904325932707
147.51201647974364
148.39093614099338
148.0979629205768
146.2424658579385
144.6799420157168
144.97291523613336
140.09002822919052
136.28137636377508
130.42191195544365
124.95307850766766
126.12497138933395
117.23811703669794
110.59739070725567
112.06225680933852
101.12458991378652
93.01899748226138
84.3274586099031
75.73357747768368
77.58907454032196
66.65140764476998
58.54581521324483
60.30365453574426
51.31914244296941
44.67841611352712
39.5025558861677
33.93606469825284
35.10795757991913
30.127412832837415
26.416418707560844
27.1976806286717
23.19371328297856
20.263981078812847
17.13893339436942
14.013885709925994
14.697489890897993
11.670099946593423
9.42397192339971
9.912260624093996
6.005951018539712
3.076218814373999
0.04882887006942855
-3.076218814373999
-2.392614633401999
-6.39658197909514
-9.326314183260854
-8.642710002288853
-13.623254749370565
-17.236591134508277
-21.24055848020142
-25.146868085755703
-24.267948424505988
-29.150835431448844
-32.86182955672541
-31.9829098954757
-36.96345464255741
-40.67444876783398
-44.580758373388264
-48.48706797894255
-47.60814831769284
-51.61211566338598
-54.44419012741283
-53.85824368657969
-58.74113069352254
-62.35446707866026
-64.40527962157626
-66.74906538490883
-66.26077668421455
-69.19050888838025
-71.33897917143511
-70.85069047074083
-72.90150301365682
-74.26871137560083
-75.83123521782254
-77.39375906004425
-77.00312809948882
-78.07736324101626
-78.76096742198825
-78.56565194171054
-79.54222934309911
-80.2258335240711
-80.03051804379339
-80.03051804379339
-80.03051804379339
-80.9094377050431
-81.69069962615396
-81.49538414587624
-81.49538414587624
-81.39772640573739
-81.39772640573739
-81.39772640573739
-81.39772640573739
-81.30006866559853
-81.30006866559853
-81.30006866559853
-80.32349126420996
-79.54222934309911
-79.63988708323797
-79.63988708323797
-79.63988708323797
-79.54222934309911
-79.54222934309911
-79.54222934309911
-79.54222934309911
-79.44457160296025
-79.44457160296025
-79.44457160296025
-79.44457160296025
-79.3469138628214
-79.3469138628214
-79.3469138628214
-79.3469138628214
-79.24925612268254
-77.39375906004425
-75.83123521782254
-76.12420843823911
-72.21789883268482
-69.28816662851911
-69.87411306935225
-63.03807125963226
-57.86221103227283
-46.533913176165406
-36.67048142214084
-38.818951705195694
-22.119478141451133
-9.619287403677424
-12.353704127565424
8.252079041733426
23.682001983672848
41.26039520866713
58.350499732967116
54.54184786755169
75.34294651712825
90.77286945906768
87.35484855420768
105.22621499961852
118.41000991836424
127.78515297169452
138.13687342641336
135.7930876630808
144.77759975585565
151.32066834515908
149.85580224307623
153.9574273289082
156.78950179293508
157.08247501335165
157.8637369344625
157.6684214541848
155.71526665140763
154.15274280918592
154.4457160296025
149.56282902265966
145.85183489738307
139.89471274891278
134.52353704127566
135.59777218280308
125.83199816891737
118.41000991836424
119.97253376058595
109.03486686503395
100.92927443350881
92.23773556115053
83.6438544289311
85.49935149156939
74.5616845960174
66.45609216449226
68.21393148699168
59.22941939421683
52.588693064774546
46.43625543602655
40.08850232700084
41.5533684290837
31.592278934920273
24.267948424505988
25.92813000686656
14.990463111314565
6.982528419928283
-0.7324330510414282
-8.545052262149996
-6.787212939650568
-13.916227969787137
-18.994430457007706
-17.82253757534142
-20.947585259784848
-23.096055542839704
-22.60776684214542
-22.705424582284277
-22.705424582284277
-19.87335011825742
-17.627222095063708
-18.11551079575799
-16.064698252841993
-14.599832150759136
-15.869382772564279
-16.55298695353628
-16.357671473258563
-21.14290074006256
-24.853894865339132
-24.072632944228275
-28.95551995117113
-32.6665140764477
-36.57282368200198
-40.479133287556266
-39.600213626306555
-43.604180971999696
-46.533913176165406
-45.85030899519341
-49.75661860074769
-52.6863508049134
-54.932478828107115
-57.27626459143969
-56.690318150606544
-59.71770809491112
-61.86617837796597
-61.37788967727169
-62.45212481879911
-63.13572899977112
-64.79591058213168
-66.3584344243534
-65.96780346379796
-67.0420386053254
-67.7256427862974
-67.53032730601969
-68.50690470740825
-69.19050888838025
-69.9717708094911
-70.75303273060197
-70.55771725032426
-71.53429465171283
-72.21789883268482
-72.02258335240711
-72.02258335240711
-72.02258335240711
-72.90150301365682
-73.68276493476768
-73.48744945448996
-73.48744945448996
-73.48744945448996
-73.3897917143511
-73.3897917143511
-73.3897917143511
-73.3897917143511
-73.3897917143511
-73.29213397421225
-74.26871137560083
-74.95231555657283
-74.75700007629511
-74.75700007629511
-74.75700007629511
-74.75700007629511
-74.75700007629511
-74.65934233615626
-74.65934233615626
-74.65934233615626
-74.65934233615626
-74.5616845960174
-74.5616845960174
-72.60852979324025
-71.1436636911574
-71.43663691157397
-67.53032730601969
-64.60059510185397
-65.18654154268711
-56.39734493018997
-49.75661860074769
-37.84237430380713
-27.100022888532845
-29.541466392004274
-10.79118028534371
3.076218814373999
0.04882887006942855
22.60776684214542
39.5025558861677
59.62005035477226
79.05394064240483
74.65934233615626
97.60891126878766
114.4060425726711
110.59739070725567
130.5195696955825
145.16823071641107
156.1058976119631
167.92248416876478
165.28572518501565
175.34447241931792
182.57114518959335
180.9109636072328
185.98916609445334
189.60250247959107
190.57907988097963
192.2392614633402
191.75097276264592
190.8720531013962
189.9931334401465
190.1884489204242
186.18448157473105
183.25474937056535
177.10231174181735
171.7311360341802
172.9030289158465
163.91851682307163
157.27779049362937
158.74265659571222
147.8049897001602
139.69939726863507
129.93362325474936
120.65613794155794
122.6092927443351
110.69504844739453
101.90585183489738
103.76134889753567
91.8471046005951
83.05790798809797
75.44060425726711
67.53032730601969
69.28816662851911
60.2059967956054
53.66292820630198
55.03013656824598
47.998779278248264
42.92057679102769
38.33066300450141
33.545433737697415
34.61966887922484
28.66254673075456
24.267948424505988
25.24452582589456
19.287403677424276
14.795147631036851
10.10757610437171
5.420004577706569
6.39658197909514
1.416037232013428
-2.0996414129854277
-1.3183794918745708
-7.177843900205997
-11.670099946593423
-16.357671473258563
-21.045242999923705
-19.971007858396277
-24.95155260547799
-28.66254673075456
-27.783627069504846
-32.764171816586554
-36.475165941863125
-41.358052948805984
-45.947966735332265
-44.873731593804834
-49.951934081025406
-53.56527046616312
-52.6863508049134
-57.66689555199512
-61.28023193713283
-64.3076218814374
-67.43266956588083
-66.74906538490883
-69.67879758907453
-71.92492561226825
-71.33897917143511
-74.26871137560083
-76.51483939879454
-76.90547035934996
-77.78439002059967
-77.58907454032196
-79.44457160296025
-80.9094377050431
-80.61646448462653
-81.5930418860151
-82.27664606698711
-84.03448538948653
-85.49935149156939
-85.10872053101396
-89.99160753795681
-93.60494392309452
-92.72602426184481
-100.53864347295338
-106.39810788128482
-112.74586099031052
-118.89829861905852
-117.53109025711451
-121.63271534294651
-124.46478980697337
-123.78118562600137
-121.92568856336308
-120.36316472114137
-115.9685664148928
-112.06225680933852
-112.94117647058823
-102.19882505531396
-93.99557488364995
-95.85107194628824
-82.96025024795911
-73.3897917143511
-64.01464866102083
-54.639505607690545
-56.690318150606544
-44.77607385366598
-35.889219501029984
-37.84237430380713
-21.24055848020142
-8.642710002288853
7.568474860761425
22.998397802700847
19.58037689784085
40.38147554741741
55.81139848935683
52.39337758449683
72.21789883268482
86.8665598535134
99.75738155184253
113.13649195086595
110.10910200656139
123.09758144502938
132.57038223849852
130.42191195544365
139.50408178835735
146.04715037766078
148.29327840085452
151.61364156557565
150.8323796444648
150.93003738460365
150.8323796444648
150.8323796444648
147.90264744029906
145.5588616769665
140.28534370946824
135.69542992294194
136.6720073243305
128.76173037308308
122.8046082246128
124.07415884641794
113.33180743114366
105.12855725947966
96.43701838712138
87.84313725490196
89.69863431754024
78.76096742198825
70.65537499046312
72.41321431296254
62.45212481879911
55.127794308384836
50.04959182116426
44.48310063324941
45.654993514915695
39.600213626306555
35.20561532005799
36.182192721446555
31.201647974364842
27.49065384908827
25.439841306172273
23.096055542839704
23.58434424353399
19.678034637979707
16.650644693675137
17.334248874647134
13.330281528953995
10.400549324788281
7.275501640344854
4.150453955901427
4.834058136873426
-0.04882887006942855
-3.662165255207141
-2.8809033340962844
-7.861448081177996
-11.47478446631571
-16.357671473258563
-21.045242999923705
-19.971007858396277
-24.95155260547799
-28.66254673075456
-27.783627069504846
-32.764171816586554
-36.475165941863125
-40.38147554741741
-44.28778515297169
-43.40886549172198
-46.43625543602655
-48.584725719081405
-48.09643701838712
-51.02616922255284
-53.27229724574655
-54.639505607690545
-56.20202944991226
-55.81139848935683
-56.88563363088426
-57.56923781185626
-57.37392233157855
-58.350499732967116
-59.03410391393912
-60.79194323643854
-62.35446707866026
-61.96383611810483
-63.91699092088197
-65.38185702296482
-64.9912260624094
-66.06546120393683
-66.74906538490883
-68.4092469672694
-69.9717708094911
-69.58113984893568
-71.53429465171283
-72.99916075379568
-72.60852979324025
-73.68276493476768
-74.36636911573969
-73.19447623407339
-72.5108720531014
-72.60852979324025
-69.67879758907453
-67.43266956588083
-67.92095826657511
-60.2059967956054
-54.24887464713512
-43.11589227130541
-33.15480277714199
-35.4009308003357
-17.627222095063708
-4.443427176317998
-7.373159380483711
14.209201190203707
30.420386053253985
47.80346379797055
64.89356832227054
61.08491645685512
81.98367284657053
97.3159380483711
93.8979171435111
110.89036392767224
123.29289692530709
131.0078583962768
139.69939726863507
137.74624246585793
144.77759975585565
149.85580224307623
148.68390936140995
150.73472190432594
152.1995880064088
150.8323796444648
150.1487754634928
150.24643320363165
146.34012359807735
143.3127336537728
143.89868009460594
138.0392156862745
133.5469596398871
125.92965590905622
118.89829861905852
120.46082246128023
111.47631036850538
104.8355840390631
106.30045014114596
96.33936064698253
89.01503013656824
80.03051804379339
71.53429465171283
73.3897917143511
64.40527962157626
57.764553292133975
59.22941939421683
50.24490730144198
43.604180971999696
38.42832074464027
32.86182955672541
34.131380178530556
28.076600289921416
23.682001983672848
24.65857938506142
18.701457236591136
14.306858930342566
9.521629663538567
4.834058136873426
5.908293278400855
-3.7598229953459983
-11.181811245899137
-9.521629663538567
-21.338216220340275
-30.127412832837415
-39.69787136644541
-48.97535667963683
-46.92454413672083
-55.03013656824598
-60.79194323643854
-59.522392614633404
-63.6240177004654
-66.45609216449226
-65.77248798352025
-65.96780346379796
-65.8701457236591
-62.061493858243686
-59.03410391393912
-59.71770809491112
-55.713740749217976
-52.78400854505226
-51.51445792324712
-49.85427634088655
-50.14724956130312
-52.002746623941405
-53.467612726024264
-53.07698176546884
-54.15121690699626
-54.83482108796826
-56.59266041046769
-58.057526512550545
-57.764553292133975
-59.71770809491112
-61.182574196993976
-60.79194323643854
-62.745098039215684
-64.20996414129854
-66.74906538490883
-68.99519340810254
-68.50690470740825
-72.41321431296254
-75.34294651712825
-74.65934233615626
-77.58907454032196
-79.73754482337682
-82.17898832684826
-84.42511635004196
-83.93682764934768
-85.88998245212481
-87.35484855420768
-86.96421759365225
-87.06187533379111
-86.96421759365225
-84.13214312962539
-81.78835736629281
-82.27664606698711
-75.44060425726711
-70.26474402990769
-71.43663691157397
-59.71770809491112
-50.83085374227512
-37.4517433432517
-25.146868085755703
-27.881284809643702
-9.130998702983138
4.736400396734569
1.6113527122911422
20.45929655909056
34.424353398947126
48.48706797894255
62.54978255893797
59.42473487449455
72.5108720531014
81.98367284657053
79.83520256351568
88.81971465629053
95.36278324559396
97.70656900892652
101.02693217364767
100.24567025253681
100.34332799267567
100.34332799267567
100.24567025253681
96.43701838712138
93.40962844281681
88.33142595559625
83.74151216906996
84.71808957045853
75.83123521782254
69.19050888838025
70.65537499046312
59.815365835049974
51.709773403524835
41.065079728389414
31.00633249408713
33.252460517280845
20.263981078812847
10.693522545204852
12.84199282825971
0.9277485313191425
-7.763790341039139
-16.357671473258563
-24.95155260547799
-22.998397802700847
-31.103990234225986
-36.86579690241855
-35.596246280613414
-42.529945830472265
-47.705806057831694
-50.34256504158083
-53.56527046616312
-52.78400854505226
-55.81139848935683
-57.95986877241169
-57.471580071717405
-59.522392614633404
-60.8896009765774
-62.45212481879911
-64.01464866102083
-63.6240177004654
-65.6748302433814
-67.0420386053254
-66.74906538490883
-68.70222018768597
-70.16708628976883
-71.72961013199054
-73.19447623407339
-72.90150301365682
-75.73357747768368
-77.97970550087739
-77.4914168001831
-79.44457160296025
-80.9094377050431
-82.47196154726483
-83.93682764934768
-83.6438544289311
-86.47592889295797
-88.72205691615167
-88.13611047531853
-90.18692301823454
-91.65178912031739
-93.11665522240024
-94.67917906462196
-94.28854810406654
-95.2651255054551
-96.04638742656596
-95.85107194628824
-97.70656900892652
-99.17143511100939
-99.75738155184253
-100.53864347295338
-100.34332799267567
-100.34332799267567
-100.34332799267567
-100.24567025253681
-101.22224765392538
-101.90585183489738
-101.71053635461966
-101.71053635461966
-101.71053635461966
-101.6128786144808
-101.6128786144808
-101.6128786144808
-101.51522087434195
-101.51522087434195
-101.51522087434195
-101.41756313420309
-101.41756313420309
-101.41756313420309
-101.31990539406424
-101.31990539406424
-101.31990539406424
-101.31990539406424
-101.22224765392538
-101.22224765392538
-101.22224765392538
-100.14801251239795
-99.46440833142596
-99.56206607156481
-98.48783093003739
-97.80422674906538
-95.9487296864271
-94.38620584420539
-94.77683680476082
-93.70260166323338
-92.92133974212253
-93.01899748226138
-91.06584267948425
-89.60097657740138
-87.94079499504082
-86.37827115281911
-86.67124437323568
-84.71808957045853
-83.15556572823682
-83.4485389486534
-81.49538414587624
-80.03051804379339
-78.37033646143283
-76.8078126192111
-77.10078583962768
-78.95628290226597
-80.42114900434882
-80.03051804379339
-85.79232471198596
-90.2845807583734
-92.04242008087282
-94.48386358434425
-93.8979171435111
-89.21034561684596
-85.49935149156939
-86.28061341268025
-73.68276493476768
-64.01464866102083
-44.19012741283284
-26.61173418783856
-30.518043793392845
-0.04882887006942855
22.705424582284277
17.627222095063708
51.22148470283055
76.22186617837797
97.3159380483711
119.28892957961395
114.4060425726711
136.4766918440528
152.49256122682536
148.87922484168766
164.89509422446022
176.5163653009842
184.42664225223163
193.1181811245899
191.06736858167392
196.24322880903335
199.7589074540322
198.8799877927825
199.9542229343099
200.6378271152819
197.5127794308385
195.26665140764476
195.75494010833904
189.79781795986878
185.30556191348134
186.2821393148699
178.37186236362248
172.41474021515222
163.13725490196077
154.6410315098802
156.4965285725185
144.58228427557793
135.69542992294194
137.55092698558022
126.61326009002823
118.5076676585031
109.71847104600594
101.12458991378652
102.98008697642481
93.01899748226138
85.6946669718471
87.25719081406882
80.2258335240711
75.04997329671168
70.4600595101854
65.6748302433814
66.74906538490883
62.64744029907683
59.71770809491112
60.30365453574426
55.420767528801406
51.709773403524835
48.68238345922026
45.55733577477684
46.240939955748836
41.26039520866713
37.549401083390556
38.42832074464027
32.471198596169984
28.076600289921416
23.291371023117417
18.60379949645228
19.678034637979707
13.623254749370565
9.228656443121995
10.205233844510566
5.224689097428855
1.6113527122911422
-3.2715342946517127
-7.861448081177996
-6.884870679789426
-12.84199282825971
-17.236591134508277
-16.260013733119706
-21.24055848020142
-24.853894865339132
-27.881284809643702
-31.00633249408713
-30.322728313115128
-34.22903791866941
-37.15877012283513
-36.475165941863125
-40.479133287556266
-43.40886549172198
-45.55733577477684
-47.90112153810941
-47.412832837415124
-49.46364538033112
-50.83085374227512
-50.53788052185855
-52.49103532463569
-53.95590142671855
-55.51842526894026
-57.08094911116198
-56.690318150606544
-58.643472953383686
-60.108339055466544
-59.71770809491112
-60.79194323643854
-61.475547417410546
-62.2568093385214
-63.03807125963226
-62.84275577935454
-63.819333180743115
-64.50293736171511
-64.3076218814374
-64.3076218814374
-64.3076218814374
-65.28419928282597
-65.96780346379796
-65.77248798352025
-65.77248798352025
-65.77248798352025
-65.77248798352025
-65.6748302433814
-65.6748302433814
-65.6748302433814
-65.6748302433814
-65.6748302433814
-65.57717250324254
-65.57717250324254
-65.57717250324254
-65.57717250324254
-65.57717250324254
-65.47951476310368
-65.47951476310368
-65.47951476310368
-65.47951476310368
-65.38185702296482
-65.38185702296482
-65.38185702296482
-65.38185702296482
-62.45212481879911
-60.2059967956054
-60.694285496299685
-55.81139848935683
-52.10040436408026
-52.881666285191116
-45.069047074082555
-39.11192492561227
-27.100022888532845
-16.357671473258563
-18.799114976729992
-2.0019836728465705
10.400549324788281
7.666132600900283
28.27191577019913
43.70183871213855
61.28023193713283
78.37033646143283
74.5616845960174
93.50728618295567
107.37468528267338
104.24963759822995
121.14442664225223
133.5469596398871
142.23849851224537
151.7112993057145
149.56282902265966
156.69184405279623
161.67238879987792
160.50049591821164
163.62554360265506
165.67635614557108
165.1880674448768
165.1880674448768
165.1880674448768
162.25833524071106
160.01220721751736
160.40283817807278
154.54337376974135
150.05111772335394
142.43381399252308
135.40245670252537
136.96498054474708
127.00389105058366
119.58190280003052
121.24208438239108
110.3044174868391
102.19882505531396
92.5307087815671
83.15556572823682
85.20637827115281
71.33897917143511
60.987258716716255
63.33104448004883
48.48706797894255
37.35408560311284
27.392996108949415
17.236591134508277
19.48271915770199
11.377126726176853
5.517662317845426
6.787212939650568
3.662165255207141
1.513694972152285
2.0019836728465705
1.8066681925688564
1.9043259327077133
4.736400396734569
6.982528419928283
6.494239719233997
8.44739452201114
9.912260624093996
8.642710002288853
7.959105821316854
8.154421301594567
2.392614633401999
-2.0019836728465705
-1.0254062714579995
-6.005951018539712
-9.619287403677424
-13.623254749370565
-17.52956435492485
-16.650644693675137
-21.63118944075685
-25.24452582589456
-24.4632639047837
-28.467231250476843
-31.2993057145037
-35.49858854047456
-39.307240405889985
-38.42832074464027
-42.43228809033341
-45.362020294499125
-44.67841611352712
-47.705806057831694
-49.85427634088655
-53.17463950560769
-56.20202944991226
-55.51842526894026
-57.56923781185626
-59.03410391393912
-58.643472953383686
-61.5732051575494
-63.819333180743115
-65.18654154268711
-66.74906538490883
-66.3584344243534
-67.33501182574197
-68.11627374685283
-67.92095826657511
-68.89753566796368
-69.58113984893568
-70.36240177004655
-71.1436636911574
-70.94834821087969
-70.94834821087969
-70.94834821087969
-70.85069047074083
-70.85069047074083
-70.85069047074083
-70.85069047074083
-70.75303273060197
-70.75303273060197
-71.72961013199054
-72.41321431296254
-72.21789883268482
-72.21789883268482
-72.21789883268482
-73.19447623407339
-73.87808041504539
-73.68276493476768
-74.65934233615626
-75.34294651712825
-75.14763103685054
-76.12420843823911
-76.8078126192111
-76.71015487907225
-76.71015487907225
-76.61249713893339
-76.61249713893339
-76.61249713893339
-76.61249713893339
-73.68276493476768
-71.43663691157397
-65.18654154268711
-59.91302357518883
-61.08491645685512
-50.24490730144198
-42.13931486991684
-43.89715419241627
-28.27191577019913
-16.45532921339742
0.9277485313191425
17.041275654230564
13.427939269092851
35.303273060196844
51.416800183108265
47.80346379797055
70.55771725032426
87.45250629434653
101.80819409475852
116.6521705958648
113.33180743114366
129.34767681391622
140.96894789044023
138.33218890669107
148.39093614099338
155.71526665140763
158.74265659571222
162.8442816815442
161.86770428015564
163.91851682307163
165.28572518501565
164.89509422446022
163.03959716182192
161.4770733196002
157.96139467460137
154.83634699015792
155.51995117112992
148.5862516212711
143.41039139391165
144.48462653543908
135.59777218280308
128.9570458533608
119.87487602044709
111.28099488822767
113.13649195086595
101.22224765392538
92.43305104142824
94.38620584420539
82.47196154726483
73.58510719462882
64.9912260624094
56.39734493018997
58.25284199282826
48.291752498664835
40.96742198825055
42.529945830472265
35.49858854047456
30.420386053253985
25.732814526588847
21.045242999923705
22.119478141451133
17.041275654230564
13.427939269092851
14.209201190203707
9.228656443121995
5.615320057984283
1.6113527122911422
-2.197299153124285
-1.3183794918745708
-6.298924238956283
-9.912260624093996
-9.130998702983138
-14.990463111314565
-19.385061417563133
-23.19371328297856
-27.100022888532845
-26.22110322728313
-31.201647974364842
-34.91264209964141
-34.0337224383917
-39.014267185473415
-42.62760357061112
-46.63157091630426
-50.44022278171969
-49.56130312046998
-53.56527046616312
-56.49500267032883
-55.81139848935683
-59.815365835049974
-62.64744029907683
-65.8701457236591
-68.89753566796368
-68.21393148699168
-72.21789883268482
-75.04997329671168
-74.36636911573969
-76.41718165865568
-77.88204776073853
-80.42114900434882
-82.66727702754254
-82.0813305867094
-84.13214312962539
-85.59700923170824
-85.20637827115281
-86.1829556725414
-86.8665598535134
-87.64782177462425
-88.4290836957351
-88.23376821545739
-92.04242008087282
-94.97215228503853
-94.28854810406654
-102.00350957503625
-107.96063172350652
-113.2341496910048
-118.70298313878081
-117.43343251697566
-119.58190280003052
-120.94911116197451
-120.65613794155794
-118.80064087891967
-117.23811703669794
-111.76928358892195
-107.17936980239567
-108.15594720378424
-98.39017318989853
-90.96818493934539
-92.62836652170596
-83.6438544289311
-77.00312809948882
-74.5616845960174
-71.24132143129626
-72.02258335240711
-71.8272678721294
-71.8272678721294
-71.8272678721294
-71.72961013199054
-71.72961013199054
-70.75303273060197
-69.9717708094911
-70.16708628976883
-67.23735408560312
-64.9912260624094
-65.47951476310368
-60.59662775616083
-56.88563363088426
-49.073014419775696
-42.13931486991684
-43.70183871213855
-29.9320973525597
-19.678034637979707
-21.92416266117342
-4.248111696040284
8.935683222705425
26.025787747005417
42.236972610055695
38.62363622491798
60.401312275883114
76.61249713893339
72.99916075379568
91.8471046005951
105.81216144045166
117.92172121766994
130.42191195544365
127.5898374914168
137.74624246585793
144.97291523613336
143.3127336537728
149.36751354238194
153.66445410849164
154.6410315098802
156.20355535210194
155.8129243915465
153.9574273289082
152.3949034866865
152.68787670710307
148.7815671015488
145.75417715724421
138.7228198672465
132.57038223849852
133.93759060044252
124.95307850766766
118.31235217822538
119.77721828030823
108.83955138475623
100.7339589532311
92.92133974212253
85.10872053101396
86.8665598535134
76.90547035934996
69.48348210879682
71.1436636911574
62.15915159838254
55.51842526894026
50.24490730144198
44.77607385366598
45.947966735332265
40.86976424811169
37.256427862973986
38.03768978408484
33.05714503700313
29.346150911726557
26.318760967421987
23.19371328297856
23.87731746395056
19.87335011825742
16.943617914091707
17.627222095063708
13.623254749370565
10.693522545204852
7.568474860761425
4.443427176317998
5.127031357289998
1.1230640115968566
-1.7090104524299992
-1.0254062714579995
-6.005951018539712
-9.619287403677424
-13.623254749370565
-17.52956435492485
-16.650644693675137
-20.654612039368278
-23.58434424353399
-22.90074006256199
-27.783627069504846
-31.494621194781413
-34.424353398947126
-37.64705882352941
-36.86579690241855
-40.86976424811169
-43.79949645227741
-43.11589227130541
-47.0222018768597
-49.951934081025406
-52.19806210421912
-54.54184786755169
-53.95590142671855
-56.006713969634546
-57.471580071717405
-57.08094911116198
-59.03410391393912
-60.49897001602197
-62.061493858243686
-63.6240177004654
-63.233386739909974
-64.3076218814374
-64.9912260624094
-64.79591058213168
-64.79591058213168
-64.79591058213168
-65.6748302433814
-66.45609216449226
-66.26077668421455
-66.26077668421455
-66.26077668421455
-66.26077668421455
-67.13969634546426
-67.82330052643626
-67.7256427862974
-67.7256427862974
-67.62798504615854
-68.60456244754711
-69.28816662851911
-69.0928511482414
-69.19050888838025
-69.0928511482414
-70.06942854962998
-70.75303273060197
-70.55771725032426
-69.67879758907453
-68.89753566796368
-68.99519340810254
-66.06546120393683
-63.819333180743115
-59.522392614633404
-55.713740749217976
-56.59266041046769
-45.85030899519341
-37.74471656366827
-39.5025558861677
-24.756237125200276
-13.720912489509422
3.7598229953459983
19.971007858396277
16.357671473258563
40.08850232700084
57.66689555199512
53.760585946440834
78.46799420157168
96.82764934767681
113.72243839169909
130.91020065613793
127.00389105058366
145.94949263752193
159.81689173723964
156.69184405279623
170.75455863279163
180.9109636072328
188.13763637750822
195.95025558861676
194.19241626611733
199.2706187533379
202.8839551384756
202.0050354772259
204.93476768139163
207.08323796444648
206.49729152361334
206.5949492637522
206.49729152361334
200.73548485542076
196.1455710688945
197.12214847028307
185.4032196536202
176.41870756084535
164.99275196459908
154.05508506904707
156.4965285725185
143.5080491340505
133.83993286030366
135.9884031433585
124.95307850766766
116.84748607614252
110.01144426642253
102.88242923628596
104.44495307850767
99.26909285114824
95.65575646601053
96.33936064698253
91.35881589990082
87.7454795147631
81.78835736629281
76.41718165865568
77.58907454032196
67.7256427862974
60.30365453574426
61.96383611810483
53.95590142671855
48.09643701838712
41.74868390936141
35.49858854047456
36.86579690241855
29.834439612420844
24.65857938506142
25.830472266727703
18.89677271686885
13.720912489509422
8.154421301594567
2.783245593957427
3.9551384756237127
-2.8809033340962844
-8.05676356145571
-6.884870679789426
-12.84199282825971
-17.236591134508277
-21.045242999923705
-24.95155260547799
-24.072632944228275
-30.029755092698558
-34.424353398947126
-33.44777599755856
-38.42832074464027
-42.04165712977798
-46.04562447547112
-49.85427634088655
-48.97535667963683
-53.95590142671855
-57.56923781185626
-56.7879758907454
-60.79194323643854
-63.6240177004654
-67.7256427862974
-71.63195239185168
-70.75303273060197
-73.78042267490653
-75.9288929579614
-75.44060425726711
-79.3469138628214
-82.27664606698711
-84.42511635004196
-86.76890211337454
-86.1829556725414
-89.21034561684596
-91.35881589990082
-90.77286945906768
-92.82368200198367
-94.28854810406654
-94.87449454489968
-95.65575646601053
-95.46044098573282
-97.3159380483711
-98.78080415045396
-98.39017318989853
-99.46440833142596
-100.14801251239795
-101.80819409475852
-103.27306019684139
-102.98008697642481
-103.95666437781338
-104.64026855878538
-104.44495307850767
-105.42153047989623
-106.10513466086825
-107.86297398336767
-109.32784008545052
-108.93720912489509
-109.91378652628366
-110.59739070725567
-110.40207522697796
-111.37865262836652
-112.06225680933852
-112.84351873044938
-113.62478065156023
-113.33180743114366
-113.33180743114366
-113.33180743114366
-113.33180743114366
-114.21072709239338
-114.89433127336538
-114.69901579308767
-114.69901579308767
-114.69901579308767
-114.60135805294881
-114.60135805294881
-114.60135805294881
-114.50370031280995
-114.50370031280995
-114.50370031280995
-114.4060425726711
-114.4060425726711
-114.30838483253224
-114.30838483253224
-114.30838483253224
-113.33180743114366
-112.5505455100328
-112.64820325017166
-112.5505455100328
-112.5505455100328
-111.57396810864424
-110.79270618753338
-110.89036392767224
-109.91378652628366
-109.1325246051728
-109.23018234531166
-109.1325246051728
-109.1325246051728
-108.15594720378424
-107.37468528267338
-107.47234302281224
-105.51918822003509
-104.05432211795224
-103.37071793698024
-102.49179827573053
-102.68711375600824
-101.6128786144808
-100.83161669336995
-101.02693217364767
-99.95269703212024
-99.17143511100939
-98.39017318989853
-97.60891126878766
-97.70656900892652
-96.72999160753795
-95.9487296864271
-96.04638742656596
-95.06981002517739
-94.28854810406654
-92.5307087815671
-90.96818493934539
-91.26115815976196
-90.18692301823454
-89.40566109712367
-89.60097657740138
-87.64782177462425
-86.08529793240254
-85.40169375143053
-84.62043183031967
-84.71808957045853
-82.7649347676814
-81.30006866559853
-81.5930418860151
-80.51880674448768
-79.73754482337682
-77.97970550087739
-76.41718165865568
-76.8078126192111
-74.75700007629511
-73.29213397421225
-73.58510719462882
-71.53429465171283
-70.06942854962998
-68.50690470740825
-66.84672312504769
-67.23735408560312
-64.20996414129854
-62.061493858243686
-62.45212481879911
-55.713740749217976
-50.53788052185855
-40.186160067139696
-31.00633249408713
-33.05714503700313
-14.404516670481422
-0.43945983062485694
-3.5645075150682843
22.803082322423133
42.72526131074998
67.92095826657511
91.8471046005951
86.57358663309682
115.38261997405966
136.57434958419165
131.78912031738764
154.83634699015792
171.63347829404134
185.01258869306477
199.17296101319906
195.95025558861676
212.7473868925002
225.14991989013504
222.3178454261082
236.28290226596476
246.4393072404059
244.09552147707333
244.48615243762876
244.29083695735105
244.29083695735105
244.1931792172122
244.09552147707333
243.99786373693445
243.99786373693445
243.9002059967956
243.80254825665673
243.70489051651788
243.60723277637902
243.60723277637902
243.50957503624016
243.4119172961013
243.31425955596245
243.31425955596245
243.2166018158236
243.11894407568474
235.40398260471503
229.3492027161059
230.61875333791104
216.94666971847104
206.49729152361334
195.36430914778362
184.42664225223163
186.7704280155642
173.78194857709622
164.21149004348823
166.26230258640422
154.25040054932478
145.3635461966888
137.74624246585793
129.8359655146105
131.59380483710993
122.51163500419624
115.87090867475395
117.3357747768368
108.35126268406195
101.71053635461966
95.55809872587167
89.21034561684596
90.57755397878996
81.69069962615396
75.04997329671168
76.51483939879454
67.53032730601969
60.8896009765774
54.7371633478294
48.38941023880369
49.85427634088655
40.86976424811169
34.22903791866941
35.69390402075227
28.66254673075456
23.58434424353399
17.041275654230564
10.888838025482567
12.256046387426567
5.224689097428855
0.14648661020828566
1.2207217517357138
-5.615320057984283
-10.693522545204852
-15.283436331731137
-19.971007858396277
-18.994430457007706
-23.974975204089418
-27.588311589227132
-26.807049668116274
-32.6665140764477
-37.06111238269627
-39.893186846723125
-43.11589227130541
-42.33463035019455
-46.33859769588769
-49.26832990005341
-48.584725719081405
-51.61211566338598
-53.760585946440834
-56.1043717097734
-58.44815747310597
-57.86221103227283
-60.8896009765774
-63.03807125963226
-62.54978255893797
-65.47951476310368
-67.62798504615854
-69.0928511482414
-70.65537499046312
-70.26474402990769
-72.21789883268482
-73.68276493476768
-73.29213397421225
-74.36636911573969
-75.04997329671168
-76.8078126192111
-78.27267872129397
-77.88204776073853
-78.85862516212711
-79.63988708323797
-79.44457160296025
-80.42114900434882
-81.10475318532082
-81.88601510643167
-82.56961928740368
-82.37430380712597
-83.35088120851454
-84.13214312962539
-83.93682764934768
-84.81574731059739
-85.59700923170824
-84.42511635004196
-83.6438544289311
-83.83916990920882
-81.88601510643167
-80.32349126420996
-80.61646448462653
-72.90150301365682
-66.94438086518655
-56.7879758907454
-47.60814831769284
-49.658960860608836
-31.00633249408713
-16.943617914091707
-20.068665598535134
3.36919203479057
21.045242999923705
41.943999389639124
62.15915159838254
57.66689555199512
82.47196154726483
100.83161669336995
96.72999160753795
119.48424505989166
136.37903410391394
148.7815671015488
162.25833524071106
159.13328755626765
172.2194247348745
181.69222552834364
179.4460975051499
187.55168993667505
193.31349660486762
195.75494010833904
198.97764553292134
198.1963836118105
199.2706187533379
199.85656519417105
199.66124971389334
198.68467231250477
197.90341039139392
194.19241626611733
191.06736858167392
191.65331502250706
184.81727321278706
179.54375524528876
180.61799038681622
171.7311360341802
165.09040970473794
156.00823987182423
147.41435873960478
149.2698558022431
135.50011444266423
125.14839398794537
127.39452201113909
113.42946517128252
103.17540245670253
92.04242008087282
81.10475318532082
83.4485389486534
70.55771725032426
60.987258716716255
63.03807125963226
52.10040436408026
43.99481193255512
36.182192721446555
28.369573510337986
30.127412832837415
21.14290074006256
14.50217441062028
15.967040512703136
8.05676356145571
2.0996414129854277
-4.052796215762569
-10.302891584649425
-8.935683222705425
-19.775692378118563
-27.881284809643702
-26.025787747005417
-39.79552910658427
-50.04959182116426
-60.2059967956054
-70.36240177004655
-68.01861600671397
-77.10078583962768
-83.6438544289311
-82.17898832684826
-86.28061341268025
-89.21034561684596
-89.50331883726253
-90.2845807583734
-90.08926527809568
-88.23376821545739
-86.67124437323568
-86.96421759365225
-85.0110627908751
-83.4485389486534
-84.71808957045853
-85.40169375143053
-85.20637827115281
-89.99160753795681
-93.60494392309452
-92.82368200198367
-96.72999160753795
-99.65972381170367
-102.7847714961471
-105.90981918059052
-105.12855725947966
-108.15594720378424
-110.3044174868391
-109.8161287861448
-111.76928358892195
-113.2341496910048
-114.69901579308767
-116.26153963530938
-115.87090867475395
-116.84748607614252
-117.53109025711451
-117.3357747768368
-118.31235217822538
-118.99595635919738
-119.77721828030823
-120.55848020141909
-120.26550698100252
-120.26550698100252
-120.26550698100252
-120.26550698100252
-120.16784924086366
-120.16784924086366
-120.0701915007248
-120.0701915007248
-120.0701915007248
-119.97253376058595
-119.97253376058595
-119.87487602044709
-119.87487602044709
-119.87487602044709
-119.77721828030823
-119.77721828030823
-119.77721828030823
-118.70298313878081
-117.92172121766994
-118.11703669794767
-116.06622415503166
-114.60135805294881
-111.08567940794995
-107.96063172350652
-108.64423590447852
-99.85503929198138
-93.2143129625391
-94.5815213244831
-80.9094377050431
-70.55771725032426
-53.760585946440834
-38.33066300450141
-41.74868390936141
-17.13893339436942
1.2207217517357138
-2.783245593957427
23.779659723811704
43.604180971999696
64.01464866102083
84.3274586099031
79.73754482337682
103.66369115739681
121.24208438239108
117.23811703669794
135.3047989623865
148.39093614099338
157.8637369344625
168.1177996490425
165.77401388570993
174.85618371862364
181.30159456778821
179.83672846570533
183.93835355153735
186.7704280155642
187.94232089723047
189.5048447394522
189.11421377889678
188.13763637750822
187.35637445639733
187.4540321965362
184.5242999923705
182.18051422903793
176.90699626153963
172.31708247501336
173.29365987640193
165.3833829251545
159.42626077668422
160.69581139848935
149.85580224307623
141.65255207141223
131.0078583962768
120.94911116197451
123.09758144502938
108.2536049439231
97.21828030823224
99.65972381170367
85.6946669718471
75.34294651712825
65.18654154268711
55.03013656824598
57.27626459143969
45.26436255436027
36.475165941863125
38.42832074464027
29.443808651865414
22.803082322423133
15.674067292286564
8.642710002288853
10.205233844510566
3.1738765545128556
-1.8066681925688564
-0.7324330510414282
-8.642710002288853
-14.50217441062028
-19.87335011825742
-25.342183566033416
-24.072632944228275
-30.127412832837415
-34.52201113908598
-33.545433737697415
-40.38147554741741
-45.55733577477684
-51.02616922255284
-56.49500267032883
-55.22545204852369
-61.28023193713283
-65.57717250324254
-64.60059510185397
-69.58113984893568
-73.19447623407339
-78.07736324101626
-82.7649347676814
-81.69069962615396
-85.6946669718471
-88.62439917601282
-87.94079499504082
-91.8471046005951
-94.77683680476082
-97.90188448920424
-101.02693217364767
-100.24567025253681
-103.27306019684139
-105.42153047989623
-104.8355840390631
-106.8863965819791
-108.2536049439231
-108.93720912489509
-109.71847104600594
-109.42549782558937
-111.37865262836652
-112.84351873044938
-112.45288776989395
-113.42946517128252
-114.11306935225453
-114.89433127336538
-115.67559319447624
-115.38261997405966
-115.38261997405966
-115.38261997405966
-115.38261997405966
-116.26153963530938
-116.94514381628137
-117.72640573739223
-118.5076676585031
-118.21469443808652
-119.19127183947509
-119.87487602044709
-119.67956054016938
-119.67956054016938
-119.67956054016938
-118.70298313878081
-117.92172121766994
-118.01937895780881
-119.87487602044709
-121.33974212252994
-120.94911116197451
-122.90226596475166
-124.26947432669566
-122.02334630350195
-120.55848020141909
-120.85145342183566
-109.32784008545052
-100.34332799267567
-102.29648279545282
-81.78835736629281
-66.26077668421455
-42.04165712977798
-19.678034637979707
-24.65857938506142
7.861448081177996
32.08056763561456
26.709391927977418
57.471580071717405
80.2258335240711
97.12062256809338
115.28496223392081
111.18333714808881
125.44136720836194
135.59777218280308
133.25398641947052
142.33615625238423
148.87922484168766
152.10193026626993
156.1058976119631
155.22697795071335
157.27779049362937
158.64499885557336
158.25436789501794
158.25436789501794
158.25436789501794
154.34805828946364
151.32066834515908
151.90661478599222
146.04715037766078
141.55489433127337
142.53147173266194
132.66803997863738
125.24605172808423
116.35919737544823
107.76531624322881
109.62081330586709
95.85107194628824
85.49935149156939
87.7454795147631
73.87808041504539
63.526359960326545
53.36995498588541
43.21355001144427
45.45967803463798
34.424353398947126
26.416418707560844
28.174258030060273
18.21316853589685
10.888838025482567
5.810635538261997
0.24414435034714274
1.513694972152285
-5.322346837567712
-10.498207064927138
-9.326314183260854
-15.283436331731137
-19.678034637979707
-23.48668650339513
-27.392996108949415
-26.514076447699704
-32.471198596169984
-36.86579690241855
-35.889219501029984
-40.86976424811169
-44.48310063324941
-49.365987640192266
-54.053559166857404
-52.97932402532997
-58.936446173800256
-63.33104448004883
-62.35446707866026
-67.23735408560312
-70.94834821087969
-74.85465781643397
-78.76096742198825
-77.88204776073853
-82.7649347676814
-86.47592889295797
-85.59700923170824
-89.60097657740138
-92.43305104142824
-95.55809872587167
-98.6831464103151
-97.99954222934309
-100.92927443350881
-103.07774471656367
-102.58945601586939
-105.51918822003509
-107.66765850308995
-109.1325246051728
-110.69504844739453
-110.3044174868391
-111.28099488822767
-111.96459906919966
-111.76928358892195
-112.74586099031052
-113.42946517128252
-114.11306935225453
-114.89433127336538
-114.69901579308767
-114.69901579308767
-114.69901579308767
-114.60135805294881
-114.60135805294881
-114.50370031280995
-114.50370031280995
-114.50370031280995
-114.4060425726711
-114.4060425726711
-114.4060425726711
-114.30838483253224
-114.30838483253224
-114.21072709239338
-113.2341496910048
-112.45288776989395
-112.64820325017166
-112.5505455100328
-112.5505455100328
-112.45288776989395
-111.47631036850538
-110.69504844739453
-109.91378652628366
-109.03486686503395
-109.23018234531166
-108.15594720378424
-107.37468528267338
-107.5700007629511
-105.61684596017395
-104.05432211795224
-103.37071793698024
-102.58945601586939
-102.68711375600824
-101.71053635461966
-100.92927443350881
-101.02693217364767
-99.07377737087053
-97.51125352864881
-96.92530708781567
-96.04638742656596
-96.24170290684367
-93.31197070267795
-91.06584267948425
-91.45647364003968
-85.59700923170824
-81.20241092545967
-72.60852979324025
-64.89356832227054
-66.55374990463112
-51.90508888380255
-40.772106507972836
-43.21355001144427
-22.60776684214542
-7.177843900205997
14.11154345006485
34.22903791866941
29.736781872281988
56.49500267032883
76.31952391851682
71.92492561226825
97.60891126878766
116.74982833600366
132.47272449835967
148.97688258182652
145.26588845654993
161.2817578393225
173.00068665598536
170.26626993209734
180.32501716639965
187.6493476768139
190.6767376211185
194.68070496681162
193.8017853055619
195.75494010833904
197.21980621042192
196.8291752498665
195.8525978484779
195.07133592736704
191.3603418020905
188.23529411764707
188.8212405584802
182.96177615014878
178.46952010376134
179.34843976501105
170.46158541237506
163.82085908293277
154.73868925001906
146.2424658579385
148.00030518043792
136.08606088349737
127.29686427100023
129.1523613336385
116.26153963530938
106.69108110170139
98.29251544975968
89.60097657740138
91.45647364003968
82.47196154726483
75.83123521782254
77.29610131990539
68.31158922713054
61.67086289768826
56.49500267032883
50.928511482413974
52.10040436408026
46.14328221560998
41.74868390936141
42.72526131074998
35.79156176089113
30.615701533531702
26.025787747005417
21.338216220340275
22.314793621728846
15.381094071869994
10.302891584649425
11.377126726176853
3.466849774929427
-2.2949568932631417
-7.666132600900283
-13.13496604867628
-11.963073167009995
-18.89677271686885
-23.974975204089418
-22.90074006256199
-28.857862211032273
-33.252460517280845
-37.94003204394598
-42.62760357061112
-41.5533684290837
-47.51049057755398
-51.90508888380255
-50.928511482413974
-54.932478828107115
-57.86221103227283
-60.987258716716255
-64.11230640115969
-63.33104448004883
-66.3584344243534
-68.50690470740825
-68.01861600671397
-70.94834821087969
-73.19447623407339
-74.5616845960174
-76.12420843823911
-75.73357747768368
-76.8078126192111
-77.4914168001831
-77.29610131990539
-79.15159838254368
-80.61646448462653
-81.20241092545967
-82.0813305867094
-81.78835736629281
-82.7649347676814
-83.54619668879225
-83.35088120851454
-84.3274586099031
-85.0110627908751
-84.81574731059739
-84.81574731059739
-84.81574731059739
-85.6946669718471
-86.37827115281911
-86.1829556725414
-87.15953307392996
-87.94079499504082
-87.7454795147631
-87.7454795147631
-87.64782177462425
-88.62439917601282
-89.30800335698481
-89.1126878767071
-89.1126878767071
-89.1126878767071
-89.99160753795681
-90.77286945906768
-90.57755397878996
-90.57755397878996
-90.47989623865111
-90.47989623865111
-89.50331883726253
-88.72205691615167
-87.94079499504082
-87.15953307392996
-87.25719081406882
-86.28061341268025
-85.49935149156939
-85.59700923170824
-82.66727702754254
-80.42114900434882
-76.12420843823911
-72.31555657282368
-73.09681849393453
-65.28419928282597
-59.32707713435569
-60.694285496299685
-46.92454413672083
-36.67048142214084
-21.728847180895706
-7.861448081177996
-10.888838025482567
10.693522545204852
26.807049668116274
23.291371023117417
47.90112153810941
66.26077668421455
84.13214312962539
102.1011673151751
98.09719996948196
118.01937895780881
132.66803997863738
129.34767681391622
145.26588845654993
156.9848172732128
163.82085908293277
171.82879377431905
169.97329671168077
177.0046540016785
182.08285648889907
180.9109636072328
183.93835355153735
186.0868238345922
185.50087739375905
185.5985351338979
185.50087739375905
182.57114518959335
180.2273594262608
180.71564812695507
175.73510337987335
172.0241092545968
165.1880674448768
158.93797207598993
160.30518043793393
149.4651712825208
141.2619211108568
143.01976043335623
130.22659647516593
120.55848020141909
110.20675974670024
100.0503547722591
102.29648279545282
89.40566109712367
79.83520256351568
81.88601510643167
70.85069047074083
62.84275577935454
55.03013656824598
47.21751735713741
48.877698939497975
40.86976424811169
35.010299839780274
36.27985046158541
29.346150911726557
24.17029068436713
19.58037689784085
14.892805371175708
15.869382772564279
9.912260624093996
5.517662317845426
6.494239719233997
0.537117570763714
-3.7598229953459983
-8.545052262149996
-13.13496604867628
-12.158388647287708
-17.13893339436942
-20.752269779507134
-19.971007858396277
-25.830472266727703
-30.22507057297627
-35.010299839780274
-39.69787136644541
-38.62363622491798
-44.580758373388264
-48.97535667963683
-47.998779278248264
-53.85824368657969
-58.25284199282826
-62.061493858243686
-65.96780346379796
-65.08888380254825
-70.06942854962998
-73.68276493476768
-72.80384527351796
-77.78439002059967
-81.39772640573739
-84.42511635004196
-87.55016403448539
-86.76890211337454
-88.81971465629053
-90.2845807583734
-89.89394979781795
-92.82368200198367
-94.97215228503853
-95.46044098573282
-96.24170290684367
-96.04638742656596
-97.02296482795452
-97.70656900892652
-97.51125352864881
-98.48783093003739
-99.17143511100939
-98.97611963073167
-98.97611963073167
-98.97611963073167
-99.85503929198138
-100.53864347295338
-100.34332799267567
-99.46440833142596
-98.6831464103151
-98.78080415045396
-98.6831464103151
-98.6831464103151
-98.6831464103151
-98.58548867017625
-98.58548867017625
-97.60891126878766
-96.82764934767681
-96.04638742656596
-95.16746776531625
-95.36278324559396
-95.2651255054551
-95.2651255054551
-95.2651255054551
-95.16746776531625
-95.16746776531625
-94.19089036392768
-93.40962844281681
-93.50728618295567
-93.50728618295567
-93.50728618295567
-93.40962844281681
-91.45647364003968
-89.99160753795681
-87.45250629434653
-85.10872053101396
-85.59700923170824
-77.78439002059967
-71.8272678721294
-73.09681849393453
-61.37788967727169
-52.49103532463569
-37.256427862973986
-23.48668650339513
-26.514076447699704
-3.8574807354848555
12.939650568398566
9.228656443121995
35.79156176089113
55.61608300907912
76.02655069810025
96.33936064698253
91.74944686045625
115.67559319447624
133.25398641947052
129.25001907377737
149.17219806210423
163.82085908293277
173.87960631723507
184.9149309529259
182.37582970931564
192.4345769436179
199.66124971389334
198.00106813153278
204.05584802014192
208.35278858625162
209.23170824750133
210.8918898298619
210.4036011291676
209.42702372777904
208.6457618066682
208.74341954680705
204.83710994125278
201.8097199969482
196.63385976958878
191.94628824292363
192.9228656443122
183.1570916304265
175.73510337987335
177.29762722209506
165.3833829251545
156.4965285725185
145.07057297627222
134.2305638208591
136.57434958419165
121.63271534294651
110.59739070725567
113.03883421072709
98.09719996948196
87.06187533379111
76.12420843823911
65.18654154268711
67.53032730601969
55.51842526894026
46.72922865644312
48.68238345922026
38.72129396505684
31.2993057145037
24.365606164644845
17.334248874647134
18.89677271686885
11.865415426871138
6.6895551995117115
7.861448081177996
0.9277485313191425
-4.150453955901427
-8.74036774242771
-13.427939269092851
-12.353704127565424
-18.310826276035705
-22.705424582284277
-21.728847180895706
-27.68596932936599
-32.08056763561456
-36.86579690241855
-41.45571068894484
-40.479133287556266
-46.33859769588769
-50.73319600213626
-49.75661860074769
-54.7371633478294
-58.44815747310597
-63.33104448004883
-67.92095826657511
-66.84672312504769
-71.8272678721294
-75.44060425726711
-74.65934233615626
-79.54222934309911
-83.25322346837568
-87.15953307392996
-91.06584267948425
-90.08926527809568
-94.09323262378882
-97.02296482795452
-96.33936064698253
-99.26909285114824
-101.51522087434195
-102.88242923628596
-104.44495307850767
-104.05432211795224
-106.00747692072939
-107.47234302281224
-107.08171206225681
-108.05828946364538
-108.74189364461738
-109.52315556572823
-110.20675974670024
-110.01144426642253
-110.9880216678111
-111.6716258487831
-111.47631036850538
-111.47631036850538
-111.47631036850538
-112.35523002975509
-113.13649195086595
-112.84351873044938
-112.84351873044938
-112.84351873044938
-112.84351873044938
-112.74586099031052
-112.74586099031052
-112.74586099031052
-112.64820325017166
-112.64820325017166
-111.6716258487831
-110.89036392767224
-110.9880216678111
-109.03486686503395
-107.47234302281224
-102.98008697642481
-99.17143511100939
-100.0503547722591
-92.14007782101167
-86.28061341268025
-87.55016403448539
-74.75700007629511
-65.18654154268711
-50.14724956130312
-36.27985046158541
-39.307240405889985
-18.60379949645228
-3.076218814373999
-6.591897459372854
15.088120851453422
31.2993057145037
48.68238345922026
65.77248798352025
61.96383611810483
80.9094377050431
94.87449454489968
91.74944686045625
106.69108110170139
117.62874799725337
124.75776302738994
132.66803997863738
130.81254291599907
137.8439002059968
142.92210269321737
141.7502098115511
144.8752574959945
146.9260700389105
146.4377813382162
146.4377813382162
146.4377813382162
144.48462653543908
142.92210269321737
143.21507591363394
138.33218890669107
134.62119478141452
127.68749523155566
121.53505760280765
122.90226596475166
112.06225680933852
103.95666437781338
105.7145037003128
91.8471046005951
81.49538414587624
70.4600595101854
59.522392614633404
61.96383611810483
47.998779278248264
37.74471656366827
39.99084458686198
27.97894254978256
19.18974593728542
10.595864805065995
2.0019836728465705
3.9551384756237127
-3.076218814373999
-8.154421301594567
-7.080186160067139
-14.013885709925994
-19.092088197146563
-22.705424582284277
-26.709391927977418
-25.830472266727703
-30.71335927367056
-34.424353398947126
-33.64309147783627
-37.549401083390556
-40.479133287556266
-44.580758373388264
-48.48706797894255
-47.60814831769284
-51.61211566338598
-54.44419012741283
-53.85824368657969
-57.764553292133975
-60.694285496299685
-63.819333180743115
-66.94438086518655
-66.26077668421455
-69.19050888838025
-71.33897917143511
-70.85069047074083
-74.75700007629511
-77.68673228046082
-80.81177996490425
-83.93682764934768
-83.25322346837568
-86.1829556725414
-88.33142595559625
-87.84313725490196
-90.77286945906768
-93.01899748226138
-95.36278324559396
-97.60891126878766
-97.12062256809338
-99.07377737087053
-100.53864347295338
-100.14801251239795
-102.1011673151751
-103.56603341725796
-105.12855725947966
-106.59342336156253
-106.2027924010071
-107.17936980239567
-107.96063172350652
-107.76531624322881
-108.64423590447852
-109.42549782558937
-109.23018234531166
-109.23018234531166
-109.1325246051728
-109.1325246051728
-109.03486686503395
-109.03486686503395
-108.05828946364538
-107.27702754253453
-107.37468528267338
-107.37468528267338
-107.27702754253453
-105.32387273975738
-103.85900663767453
-104.1519798580911
-103.07774471656367
-102.29648279545282
-101.51522087434195
-100.7339589532311
-100.83161669336995
-98.87846189059282
-97.3159380483711
-97.60891126878766
-96.53467612726024
-95.85107194628824
-94.09323262378882
-92.5307087815671
-92.82368200198367
-91.74944686045625
-90.96818493934539
-91.1635004196231
-89.1126878767071
-87.64782177462425
-86.96421759365225
-86.1829556725414
-86.28061341268025
-85.30403601129167
-84.52277409018082
-84.62043183031967
-83.6438544289311
-82.86259250782025
-81.10475318532082
-79.54222934309911
-79.83520256351568
-74.95231555657283
-71.24132143129626
-72.12024109254597
-65.18654154268711
-60.01068131532769
-48.68238345922026
-38.818951705195694
-40.96742198825055
-23.291371023117417
-10.009918364232853
-12.939650568398566
10.498207064927138
28.174258030060273
49.951934081025406
70.94834821087969
66.26077668421455
93.01899748226138
112.84351873044938
108.35126268406195
132.27740901808195
149.75814450293737
164.0161745632105
178.86015106431677
175.53978789959564
189.60250247959107
199.7589074540322
197.41512169069964
205.52071412222477
211.28252079041732
213.72396429388877
216.94666971847104
216.06775005722133
216.1654077973602
216.06775005722133
216.06775005722133
213.13801785305563
210.79423208972304
205.52071412222477
200.83314259555962
201.8097199969482
192.9228656443122
186.2821393148699
187.6493476768139
175.8327611200122
166.94590676737621
156.39887083237966
146.34012359807735
148.48859388113223
134.62119478141452
124.26947432669566
126.51560234988938
113.52712291142137
103.95666437781338
94.5815213244831
85.20637827115281
87.25719081406882
77.19844357976653
69.87411306935225
71.43663691157397
63.42870222018769
57.56923781185626
51.22148470283055
44.97138933394369
46.33859769588769
40.28381780727855
35.889219501029984
36.86579690241855
30.908674753948272
26.514076447699704
21.728847180895706
17.041275654230564
18.11551079575799
12.060730907148852
7.666132600900283
8.642710002288853
2.68558785381857
-1.6113527122911422
-6.298924238956283
-10.986495765621424
-10.009918364232853
-15.967040512703136
-20.361638818951704
-19.287403677424276
-25.24452582589456
-29.63912413214313
-33.44777599755856
-37.35408560311284
-36.475165941863125
-41.45571068894484
-45.069047074082555
-44.28778515297169
-49.17067215991455
-52.881666285191116
-56.7879758907454
-60.694285496299685
-59.815365835049974
-63.819333180743115
-66.74906538490883
-66.06546120393683
-69.9717708094911
-72.90150301365682
-75.04997329671168
-77.39375906004425
-76.90547035934996
-78.85862516212711
-80.32349126420996
-79.93286030365454
-81.88601510643167
-83.35088120851454
-83.93682764934768
-84.71808957045853
-84.52277409018082
-86.47592889295797
-87.94079499504082
-87.55016403448539
-87.64782177462425
-87.55016403448539
-88.52674143587396
-89.21034561684596
-89.01503013656824
-89.01503013656824
-89.01503013656824
-88.91737239642939
-88.91737239642939
-88.91737239642939
-87.94079499504082
-87.15953307392996
-87.25719081406882
-87.25719081406882
-87.25719081406882
-87.15953307392996
-86.1829556725414
-85.40169375143053
-85.59700923170824
-85.49935149156939
-85.49935149156939
-85.49935149156939
-85.40169375143053
-85.40169375143053
-85.40169375143053
-85.30403601129167
-85.30403601129167
-85.30403601129167
-85.30403601129167
-85.20637827115281
-85.20637827115281
-85.20637827115281
-84.22980086976425
-83.4485389486534
-80.71412222476539
-78.46799420157168
-78.85862516212711
-73.97573815518425
-70.26474402990769
-71.04600595101854
-62.2568093385214
-55.61608300907912
-43.70183871213855
-32.95948729686427
-35.303273060196844
-15.674067292286564
-0.9277485313191425
-4.248111696040284
18.310826276035705
35.20561532005799
55.32310978866255
74.75700007629511
70.36240177004655
94.28854810406654
111.86694132906081
107.86297398336767
127.78515297169452
142.43381399252308
154.4457160296025
166.94590676737621
164.11383230334937
175.1491569390402
183.1570916304265
181.30159456778821
188.33295185778593
193.41115434500648
195.07133592736704
197.5127794308385
196.8291752498665
196.92683299000535
196.8291752498665
196.73151750972764
193.8017853055619
191.5556572823682
186.2821393148699
181.59456778820478
182.57114518959335
174.66086823834593
168.70374608987564
169.97329671168077
159.13328755626765
151.0276951247425
140.28534370946824
130.22659647516593
132.47272449835967
118.5076676585031
108.15594720378424
110.40207522697796
96.53467612726024
86.1829556725414
76.12420843823911
65.8701457236591
68.11627374685283
58.057526512550545
50.73319600213626
52.295719844357976
43.40886549172198
36.768139162279695
31.494621194781413
26.025787747005417
27.1976806286717
20.263981078812847
15.088120851453422
16.260013733119706
10.205233844510566
5.810635538261997
2.0019836728465705
-1.8066681925688564
-0.9277485313191425
-6.787212939650568
-11.279468986037996
-10.302891584649425
-15.283436331731137
-18.89677271686885
-23.779659723811704
-28.467231250476843
-27.392996108949415
-32.37354085603113
-36.0845349813077
-35.20561532005799
-41.16273746852827
-45.55733577477684
-49.26832990005341
-53.17463950560769
-52.295719844357976
-57.27626459143969
-60.8896009765774
-60.108339055466544
-64.9912260624094
-68.70222018768597
-72.60852979324025
-76.51483939879454
-75.63591973754482
-79.54222934309911
-82.47196154726483
-81.78835736629281
-84.81574731059739
-86.96421759365225
-89.30800335698481
-91.65178912031739
-91.06584267948425
-93.11665522240024
-94.48386358434425
-94.19089036392768
-96.14404516670481
-97.51125352864881
-98.09719996948196
-98.87846189059282
-98.6831464103151
-98.6831464103151
-98.6831464103151
-98.6831464103151
-98.58548867017625
-98.58548867017625
-99.46440833142596
-100.24567025253681
-100.0503547722591
-100.0503547722591
-99.95269703212024
-99.95269703212024
-102.7847714961471
-105.0308995193408
-110.20675974670024
-114.69901579308767
-113.62478065156023
-118.60532539864195
-122.21866178377967
-121.4373998626688
-123.4882124055848
-124.8554207675288
-122.6092927443351
-121.14442664225223
-121.4373998626688
-116.55451285572595
-112.84351873044938
-113.62478065156023
-105.7145037003128
-99.75738155184253
-93.40962844281681
-87.15953307392996
-88.52674143587396
-83.4485389486534
-79.73754482337682
-80.51880674448768
-76.51483939879454
-73.58510719462882
-68.50690470740825
-63.819333180743115
-64.89356832227054
-53.17463950560769
-44.28778515297169
-46.240939955748836
-29.541466392004274
-17.041275654230564
2.0996414129854277
19.775692378118563
15.869382772564279
40.57679102769512
58.936446173800256
54.83482108796826
79.54222934309911
97.90188448920424
114.79667353322652
131.98443579766536
128.17578393224994
146.14480811779964
159.32860303654536
156.3012130922408
170.26626993209734
180.4226749065385
185.79385061417562
192.14160372320134
190.6767376211185
194.77836270695047
197.61043717097735
196.8291752498665
197.90341039139392
198.58701457236592
197.41512169069964
196.63385976958878
196.73151750972764
192.82520790417334
189.79781795986878
190.38376440070192
183.45006485084306
178.27420462348363
170.75455863279163
163.7232013427939
165.28572518501565
154.34805828946364
146.2424658579385
148.00030518043792
136.08606088349737
127.19920653086137
115.77325093461509
104.93324177920195
107.27702754253453
94.28854810406654
84.71808957045853
86.76890211337454
74.85465781643397
66.06546120393683
57.471580071717405
48.877698939497975
50.73319600213626
41.74868390936141
35.10795757991913
36.57282368200198
28.564888990615703
22.705424582284277
18.310826276035705
13.525597009231708
14.599832150759136
7.666132600900283
2.490272373540856
3.662165255207141
-2.197299153124285
-6.591897459372854
-11.377126726176853
-16.064698252841993
-14.990463111314565
-20.947585259784848
-25.342183566033416
-24.365606164644845
-30.322728313115128
-34.717326619363696
-39.40489814602884
-44.09246967269398
-43.018234531166556
-48.09643701838712
-51.709773403524835
-50.83085374227512
-55.81139848935683
-59.42473487449455
-63.42870222018769
-67.23735408560312
-66.3584344243534
-71.33897917143511
-74.95231555657283
-74.17105363546197
-78.07736324101626
-81.00709544518196
-83.25322346837568
-85.59700923170824
-85.0110627908751
-88.91737239642939
-91.8471046005951
-91.1635004196231
-93.2143129625391
-94.5815213244831
-97.12062256809338
-99.3667505912871
-98.87846189059282
-99.85503929198138
-100.53864347295338
-100.34332799267567
-101.31990539406424
-102.00350957503625
-102.7847714961471
-103.56603341725796
-103.37071793698024
-104.24963759822995
-105.0308995193408
-104.8355840390631
-104.8355840390631
-104.73792629892424
-105.7145037003128
-106.39810788128482
-106.2027924010071
-106.2027924010071
-106.10513466086825
-106.10513466086825
-106.10513466086825
-106.00747692072939
-105.0308995193408
-104.24963759822995
-104.44495307850767
-104.34729533836881
-104.34729533836881
-104.24963759822995
-104.24963759822995
-104.24963759822995
-104.1519798580911
-104.1519798580911
-104.1519798580911
-103.17540245670253
-102.39414053559167
-102.49179827573053
-102.39414053559167
-102.39414053559167
-101.41756313420309
-100.63630121309224
-100.7339589532311
-98.78080415045396
-97.3159380483711
-97.60891126878766
-94.5815213244831
-92.33539330128939
-86.1829556725414
-80.81177996490425
-81.98367284657053
-72.12024109254597
-64.79591058213168
-66.3584344243534
-50.73319600213626
-38.91660944533455
-22.412451361867703
-6.982528419928283
-10.400549324788281
12.256046387426567
29.150835431448844
25.342183566033416
49.073014419775696
66.74906538490883
82.86259250782025
99.26909285114824
95.55809872587167
111.6716258487831
123.29289692530709
120.65613794155794
132.66803997863738
141.45723659113452
147.02372777904935
153.37148088807507
151.90661478599222
155.03166247043563
157.1801327534905
156.59418631265737
157.6684214541848
158.3520256351568
156.20355535210194
154.73868925001906
154.93400473029678
150.05111772335394
146.34012359807735
147.1213855191882
140.18768596932938
135.01182574196994
126.51560234988938
118.80064087891967
120.46082246128023
109.62081330586709
101.41756313420309
103.17540245670253
91.35881589990082
82.47196154726483
73.87808041504539
65.28419928282597
67.13969634546426
58.1551842526894
51.51445792324712
52.97932402532997
44.97138933394369
39.11192492561227
34.717326619363696
29.9320973525597
31.00633249408713
25.92813000686656
22.314793621728846
23.096055542839704
19.092088197146563
16.16235599298085
12.939650568398566
9.81460288395514
10.595864805065995
6.591897459372854
3.662165255207141
4.248111696040284
-0.537117570763714
-4.248111696040284
-8.154421301594567
-12.060730907148852
-11.181811245899137
-15.185778591592278
-18.11551079575799
-17.43190661478599
-22.412451361867703
-26.025787747005417
-29.053177691309987
-32.178225375753414
-31.494621194781413
-36.37750820172427
-40.08850232700084
-39.20958266575113
-43.21355001144427
-46.14328221560998
-49.26832990005341
-52.39337758449683
-51.709773403524835
-54.639505607690545
-56.88563363088426
-56.39734493018997
-59.32707713435569
-61.475547417410546
-62.9404135194934
-64.50293736171511
-64.11230640115969
-66.06546120393683
-67.53032730601969
-67.13969634546426
-69.0928511482414
-70.55771725032426
-71.1436636911574
-71.92492561226825
-71.72961013199054
-72.70618753337911
-73.48744945448996
-73.29213397421225
-74.26871137560083
-74.95231555657283
-74.75700007629511
-74.75700007629511
-74.75700007629511
-75.63591973754482
-76.41718165865568
-76.22186617837797
-76.22186617837797
-76.22186617837797
-76.12420843823911
-76.12420843823911
-76.12420843823911
-76.12420843823911
-76.02655069810025
-76.02655069810025
-76.02655069810025
-76.02655069810025
-75.04997329671168
-74.26871137560083
-74.36636911573969
-74.36636911573969
-74.26871137560083
-74.26871137560083
-73.29213397421225
-72.5108720531014
-72.70618753337911
-72.60852979324025
-72.60852979324025
-71.63195239185168
-70.85069047074083
-71.04600595101854
-70.94834821087969
-70.94834821087969
-69.9717708094911
-69.19050888838025
-69.38582436865796
-67.33501182574197
-65.8701457236591
-66.16311894407569
-63.233386739909974
-60.987258716716255
-54.7371633478294
-49.46364538033112
-50.635538261997404
-38.91660944533455
-30.029755092698558
-31.9829098954757
-16.260013733119706
-4.443427176317998
12.84199282825971
29.053177691309987
25.439841306172273
48.19409475852598
65.08888380254825
61.28023193713283
83.15556572823682
99.26909285114824
115.67559319447624
131.98443579766536
128.37109941252766
143.41039139391165
154.34805828946364
151.90661478599222
162.8442816815442
170.85221637293049
175.73510337987335
181.20393682764936
179.9343862058442
182.08285648889907
