ppg
-128.85938811322194
-132.1797512779431
-131.39848935683221
-131.49614709697107
-131.39848935683221
-131.39848935683221
-127.49217975127794
-124.46478980697337
-118.41000991836424
-113.03883421072709
-114.21072709239338
-107.17936980239567
-102.00350957503625
-103.17540245670253
-100.0503547722591
-97.80422674906538
-99.17143511100939
-99.85503929198138
-99.65972381170367
-100.63630121309224
-101.31990539406424
-101.12458991378652
-101.12458991378652
-101.02693217364767
-102.00350957503625
-102.68711375600824
-102.49179827573053
-102.49179827573053
-102.49179827573053
-102.49179827573053
-101.41756313420309
-100.63630121309224
-95.06981002517739
-90.57755397878996
-91.55413138017853
-81.78835736629281
-74.36636911573969
-75.9288929579614
-59.32707713435569
-46.72922865644312
-28.564888990615703
-11.572442206454566
-15.381094071869994
11.181811245899137
31.00633249408713
26.61173418783856
55.22545204852369
76.61249713893339
96.6323338673991
116.94514381628137
112.45288776989395
134.32822156099795
150.44174868390937
146.82841229877164
163.82085908293277
176.22339208056763
183.8406958113985
192.62989242389563
190.57907988097963
196.73151750972764
201.02845807583734
199.9542229343099
202.0050354772259
203.3722438391699
202.10269321736476
201.3214312962539
201.41908903639276
198.48935683222706
196.1455710688945
196.63385976958878
190.6767376211185
186.18448157473105
177.59060044251163
169.87563897154192
171.53582055390248
160.5981536583505
152.49256122682536
154.25040054932478
140.3830014496071
130.03128099488822
118.89829861905852
107.96063172350652
110.40207522697796
95.46044098573282
84.42511635004196
86.8665598535134
73.87808041504539
64.3076218814374
55.90905622949569
47.21751735713741
49.17067215991455
39.20958266575113
31.787594415197987
33.44777599755856
24.4632639047837
17.920195315480278
11.670099946593423
5.420004577706569
6.787212939650568
-0.04882887006942855
-5.224689097428855
-4.052796215762569
-10.986495765621424
-16.16235599298085
-22.60776684214542
-28.857862211032273
-27.392996108949415
-34.424353398947126
-39.5025558861677
-38.42832074464027
-45.26436255436027
-50.44022278171969
-56.88563363088426
-63.03807125963226
-61.67086289768826
-67.7256427862974
-72.12024109254597
-71.04600595101854
-77.97970550087739
-83.05790798809797
-87.64782177462425
-92.33539330128939
-91.26115815976196
-96.24170290684367
-99.85503929198138
-98.97611963073167
-102.98008697642481
-105.90981918059052
-109.03486686503395
-112.06225680933852
-111.37865262836652
-113.42946517128252
-114.79667353322652
-114.4060425726711
-116.35919737544823
-117.82406347753108
-118.41000991836424
-119.19127183947509
-118.99595635919738
-118.99595635919738
-118.89829861905852
-118.89829861905852
-119.77721828030823
-120.55848020141909
-120.26550698100252
-120.26550698100252
-120.26550698100252
-120.26550698100252
-120.16784924086366
-120.16784924086366
-120.0701915007248
-120.0701915007248
-120.0701915007248
-119.97253376058595
-119.97253376058595
-118.99595635919738
-118.21469443808652
-118.31235217822538
-116.35919737544823
-114.79667353322652
-111.28099488822767
-108.2536049439231
-108.83955138475623
-101.02693217364767
-95.06981002517739
-96.33936064698253
-83.6438544289311
-74.07339589532312
-57.95986877241169
-43.40886549172198
-46.63157091630426
-23.974975204089418
-6.982528419928283
-10.79118028534371
13.81857022964828
32.178225375753414
51.02616922255284
69.77645532921339
65.57717250324254
86.47592889295797
101.90585183489738
98.39017318989853
115.38261997405966
127.78515297169452
135.50011444266423
144.28931105516136
142.23849851224537
148.39093614099338
152.68787670710307
151.61364156557565
153.7621118486305
155.1293202105745
153.7621118486305
153.0785076676585
153.17616540779736
149.2698558022431
146.2424658579385
146.9260700389105
139.99237048905164
134.81651026169223
126.32028686961166
118.60532539864195
120.26550698100252
108.44892042420081
99.56206607156481
101.51522087434195
87.64782177462425
77.29610131990539
67.23735408560312
56.983291371023114
59.22941939421683
46.33859769588769
36.768139162279695
38.91660944533455
28.857862211032273
21.533531700617992
14.50217441062028
7.470817120622568
9.033340962844282
2.9785610742351416
-1.3183794918745708
-0.34180209048599985
-5.322346837567712
-9.033340962844282
-12.939650568398566
-16.84596017395285
-15.967040512703136
-19.971007858396277
-22.90074006256199
-22.21713588158999
-27.100022888532845
-30.811017013809415
-34.717326619363696
-38.62363622491798
-37.74471656366827
-42.72526131074998
-46.33859769588769
-45.55733577477684
-50.44022278171969
-54.15121690699626
-58.057526512550545
-61.96383611810483
-61.08491645685512
-66.06546120393683
-69.67879758907453
-68.79987792782482
-73.78042267490653
-77.39375906004425
-81.30006866559853
-85.20637827115281
-84.3274586099031
-88.33142595559625
-91.1635004196231
-90.57755397878996
-94.48386358434425
-97.41359578850995
-100.53864347295338
-103.56603341725796
-102.88242923628596
-105.81216144045166
-108.05828946364538
-107.47234302281224
-110.40207522697796
-112.64820325017166
-114.89433127336538
-117.23811703669794
-116.6521705958648
-118.70298313878081
-120.0701915007248
-119.77721828030823
-120.7537956816968
-121.4373998626688
-121.24208438239108
-121.24208438239108
-121.14442664225223
-120.16784924086366
-119.3865873197528
-119.48424505989166
-115.57793545433738
-112.64820325017166
-107.5700007629511
-102.88242923628596
-103.85900663767453
-92.14007782101167
-83.25322346837568
-85.20637827115281
-69.48348210879682
-57.66689555199512
-39.307240405889985
-22.314793621728846
-26.123445487144274
-1.416037232013428
16.943617914091707
12.84199282825971
37.549401083390556
55.90905622949569
73.78042267490653
91.74944686045625
87.7454795147631
105.81216144045166
118.89829861905852
115.9685664148928
127.98046845197223
136.76966506446936
142.43381399252308
148.68390936140995
147.21904325932707
149.4651712825208
150.8323796444648
150.44174868390937
149.56282902265966
148.68390936140995
144.09399557488365
140.28534370946824
141.0666056305791
133.15632867933166
127.19920653086137
128.4687571526665
117.72640573739223
109.52315556572823
97.90188448920424
87.15953307392996
89.50331883726253
75.53826199740597
65.28419928282597
67.53032730601969
54.54184786755169
45.069047074082555
35.69390402075227
26.318760967421987
28.369573510337986
18.310826276035705
10.986495765621424
12.646677347981994
5.615320057984283
0.43945983062485694
-4.052796215762569
-8.74036774242771
-7.666132600900283
-11.767757686732281
-14.697489890897993
-14.013885709925994
-17.920195315480278
-20.84992751964599
-24.072632944228275
-27.1976806286717
-26.416418707560844
-30.420386053253985
-33.3501182574197
-32.6665140764477
-36.67048142214084
-39.600213626306555
-43.70183871213855
-47.51049057755398
-46.63157091630426
-50.635538261997404
-53.56527046616312
-52.881666285191116
-57.764553292133975
-61.475547417410546
-64.40527962157626
-67.53032730601969
-66.84672312504769
-70.75303273060197
-73.68276493476768
-72.99916075379568
-77.00312809948882
-79.83520256351568
-83.05790798809797
-86.08529793240254
-85.40169375143053
-88.4290836957351
-90.57755397878996
-89.99160753795681
-93.01899748226138
-95.16746776531625
-97.51125352864881
-99.75738155184253
-99.26909285114824
-102.19882505531396
-104.34729533836881
-103.85900663767453
-105.81216144045166
-107.27702754253453
-108.83955138475623
-110.3044174868391
-109.91378652628366
-110.9880216678111
-111.6716258487831
-111.47631036850538
-111.47631036850538
-111.37865262836652
-110.40207522697796
-109.62081330586709
-109.8161287861448
-107.76531624322881
-106.30045014114596
-106.59342336156253
-100.7339589532311
-96.24170290684367
-88.62439917601282
-81.69069962615396
-83.25322346837568
-69.48348210879682
-59.13176165407798
-61.37788967727169
-42.72526131074998
-28.760204470893417
-10.79118028534371
6.103608758678568
2.2949568932631417
25.146868085755703
42.04165712977798
38.23300526436255
58.1551842526894
72.80384527351796
84.81574731059739
97.41359578850995
94.5815213244831
105.61684596017395
113.62478065156023
111.76928358892195
117.92172121766994
122.21866178377967
122.21866178377967
123.09758144502938
122.8046082246128
120.94911116197451
119.3865873197528
119.67956054016938
113.82009613183794
109.42549782558937
101.71053635461966
94.77683680476082
96.33936064698253
85.40169375143053
77.29610131990539
79.05394064240483
67.23735408560312
58.350499732967116
47.90112153810941
37.84237430380713
39.99084458686198
29.053177691309987
20.947585259784848
22.705424582284277
12.74433508812085
5.420004577706569
0.43945983062485694
-5.0293736171511405
-3.8574807354848555
-8.838025482566568
-12.549019607843137
-11.670099946593423
-14.795147631036851
-16.943617914091707
-19.287403677424276
-21.63118944075685
-21.14290074006256
-23.096055542839704
-24.560921644922562
-24.267948424505988
-27.1976806286717
-29.346150911726557
-30.811017013809415
-32.37354085603113
-31.9829098954757
-34.0337224383917
-35.4009308003357
-35.10795757991913
-37.06111238269627
-38.525978484779124
-40.08850232700084
-41.651026169222554
-41.26039520866713
-42.33463035019455
-43.018234531166556
-42.822919050888835
-42.92057679102769
-42.822919050888835
-43.79949645227741
-44.48310063324941
-44.38544289311055
-45.362020294499125
-46.04562447547112
-45.85030899519341
-47.80346379797055
-49.26832990005341
-50.83085374227512
-52.39337758449683
-52.002746623941405
-53.95590142671855
-55.420767528801406
-55.127794308384836
-57.95986877241169
-60.2059967956054
-62.54978255893797
-64.89356832227054
-64.3076218814374
-66.3584344243534
-67.7256427862974
-67.43266956588083
-69.38582436865796
-70.85069047074083
-72.41321431296254
-73.87808041504539
-73.58510719462882
-74.5616845960174
-75.2452887769894
-75.04997329671168
-75.04997329671168
-75.04997329671168
-76.02655069810025
-76.71015487907225
-76.51483939879454
-76.51483939879454
-76.51483939879454
-76.51483939879454
-76.41718165865568
-76.41718165865568
-77.39375906004425
-78.07736324101626
-77.88204776073853
-77.88204776073853
-77.88204776073853
-77.88204776073853
-78.76096742198825
-79.54222934309911
-79.3469138628214
-79.3469138628214
-79.24925612268254
-78.27267872129397
-77.58907454032196
-77.68673228046082
-77.58907454032196
-77.58907454032196
-77.58907454032196
-77.58907454032196
-77.4914168001831
-76.51483939879454
-75.83123521782254
-75.9288929579614
-74.95231555657283
-74.17105363546197
-72.41321431296254
-70.85069047074083
-71.1436636911574
-67.23735408560312
-64.3076218814374
-64.89356832227054
-56.1043717097734
-49.46364538033112
-37.549401083390556
-26.807049668116274
-29.2484931715877
-9.619287403677424
5.0293736171511405
1.8066681925688564
27.295338368810558
46.43625543602655
69.87411306935225
92.33539330128939
87.35484855420768
114.21072709239338
133.93759060044252
129.54299229419394
153.37148088807507
170.94987411306934
183.1570916304265
196.63385976958878
193.6064698252842
204.64179446097506
212.64972915236135
210.79423208972304
215.87243457694362
219.38811322194246
219.48577096208132
220.36469062333106
220.0717174029145
216.26306553749905
213.2356755931945
213.82162203402763
207.86449988555734
203.3722438391699
195.65728236820019
188.72358281834136
190.1884489204242
178.37186236362248
169.4850080109865
171.34050507362477
159.42626077668422
150.53940642404822
139.11345082780193
128.2734416723888
130.61722743572136
118.60532539864195
109.71847104600594
111.6716258487831
100.63630121309224
92.5307087815671
84.81574731059739
76.90547035934996
78.6633096818494
70.65537499046312
64.69825284199283
65.96780346379796
59.03410391393912
53.85824368657969
49.26832990005341
44.580758373388264
45.55733577477684
38.62363622491798
33.44777599755856
34.61966887922484
27.68596932936599
22.510109102006563
16.943617914091707
11.47478446631571
12.74433508812085
5.810635538261997
0.6347753109025711
1.8066681925688564
-5.0293736171511405
-10.205233844510566
-15.771725032425422
-21.24055848020142
-19.971007858396277
-26.90470740825513
-32.08056763561456
-30.908674753948272
-36.86579690241855
-41.26039520866713
-46.92454413672083
-52.39337758449683
-51.123826962691695
-56.20202944991226
-59.815365835049974
-58.936446173800256
-63.91699092088197
-67.53032730601969
-70.55771725032426
-73.68276493476768
-72.90150301365682
-76.90547035934996
-79.83520256351568
-79.15159838254368
-81.20241092545967
-82.56961928740368
-85.10872053101396
-87.35484855420768
-86.8665598535134
-88.81971465629053
-90.2845807583734
-89.89394979781795
-90.87052719920653
-91.65178912031739
-92.33539330128939
-93.11665522240024
-92.92133974212253
-93.8979171435111
-94.5815213244831
-94.38620584420539
-94.38620584420539
-94.38620584420539
-94.28854810406654
-94.28854810406654
-94.28854810406654
-94.28854810406654
-94.19089036392768
-94.19089036392768
-93.2143129625391
-92.43305104142824
-91.65178912031739
-90.77286945906768
-90.96818493934539
-90.87052719920653
-90.87052719920653
-90.87052719920653
-89.89394979781795
-89.1126878767071
-88.23376821545739
-87.45250629434653
-87.55016403448539
-87.55016403448539
-87.55016403448539
-87.45250629434653
-87.45250629434653
-87.45250629434653
-86.47592889295797
-85.6946669718471
-85.79232471198596
-81.88601510643167
-78.95628290226597
-79.54222934309911
-73.68276493476768
-69.19050888838025
-57.764553292133975
-47.90112153810941
-50.04959182116426
-32.37354085603113
-19.092088197146563
-22.021820401312276
0.43945983062485694
17.43190661478599
38.42832074464027
58.54581521324483
54.053559166857404
80.81177996490425
100.63630121309224
96.24170290684367
119.09361409933624
135.9884031433585
149.36751354238194
163.5278858625162
160.30518043793393
172.41474021515222
181.1062790875105
179.05546654459448
186.18448157473105
191.16502632181277
192.82520790417334
195.26665140764476
194.68070496681162
193.8017853055619
192.9228656443122
193.02052338445105
189.11421377889678
186.0868238345922
181.00862134737164
176.3210498207065
177.29762722209506
167.4341954680705
160.01220721751736
161.67238879987792
150.73472190432594
142.53147173266194
131.8867780575265
121.82803082322422
123.97650110627909
110.10910200656139
99.75738155184253
102.00350957503625
90.08926527809568
81.20241092545967
72.70618753337911
64.01464866102083
65.96780346379796
55.90905622949569
48.584725719081405
50.14724956130312
43.11589227130541
38.03768978408484
32.471198596169984
27.002365148393988
28.174258030060273
22.21713588158999
17.82253757534142
18.701457236591136
12.84199282825971
8.349736781872283
3.662165255207141
-0.9277485313191425
0.04882887006942855
-6.787212939650568
-11.963073167009995
-10.79118028534371
-17.724879835202564
-22.90074006256199
-27.49065384908827
-32.178225375753414
-31.103990234225986
-38.03768978408484
-43.11589227130541
-41.943999389639124
-47.998779278248264
-52.295719844357976
-56.1043717097734
-60.01068131532769
-59.13176165407798
-64.11230640115969
-67.7256427862974
-66.94438086518655
-71.8272678721294
-75.44060425726711
-78.46799420157168
-81.5930418860151
-80.9094377050431
-84.81574731059739
-87.7454795147631
-87.06187533379111
-89.99160753795681
-92.23773556115053
-93.60494392309452
-95.16746776531625
-94.77683680476082
-96.72999160753795
-98.19485770962082
-97.80422674906538
-98.78080415045396
-99.46440833142596
-100.24567025253681
-101.02693217364767
-100.83161669336995
-101.80819409475852
-102.49179827573053
-102.29648279545282
-102.29648279545282
-102.19882505531396
-101.22224765392538
-100.44098573281453
-100.63630121309224
-100.53864347295338
-100.53864347295338
-100.44098573281453
-99.46440833142596
-98.6831464103151
-98.87846189059282
-98.78080415045396
-98.78080415045396
-97.80422674906538
-97.02296482795452
-97.12062256809338
-96.14404516670481
-95.36278324559396
-95.46044098573282
-95.46044098573282
-95.36278324559396
-93.40962844281681
-91.94476234073396
-92.23773556115053
-89.30800335698481
-87.06187533379111
-81.78835736629281
-77.19844357976653
-78.17502098115511
-66.45609216449226
-57.56923781185626
-59.522392614633404
-42.822919050888835
-30.322728313115128
-10.205233844510566
8.154421301594567
4.052796215762569
30.71335927367056
50.635538261997404
46.14328221560998
74.85465781643397
96.14404516670481
115.18730449378195
134.81651026169223
130.42191195544365
151.41832608529793
166.7505912870985
163.23491264209963
177.29762722209506
187.4540321965362
193.70412756542305
200.83314259555962
199.17296101319906
203.27458609903104
206.10666056305791
205.42305638208592
205.52071412222477
205.42305638208592
202.4933241779202
200.24719615472648
200.6378271152819
194.77836270695047
190.28610666056306
191.16502632181277
182.27817196917678
175.6374456397345
166.5552758068208
157.96139467460137
159.81689173723964
146.9260700389105
137.3556115053025
139.4064240482185
125.5390249485008
115.18730449378195
104.05432211795224
93.11665522240024
95.55809872587167
82.56961928740368
72.99916075379568
75.04997329671168
63.13572899977112
54.346532387273975
46.72922865644312
38.818951705195694
40.57679102769512
32.56885633630884
26.709391927977418
27.97894254978256
20.947585259784848
15.869382772564279
11.279468986037996
6.494239719233997
7.568474860761425
1.6113527122911422
-2.68558785381857
-1.7090104524299992
-8.642710002288853
-13.720912489509422
-18.310826276035705
-22.998397802700847
-22.021820401312276
-27.97894254978256
-32.37354085603113
-31.2993057145037
-38.23300526436255
-43.40886549172198
-47.90112153810941
-52.6863508049134
-51.61211566338598
-56.59266041046769
-60.2059967956054
-59.42473487449455
-64.3076218814374
-67.92095826657511
-71.92492561226825
-75.73357747768368
-74.85465781643397
-78.85862516212711
-81.78835736629281
-81.10475318532082
-84.03448538948653
-86.28061341268025
-88.62439917601282
-90.87052719920653
-90.38223849851225
-93.31197070267795
-95.46044098573282
-94.97215228503853
-96.92530708781567
-98.39017318989853
-98.97611963073167
-99.75738155184253
-99.56206607156481
-100.53864347295338
-101.22224765392538
-101.02693217364767
-101.02693217364767
-101.02693217364767
-100.92927443350881
-100.92927443350881
-100.92927443350881
-99.95269703212024
-99.17143511100939
-99.26909285114824
-99.17143511100939
-99.17143511100939
-98.19485770962082
-97.41359578850995
-97.51125352864881
-96.53467612726024
-95.75341420614939
-95.85107194628824
-95.85107194628824
-95.85107194628824
-95.75341420614939
-95.75341420614939
-95.75341420614939
-94.77683680476082
-93.99557488364995
-94.09323262378882
-93.99557488364995
-93.99557488364995
-93.01899748226138
-92.23773556115053
-92.43305104142824
-89.50331883726253
-87.25719081406882
-87.64782177462425
-81.78835736629281
-77.39375906004425
-68.79987792782482
-61.08491645685512
-62.745098039215684
-47.11985961699855
-35.303273060196844
-37.94003204394598
-17.236591134508277
-1.8066681925688564
17.627222095063708
36.182192721446555
31.9829098954757
56.7879758907454
75.14763103685054
71.04600595101854
93.8979171435111
110.69504844739453
125.05073624780651
139.99237048905164
136.6720073243305
148.7815671015488
157.47310597390708
155.51995117112992
163.5278858625162
169.28969253070878
170.85221637293049
173.29365987640193
172.7077134355688
171.7311360341802
170.94987411306934
171.0475318532082
167.14122224765393
164.11383230334937
159.0356298161288
154.34805828946364
155.3246356908522
146.4377813382162
139.79705500877392
141.2619211108568
130.3242542153048
122.21866178377967
111.57396810864424
101.51522087434195
103.66369115739681
90.77286945906768
81.20241092545967
83.25322346837568
70.36240177004655
60.79194323643854
52.39337758449683
43.70183871213855
45.654993514915695
36.57282368200198
30.029755092698558
31.494621194781413
24.4632639047837
19.287403677424276
14.697489890897993
10.009918364232853
11.08415350576028
6.005951018539712
2.392614633401999
3.1738765545128556
-1.7090104524299992
-5.322346837567712
-9.326314183260854
-13.232623788815136
-12.353704127565424
-17.334248874647134
-20.947585259784848
-20.16632333867399
-25.049210345616846
-28.760204470893417
-32.6665140764477
-36.57282368200198
-35.69390402075227
-40.67444876783398
-44.28778515297169
-43.50652323186084
-48.38941023880369
-52.10040436408026
-56.006713969634546
-59.91302357518883
-59.03410391393912
-63.03807125963226
-65.8701457236591
-65.28419928282597
-69.19050888838025
-72.12024109254597
-75.2452887769894
-78.37033646143283
-77.58907454032196
-81.5930418860151
-84.52277409018082
-83.83916990920882
-85.79232471198596
-87.25719081406882
-89.7962920576791
-92.04242008087282
-91.45647364003968
-92.5307087815671
-93.2143129625391
-93.01899748226138
-93.01899748226138
-93.01899748226138
-93.01899748226138
-92.92133974212253
-92.92133974212253
-92.92133974212253
-92.82368200198367
-92.82368200198367
-91.8471046005951
-91.06584267948425
-90.2845807583734
-89.50331883726253
-89.60097657740138
-89.50331883726253
-89.50331883726253
-89.50331883726253
-89.50331883726253
-89.40566109712367
-89.40566109712367
-89.40566109712367
-89.30800335698481
-89.30800335698481
-89.30800335698481
-89.21034561684596
-89.21034561684596
-89.21034561684596
-88.23376821545739
-87.45250629434653
-87.55016403448539
-83.74151216906996
-80.71412222476539
-81.30006866559853
-75.44060425726711
-71.04600595101854
-61.475547417410546
-53.07698176546884
-54.932478828107115
-39.20958266575113
-27.392996108949415
-30.029755092698558
-9.326314183260854
6.005951018539712
25.439841306172273
44.09246967269398
39.893186846723125
64.69825284199283
83.05790798809797
78.95628290226597
100.83161669336995
116.94514381628137
129.54299229419394
142.92210269321737
139.89471274891278
151.90661478599222
160.69581139848935
158.64499885557336
165.77401388570993
170.75455863279163
172.41474021515222
174.85618371862364
174.2702372777905
174.36789501792936
174.2702372777905
174.17257953765164
171.34050507362477
168.9967193102922
163.7232013427939
159.13328755626765
160.1098649576562
152.1995880064088
146.2424658579385
147.51201647974364
136.6720073243305
128.4687571526665
118.80064087891967
109.42549782558937
111.47631036850538
98.58548867017625
89.01503013656824
91.06584267948425
78.17502098115511
68.60456244754711
59.22941939421683
49.85427634088655
51.90508888380255
42.822919050888835
36.27985046158541
37.74471656366827
29.736781872281988
23.87731746395056
18.506141756313422
12.939650568398566
14.209201190203707
8.154421301594567
3.7598229953459983
4.736400396734569
-0.14648661020828566
-3.7598229953459983
-8.74036774242771
-13.330281528953995
-12.353704127565424
-17.334248874647134
-20.947585259784848
-20.16632333867399
-26.025787747005417
-30.420386053253985
-34.22903791866941
-38.1353475242237
-37.256427862973986
-42.236972610055695
-45.85030899519341
-45.069047074082555
-50.928511482413974
-55.32310978866255
-61.96383611810483
-68.11627374685283
-66.74906538490883
-77.4914168001831
-85.59700923170824
-83.74151216906996
-93.70260166323338
-101.02693217364767
-104.1519798580911
-108.15594720378424
-107.17936980239567
-108.35126268406195
-109.03486686503395
-108.83955138475623
-106.8863965819791
-105.32387273975738
-98.97611963073167
-93.70260166323338
-94.77683680476082
-88.81971465629053
-84.42511635004196
-85.30403601129167
-83.15556572823682
-81.69069962615396
-83.93682764934768
-85.30403601129167
-85.0110627908751
-85.98764019226367
-86.67124437323568
-86.47592889295797
-87.45250629434653
-88.13611047531853
-87.94079499504082
-87.94079499504082
-87.94079499504082
-86.96421759365225
-86.1829556725414
-86.28061341268025
-84.3274586099031
-82.86259250782025
-79.3469138628214
-76.22186617837797
-76.90547035934996
-69.0928511482414
-63.13572899977112
-64.50293736171511
-51.709773403524835
-42.13931486991684
-28.95551995117113
-16.650644693675137
-19.385061417563133
-0.6347753109025711
13.330281528953995
10.205233844510566
28.95551995117113
42.92057679102769
57.95986877241169
72.70618753337911
69.48348210879682
83.54619668879225
93.70260166323338
91.45647364003968
102.39414053559167
110.40207522697796
114.30838483253224
119.19127183947509
118.01937895780881
120.16784924086366
121.53505760280765
121.14442664225223
120.26550698100252
119.48424505989166
115.77325093461509
112.74586099031052
113.33180743114366
106.49576562142367
101.31990539406424
102.39414053559167
92.5307087815671
85.20637827115281
75.34294651712825
66.06546120393683
68.11627374685283
56.1043717097734
47.31517509727627
49.26832990005341
37.35408560311284
28.564888990615703
19.971007858396277
11.377126726176853
13.232623788815136
5.224689097428855
-0.537117570763714
0.6347753109025711
-5.224689097428855
-9.619287403677424
-13.427939269092851
-17.334248874647134
-16.45532921339742
-20.45929655909056
-23.389028763256274
-22.803082322423133
-25.732814526588847
-27.97894254978256
-30.322728313115128
-32.6665140764477
-32.08056763561456
-36.0845349813077
-39.014267185473415
-38.33066300450141
-41.358052948805984
-43.50652323186084
-46.826886396581976
-49.85427634088655
-49.17067215991455
-52.19806210421912
-54.346532387273975
-53.85824368657969
-57.764553292133975
-60.694285496299685
-62.84275577935454
-65.18654154268711
-64.69825284199283
-67.62798504615854
-69.77645532921339
-69.28816662851911
-72.21789883268482
-74.46402685587854
-75.83123521782254
-77.39375906004425
-77.00312809948882
-78.95628290226597
-80.42114900434882
-80.12817578393225
-82.0813305867094
-83.4485389486534
-85.0110627908751
-86.57358663309682
-86.1829556725414
-88.13611047531853
-89.60097657740138
-89.21034561684596
-90.2845807583734
-90.96818493934539
-91.74944686045625
-92.43305104142824
-92.23773556115053
-92.23773556115053
-92.23773556115053
-92.23773556115053
-91.26115815976196
-90.47989623865111
-88.62439917601282
-87.15953307392996
-87.45250629434653
-82.56961928740368
-78.85862516212711
-79.63988708323797
-72.70618753337911
-67.53032730601969
-57.27626459143969
-47.998779278248264
-50.04959182116426
-33.3501182574197
-20.84992751964599
-23.58434424353399
-2.9785610742351416
12.45136186770428
30.908674753948272
48.78004119935912
44.77607385366598
65.6748302433814
81.10475318532082
77.68673228046082
95.55809872587167
108.74189364461738
118.21469443808652
128.4687571526665
126.12497138933395
134.2305638208591
139.99237048905164
138.62516212710764
142.72678721293966
145.5588616769665
144.8752574959945
144.97291523613336
144.8752574959945
142.04318303196766
139.69939726863507
140.18768596932938
134.32822156099795
129.8359655146105
123.09758144502938
116.94514381628137
118.31235217822538
108.35126268406195
101.02693217364767
102.58945601586939
89.7962920576791
80.2258335240711
69.87411306935225
59.71770809491112
61.96383611810483
49.951934081025406
41.16273746852827
43.11589227130541
32.178225375753414
24.072632944228275
18.21316853589685
11.865415426871138
13.330281528953995
6.298924238956283
1.1230640115968566
2.2949568932631417
-2.5879301136797133
-6.298924238956283
-10.205233844510566
-14.11154345006485
-13.232623788815136
-17.236591134508277
-20.16632333867399
-19.58037689784085
-24.4632639047837
-28.076600289921416
-32.08056763561456
-35.98687724116884
-35.10795757991913
-39.11192492561227
-41.943999389639124
-41.358052948805984
-46.240939955748836
-49.85427634088655
-52.881666285191116
-56.006713969634546
-55.32310978866255
-59.22941939421683
-62.15915159838254
-61.475547417410546
-66.3584344243534
-70.06942854962998
-72.12024109254597
-74.46402685587854
-73.87808041504539
-77.78439002059967
-80.71412222476539
-80.03051804379339
-83.05790798809797
-85.20637827115281
-87.55016403448539
-89.89394979781795
-89.30800335698481
-91.35881589990082
-92.72602426184481
-92.43305104142824
-94.38620584420539
-95.75341420614939
-96.43701838712138
-97.21828030823224
-96.92530708781567
-97.90188448920424
-98.6831464103151
-98.48783093003739
-99.3667505912871
-100.14801251239795
-99.95269703212024
-99.95269703212024
-99.85503929198138
-99.85503929198138
-99.85503929198138
-99.75738155184253
-99.75738155184253
-99.75738155184253
-99.65972381170367
-99.65972381170367
-99.65972381170367
-99.56206607156481
-99.56206607156481
-99.56206607156481
-99.46440833142596
-99.46440833142596
-98.48783093003739
-97.70656900892652
-97.80422674906538
-96.82764934767681
-96.04638742656596
-96.14404516670481
-95.16746776531625
-94.38620584420539
-93.60494392309452
-92.72602426184481
-92.92133974212253
-90.96818493934539
-89.40566109712367
-89.69863431754024
-88.72205691615167
-87.94079499504082
-88.03845273517967
-88.03845273517967
-87.94079499504082
-86.96421759365225
-86.1829556725414
-86.37827115281911
-85.30403601129167
-84.62043183031967
-83.74151216906996
-82.96025024795911
-83.05790798809797
-80.12817578393225
-77.97970550087739
-78.37033646143283
-73.48744945448996
-69.77645532921339
-60.987258716716255
-53.36995498588541
-55.03013656824598
-40.38147554741741
-29.2484931715877
-31.787594415197987
-11.181811245899137
4.248111696040284
25.63515678644999
45.654993514915695
41.26039520866713
68.89753566796368
89.50331883726253
84.91340505073624
109.71847104600594
128.07812619211109
143.9963378347448
160.40283817807278
156.69184405279623
170.85221637293049
181.00862134737164
178.66483558403905
187.74700541695276
194.19241626611733
195.55962462806133
198.09872587167163
197.41512169069964
196.53620202944992
195.65728236820019
195.8525978484779
190.96971084153506
187.16105897611962
181.30159456778821
175.8327611200122
177.0046540016785
167.14122224765393
159.7192339971008
161.2817578393225
149.36751354238194
140.48065918974595
131.0078583962768
121.63271534294651
123.58587014572366
111.6716258487831
102.7847714961471
104.73792629892424
93.80025940337224
85.6946669718471
79.83520256351568
73.48744945448996
74.85465781643397
67.82330052643626
62.64744029907683
63.819333180743115
58.74113069352254
55.03013656824598
52.002746623941405
48.877698939497975
49.56130312046998
44.580758373388264
40.86976424811169
41.74868390936141
36.768139162279695
33.05714503700313
29.053177691309987
25.24452582589456
26.025787747005417
21.045242999923705
17.43190661478599
18.21316853589685
12.256046387426567
7.861448081177996
3.1738765545128556
-1.416037232013428
-0.43945983062485694
-6.39658197909514
-10.79118028534371
-9.81460288395514
-14.795147631036851
-18.40848401617456
-23.389028763256274
-27.97894254978256
-26.90470740825513
-31.00633249408713
-33.838406958113985
-33.252460517280845
-38.1353475242237
-41.84634164950027
-43.79949645227741
-46.240939955748836
-45.654993514915695
-49.56130312046998
-52.49103532463569
-51.90508888380255
-53.85824368657969
-55.32310978866255
-56.88563363088426
-58.44815747310597
-58.057526512550545
-59.13176165407798
-59.815365835049974
-59.62005035477226
-61.5732051575494
-63.03807125963226
-63.6240177004654
-64.40527962157626
-64.20996414129854
-65.18654154268711
-65.8701457236591
-65.6748302433814
-66.65140764476998
-67.43266956588083
-67.23735408560312
-67.23735408560312
-67.23735408560312
-67.13969634546426
-67.13969634546426
-67.13969634546426
-67.13969634546426
-67.0420386053254
-67.0420386053254
-67.0420386053254
-67.0420386053254
-67.0420386053254
-66.94438086518655
-66.94438086518655
-66.94438086518655
-66.94438086518655
-66.94438086518655
-66.84672312504769
-66.84672312504769
-67.82330052643626
-68.50690470740825
-68.31158922713054
-67.43266956588083
-66.65140764476998
-66.74906538490883
-66.74906538490883
-66.65140764476998
-63.819333180743115
-61.5732051575494
-62.061493858243686
-56.20202944991226
-51.709773403524835
-42.236972610055695
-33.838406958113985
-35.596246280613414
-19.971007858396277
-8.154421301594567
-10.79118028534371
10.693522545204852
26.90470740825513
47.21751735713741
66.55374990463112
62.2568093385214
87.94079499504082
107.08171206225681
102.7847714961471
126.61326009002823
144.1916533150225
158.3520256351568
173.29365987640193
169.87563897154192
183.93835355153735
194.09475852597848
191.75097276264592
201.8097199969482
209.03639276722362
212.0637827115282
216.06775005722133
215.09117265583276
216.26306553749905
216.8490119783322
216.65369649805447
215.6771190966659
214.7981994354162
210.11062790875104
206.30197604333563
207.08323796444648
201.1261158159762
196.63385976958878
197.61043717097735
187.74700541695276
180.32501716639965
171.34050507362477
162.8442816815442
164.60212100404365
150.8323796444648
140.48065918974595
142.72678721293966
129.73830777447165
120.16784924086366
109.8161287861448
99.65972381170367
101.90585183489738
89.89394979781795
81.10475318532082
82.96025024795911
72.99916075379568
65.6748302433814
59.62005035477226
53.27229724574655
54.639505607690545
46.72922865644312
40.772106507972836
42.13931486991684
35.10795757991913
30.029755092698558
24.4632639047837
18.994430457007706
20.16632333867399
13.232623788815136
8.05676356145571
9.228656443121995
3.2715342946517127
-1.0254062714579995
-6.787212939650568
-12.158388647287708
-10.986495765621424
-17.920195315480278
-23.096055542839704
-21.92416266117342
-27.881284809643702
-32.27588311589227
-37.06111238269627
-41.651026169222554
-40.67444876783398
-46.533913176165406
-50.928511482413974
-49.951934081025406
-55.90905622949569
-60.30365453574426
-64.11230640115969
-68.01861600671397
-67.0420386053254
-71.04600595101854
-73.97573815518425
-73.29213397421225
-77.19844357976653
-80.12817578393225
-82.37430380712597
-84.71808957045853
-84.13214312962539
-87.06187533379111
-89.30800335698481
-88.72205691615167
-90.77286945906768
-92.14007782101167
-93.70260166323338
-95.2651255054551
-94.87449454489968
-96.82764934767681
-98.29251544975968
-97.90188448920424
-97.99954222934309
-97.90188448920424
-98.87846189059282
-99.56206607156481
-99.3667505912871
-99.3667505912871
-99.3667505912871
-99.26909285114824
-99.26909285114824
-99.26909285114824
-99.17143511100939
-99.17143511100939
-99.17143511100939
-99.07377737087053
-99.07377737087053
-99.07377737087053
-98.97611963073167
-98.97611963073167
-98.97611963073167
-98.87846189059282
-98.87846189059282
-97.90188448920424
-97.12062256809338
-97.21828030823224
-96.24170290684367
-95.46044098573282
-92.72602426184481
-90.47989623865111
-90.96818493934539
-83.15556572823682
-77.19844357976653
-78.46799420157168
-66.74906538490883
-57.86221103227283
-41.651026169222554
-27.100022888532845
-30.322728313115128
-6.6895551995117115
10.888838025482567
6.982528419928283
33.64309147783627
53.467612726024264
74.75700007629511
95.75341420614939
91.06584267948425
115.9685664148928
134.2305638208591
130.12893873502708
149.17219806210423
163.03959716182192
173.19600213626308
184.23132677195392
181.7898832684825
191.75097276264592
199.0753032730602
197.31746395056078
202.39566643778133
206.00900282291906
206.10666056305791
206.88792248416877
206.69260700389106
205.7160296025025
204.83710994125278
204.93476768139163
202.0050354772259
199.7589074540322
194.38773174639505
189.79781795986878
190.77439536125735
180.9109636072328
173.48897535667965
175.05149919890135
164.11383230334937
156.00823987182423
144.38696879530022
133.5469596398871
135.89074540321965
120.0701915007248
108.2536049439231
110.79270618753338
95.9487296864271
84.81574731059739
73.87808041504539
62.9404135194934
65.38185702296482
52.39337758449683
42.822919050888835
44.97138933394369
34.91264209964141
27.588311589227132
19.678034637979707
11.865415426871138
13.623254749370565
5.517662317845426
-0.24414435034714274
1.0254062714579995
-6.787212939650568
-12.74433508812085
-18.11551079575799
-23.58434424353399
-22.314793621728846
-29.2484931715877
-34.424353398947126
-33.252460517280845
-40.186160067139696
-45.26436255436027
-49.85427634088655
-54.54184786755169
-53.467612726024264
-60.401312275883114
-65.57717250324254
-64.40527962157626
-69.38582436865796
-72.99916075379568
-77.88204776073853
-82.47196154726483
-81.49538414587624
-86.47592889295797
-90.08926527809568
-89.21034561684596
-93.2143129625391
-96.14404516670481
-99.26909285114824
-102.29648279545282
-101.6128786144808
-105.51918822003509
-108.44892042420081
-107.76531624322881
-110.69504844739453
-112.84351873044938
-115.18730449378195
-117.53109025711451
-116.94514381628137
-118.99595635919738
-120.36316472114137
-120.0701915007248
-121.92568856336308
-123.39055466544595
-123.97650110627909
-124.75776302738994
-124.56244754711223
-125.5390249485008
-126.22262912947281
-126.0273136491951
-126.0273136491951
-125.92965590905622
-125.92965590905622
-125.83199816891737
-125.83199816891737
-124.8554207675288
-124.07415884641794
-124.1718165865568
-124.07415884641794
-124.07415884641794
-123.09758144502938
-122.31631952391852
-122.41397726405738
-121.33974212252994
-120.65613794155794
-120.7537956816968
-118.80064087891967
-117.23811703669794
-116.55451285572595
-115.77325093461509
-115.87090867475395
-114.79667353322652
-114.11306935225453
-114.21072709239338
-112.25757228961623
-110.69504844739453
-108.15594720378424
-105.81216144045166
-106.30045014114596
-98.48783093003739
-92.5307087815671
-93.80025940337224
-82.0813305867094
-73.19447623407339
-58.936446173800256
-45.85030899519341
-48.68238345922026
-26.123445487144274
-9.130998702983138
-12.939650568398566
12.646677347981994
31.787594415197987
53.27229724574655
74.26871137560083
69.58113984893568
93.50728618295567
111.08567940794995
107.17936980239567
126.12497138933395
139.99237048905164
150.24643320363165
161.2817578393225
158.74265659571222
166.84824902723736
172.61005569542993
171.34050507362477
175.34447241931792
178.17654688334477
177.49294270237277
177.59060044251163
177.49294270237277
175.53978789959564
173.97726405737393
174.2702372777905
169.38735027084763
165.57869840543222
158.74265659571222
152.59021896696422
153.85976958876935
143.9963378347448
136.57434958419165
138.13687342641336
126.32028686961166
117.43343251697566
106.98405432211796
96.82764934767681
99.07377737087053
86.08529793240254
76.51483939879454
78.6633096818494
67.62798504615854
59.522392614633404
52.78400854505226
45.654993514915695
47.21751735713741
39.20958266575113
33.3501182574197
34.61966887922484
28.564888990615703
24.17029068436713
19.385061417563133
14.795147631036851
15.771725032425422
10.79118028534371
7.080186160067139
7.959105821316854
2.0019836728465705
-2.2949568932631417
-7.080186160067139
-11.767757686732281
-10.693522545204852
-16.650644693675137
-21.045242999923705
-20.068665598535134
-26.025787747005417
-30.420386053253985
-36.0845349813077
-41.45571068894484
-40.28381780727855
-46.240939955748836
-50.635538261997404
-49.658960860608836
-55.61608300907912
-60.01068131532769
-63.72167544060426
-67.62798504615854
-66.74906538490883
-71.72961013199054
-75.34294651712825
-74.5616845960174
-79.44457160296025
-83.05790798809797
-85.10872053101396
-87.45250629434653
-86.96421759365225
-89.89394979781795
-92.04242008087282
-91.55413138017853
-93.50728618295567
-94.97215228503853
-95.55809872587167
-96.33936064698253
-96.14404516670481
-96.14404516670481
-96.14404516670481
-96.04638742656596
-96.04638742656596
-96.04638742656596
-95.9487296864271
-95.9487296864271
-95.9487296864271
-95.9487296864271
-95.85107194628824
-95.85107194628824
-95.85107194628824
-95.75341420614939
-95.75341420614939
-95.75341420614939
-95.65575646601053
-95.65575646601053
-95.65575646601053
-95.55809872587167
-95.55809872587167
-95.55809872587167
-95.55809872587167
-95.46044098573282
-95.46044098573282
-94.48386358434425
-93.70260166323338
-93.80025940337224
-91.8471046005951
-90.38223849851225
-84.91340505073624
-80.32349126420996
-81.30006866559853
-69.67879758907453
-60.79194323643854
-62.745098039215684
-46.04562447547112
-33.44777599755856
-15.283436331731137
1.6113527122911422
-2.0996414129854277
23.48668650339513
42.62760357061112
38.33066300450141
65.08888380254825
84.91340505073624
104.34729533836881
123.78118562600137
119.48424505989166
140.3830014496071
155.71526665140763
152.29724574654765
167.33653772793164
178.27420462348363
185.30556191348134
193.21583886472877
191.3603418020905
197.41512169069964
201.71206225680933
200.73548485542076
203.76287479972532
205.81368734264134
204.3488212405585
203.66521705958647
203.76287479972532
200.73548485542076
198.48935683222706
198.8799877927825
193.02052338445105
188.52826733806364
180.81330586709393
173.87960631723507
175.34447241931792
163.5278858625162
154.6410315098802
156.4965285725185
143.60570687418937
134.03524834058138
121.82803082322422
110.10910200656139
112.74586099031052
97.80422674906538
86.76890211337454
89.1126878767071
76.12420843823911
66.65140764476998
57.27626459143969
47.80346379797055
49.951934081025406
40.86976424811169
34.22903791866941
35.69390402075227
27.783627069504846
21.826504921034562
16.45532921339742
10.986495765621424
12.158388647287708
5.224689097428855
0.04882887006942855
1.2207217517357138
-4.638742656595713
-9.033340962844282
-14.697489890897993
-20.16632333867399
-18.994430457007706
-24.95155260547799
-29.346150911726557
-28.369573510337986
-34.22903791866941
-38.62363622491798
-43.40886549172198
-48.09643701838712
-47.0222018768597
-52.97932402532997
-57.37392233157855
-56.39734493018997
-61.28023193713283
-64.9912260624094
-68.89753566796368
-72.80384527351796
-71.92492561226825
-75.83123521782254
-78.76096742198825
-78.07736324101626
-82.0813305867094
-84.91340505073624
-87.15953307392996
-89.50331883726253
-88.91737239642939
-91.8471046005951
-94.09323262378882
-93.50728618295567
-96.43701838712138
-98.6831464103151
-101.02693217364767
-103.27306019684139
-102.7847714961471
-104.73792629892424
-106.2027924010071
-105.81216144045166
-106.78873884184024
-107.47234302281224
-107.27702754253453
-107.27702754253453
-107.27702754253453
-107.27702754253453
-107.17936980239567
-107.17936980239567
-104.24963759822995
-102.00350957503625
-95.75341420614939
-90.47989623865111
-91.55413138017853
-80.81177996490425
-72.70618753337911
-74.46402685587854
-58.74113069352254
-46.92454413672083
-29.541466392004274
-13.330281528953995
-16.943617914091707
6.6895551995117115
24.365606164644845
20.45929655909056
45.16670481422141
63.526359960326545
80.42114900434882
97.60891126878766
93.80025940337224
111.76928358892195
124.95307850766766
121.92568856336308
135.01182574196994
144.48462653543908
150.8323796444648
157.96139467460137
156.3012130922408
161.37941557946135
164.99275196459908
164.11383230334937
167.14122224765393
169.28969253070878
168.70374608987564
168.8014038300145
168.70374608987564
166.7505912870985
165.1880674448768
165.48104066529336
159.62157625696193
155.1293202105745
148.48859388113223
142.23849851224537
143.60570687418937
133.64461738002595
126.32028686961166
127.88281071183337
115.9685664148928
107.17936980239567
95.75341420614939
84.81574731059739
87.25719081406882
74.26871137560083
64.69825284199283
66.74906538490883
55.81139848935683
47.705806057831694
39.99084458686198
32.08056763561456
33.838406958113985
24.853894865339132
18.21316853589685
19.678034637979707
12.646677347981994
7.568474860761425
2.9785610742351416
-1.6113527122911422
-0.6347753109025711
-7.470817120622568
-12.646677347981994
-11.47478446631571
-17.52956435492485
-21.92416266117342
-26.61173418783856
-31.2993057145037
-30.22507057297627
-36.182192721446555
-40.57679102769512
-39.600213626306555
-45.55733577477684
-49.951934081025406
-54.639505607690545
-59.32707713435569
-58.25284199282826
-63.233386739909974
-66.84672312504769
-66.06546120393683
-69.9717708094911
-72.90150301365682
-76.02655069810025
-79.15159838254368
-78.46799420157168
-81.39772640573739
-83.6438544289311
-83.05790798809797
-86.96421759365225
-89.89394979781795
-92.14007782101167
-94.48386358434425
-93.8979171435111
-96.82764934767681
-98.97611963073167
-98.48783093003739
-100.44098573281453
-101.90585183489738
-103.4683756771191
-104.93324177920195
-104.64026855878538
-106.59342336156253
-107.96063172350652
-107.66765850308995
-107.66765850308995
-107.5700007629511
-106.59342336156253
-105.81216144045166
-106.00747692072939
-102.1011673151751
-99.07377737087053
-99.75738155184253
-90.96818493934539
-84.3274586099031
-72.41321431296254
-61.5732051575494
-64.01464866102083
-45.26436255436027
-31.2993057145037
-34.424353398947126
-10.79118028534371
6.787212939650568
27.68596932936599
47.90112153810941
43.40886549172198
68.21393148699168
86.57358663309682
82.47196154726483
103.37071793698024
118.70298313878081
130.5195696955825
143.11741817349508
140.28534370946824
150.44174868390937
157.6684214541848
156.00823987182423
162.94193942168306
168.02014190890364
169.6803234912642
172.12176699473565
171.53582055390248
172.61005569542993
173.19600213626308
173.00068665598536
171.0475318532082
169.58266575112535
165.09040970473794
161.18410009918364
161.9653620202945
156.00823987182423
151.61364156557565
152.49256122682536
142.72678721293966
135.3047989623865
125.44136720836194
116.06622415503166
118.11703669794767
104.24963759822995
93.8979171435111
96.14404516670481
81.30006866559853
70.26474402990769
57.471580071717405
44.97138933394369
47.705806057831694
34.717326619363696
25.146868085755703
27.295338368810558
15.381094071869994
6.494239719233997
-0.9277485313191425
-8.838025482566568
-7.080186160067139
-16.064698252841993
-22.60776684214542
-21.14290074006256
-28.174258030060273
-33.252460517280845
-39.79552910658427
-45.947966735332265
-44.580758373388264
-51.51445792324712
-56.690318150606544
-55.51842526894026
-62.45212481879911
-67.53032730601969
-72.12024109254597
-76.8078126192111
-75.73357747768368
-81.69069962615396
-86.08529793240254
-85.0110627908751
-90.96818493934539
-95.36278324559396
-100.0503547722591
-104.73792629892424
-103.66369115739681
-108.54657816433966
-112.25757228961623
-111.37865262836652
-115.38261997405966
-118.21469443808652
-125.14839398794537
-131.2031738765545
-129.8359655146105
-139.6017395284962
-146.9260700389105
-152.00427252613107
-157.47310597390708
-156.20355535210194
-156.39887083237966
-156.3012130922408
-156.3012130922408
-156.20355535210194
-156.20355535210194
-156.1058976119631
-156.1058976119631
-156.00823987182423
-152.1995880064088
-149.17219806210423
-149.75814450293737
-141.9455252918288
-135.9884031433585
-132.47272449835967
-128.37109941252766
-129.25001907377737
-126.12497138933395
-123.97650110627909
-124.36713206683451
-119.48424505989166
-115.77325093461509
-106.00747692072939
-97.60891126878766
-99.46440833142596
-83.74151216906996
-71.92492561226825
-74.5616845960174
-54.83482108796826
-40.08850232700084
-43.311207751583126
-18.701457236591136
-0.34180209048599985
19.385061417563133
38.818951705195694
34.52201113908598
57.37392233157855
74.26871137560083
89.60097657740138
105.22621499961852
101.71053635461966
115.77325093461509
126.0273136491951
123.68352788586252
132.76569771877624
139.30876630807964
142.53147173266194
146.53543907835507
145.5588616769665
147.6096742198825
149.07454032196537
148.68390936140995
147.70733196002135
146.9260700389105
143.21507591363394
140.18768596932938
140.87129015030138
134.9141680018311
130.42191195544365
131.39848935683221
123.4882124055848
117.53109025711451
108.35126268406195
99.85503929198138
101.71053635461966
88.81971465629053
79.24925612268254
81.30006866559853
67.43266956588083
57.178606851300835
46.04562447547112
35.10795757991913
37.549401083390556
25.537499046311133
16.748302433813993
18.701457236591136
8.74036774242771
1.416037232013428
-4.541084916456855
-10.79118028534371
-9.42397192339971
-17.334248874647134
-23.291371023117417
-21.92416266117342
-27.97894254978256
-32.37354085603113
-37.06111238269627
-41.74868390936141
-40.67444876783398
-47.60814831769284
-52.6863508049134
-51.51445792324712
-57.471580071717405
-61.86617837796597
-66.65140764476998
-71.24132143129626
-70.26474402990769
-75.2452887769894
-78.85862516212711
-77.97970550087739
-83.93682764934768
-88.23376821545739
-92.04242008087282
-95.9487296864271
-95.06981002517739
-98.97611963073167
-101.90585183489738
-101.22224765392538
-105.12855725947966
-108.05828946364538
-110.20675974670024
-112.5505455100328
-112.06225680933852
-114.01541161211567
-115.48027771419852
-115.0896467536431
-118.01937895780881
-120.16784924086366
-120.55848020141909
-121.4373998626688
-121.14442664225223
-123.09758144502938
-124.56244754711223
-124.1718165865568
-125.14839398794537
-125.83199816891737
-125.63668268863965
-125.63668268863965
-125.5390249485008
-125.5390249485008
-125.5390249485008
-125.44136720836194
-124.46478980697337
-123.68352788586252
-120.94911116197451
-118.60532539864195
-119.09361409933624
-114.21072709239338
-110.49973296711681
-111.28099488822767
-102.39414053559167
-95.75341420614939
-84.81574731059739
-74.75700007629511
-77.00312809948882
-58.350499732967116
-44.28778515297169
-47.412832837415124
-24.756237125200276
-7.763790341039139
13.13496604867628
33.252460517280845
28.857862211032273
53.66292820630198
72.02258335240711
67.92095826657511
88.81971465629053
104.1519798580911
116.94514381628137
130.3242542153048
127.29686427100023
139.4064240482185
148.0979629205768
146.14480811779964
152.1995880064088
156.4965285725185
159.32860303654536
162.45365072098878
161.67238879987792
161.77004654001678
161.77004654001678
161.67238879987792
159.7192339971008
158.15671015487908
153.66445410849164
149.85580224307623
150.63706416418708
142.8244449530785
136.86732280460822
138.13687342641336
128.2734416723888
120.85145342183566
109.03486686503395
98.29251544975968
100.63630121309224
86.67124437323568
76.41718165865568
78.6633096818494
64.79591058213168
54.44419012741283
44.28778515297169
34.131380178530556
36.37750820172427
26.318760967421987
18.994430457007706
20.654612039368278
11.670099946593423
5.0293736171511405
-1.0254062714579995
-7.275501640344854
-5.908293278400855
-12.84199282825971
-18.017853055619135
-16.84596017395285
-23.779659723811704
-28.95551995117113
-33.545433737697415
-38.23300526436255
-37.15877012283513
-43.11589227130541
-47.51049057755398
-46.533913176165406
-52.39337758449683
-56.7879758907454
-61.5732051575494
-66.16311894407569
-65.18654154268711
-71.04600595101854
-75.44060425726711
-74.46402685587854
-79.44457160296025
-83.05790798809797
-86.08529793240254
-89.21034561684596
-88.4290836957351
-92.43305104142824
-95.2651255054551
-94.5815213244831
-97.60891126878766
-99.75738155184253
-101.12458991378652
-102.68711375600824
-102.29648279545282
-104.24963759822995
-105.7145037003128
-105.32387273975738
-106.39810788128482
-107.08171206225681
-108.74189364461738
-110.20675974670024
-109.91378652628366
-110.89036392767224
-111.57396810864424
-111.37865262836652
-113.2341496910048
-114.69901579308767
-114.30838483253224
-114.4060425726711
-114.30838483253224
-115.28496223392081
-115.9685664148928
-115.77325093461509
-114.79667353322652
-114.01541161211567
-113.2341496910048
-112.35523002975509
-112.5505455100328
-108.64423590447852
-105.61684596017395
-106.30045014114596
-100.34332799267567
-95.85107194628824
-85.40169375143053
-76.22186617837797
-78.27267872129397
-62.45212481879911
-50.73319600213626
-53.27229724574655
-31.68993667505913
-15.47875181200885
3.7598229953459983
22.412451361867703
18.21316853589685
42.04165712977798
59.62005035477226
55.713740749217976
76.61249713893339
92.04242008087282
104.73792629892424
118.11703669794767
115.0896467536431
126.22262912947281
134.2305638208591
132.3750667582208
139.4064240482185
144.48462653543908
146.14480811779964
148.5862516212711
148.00030518043792
148.0979629205768
148.00030518043792
148.00030518043792
144.09399557488365
141.0666056305791
135.01182574196994
129.6406500343328
130.81254291599907
120.94911116197451
113.52712291142137
115.18730449378195
102.29648279545282
92.72602426184481
82.37430380712597
72.21789883268482
74.46402685587854
60.59662775616083
50.34256504158083
52.588693064774546
39.600213626306555
30.127412832837415
22.60776684214542
14.697489890897993
16.45532921339742
7.470817120622568
0.9277485313191425
2.392614633401999
-5.517662317845426
-11.377126726176853
-15.771725032425422
-20.55695429922942
-19.48271915770199
-24.4632639047837
-28.076600289921416
-27.295338368810558
-33.15480277714199
-37.64705882352941
-41.358052948805984
-45.26436255436027
-44.38544289311055
-49.365987640192266
-52.97932402532997
-52.19806210421912
-58.057526512550545
-62.45212481879911
-66.26077668421455
-70.16708628976883
-69.28816662851911
-74.17105363546197
-77.88204776073853
-77.00312809948882
-81.00709544518196
-83.93682764934768
-88.03845273517967
-91.8471046005951
-90.96818493934539
-94.87449454489968
-97.80422674906538
-97.12062256809338
-101.02693217364767
-103.95666437781338
-106.2027924010071
-108.44892042420081
-107.96063172350652
-109.91378652628366
-111.37865262836652
-110.9880216678111
-113.9177538719768
-116.06622415503166
-116.45685511558709
-117.3357747768368
-117.04280155642023
-118.01937895780881
-118.70298313878081
-118.5076676585031
-119.48424505989166
-120.16784924086366
-119.97253376058595
-119.97253376058595
-119.97253376058595
-119.87487602044709
-119.87487602044709
-119.87487602044709
-119.77721828030823
-119.77721828030823
-119.67956054016938
-119.67956054016938
-119.67956054016938
-119.58190280003052
-119.58190280003052
-119.48424505989166
-119.48424505989166
-119.48424505989166
-119.3865873197528
-119.3865873197528
-119.3865873197528
-118.31235217822538
-117.53109025711451
-117.72640573739223
-116.6521705958648
-115.87090867475395
-116.06622415503166
-114.99198901350424
-114.21072709239338
-113.42946517128252
-112.5505455100328
-112.74586099031052
-110.69504844739453
-109.23018234531166
-107.5700007629511
-106.00747692072939
-106.30045014114596
-104.34729533836881
-102.7847714961471
-103.07774471656367
-102.00350957503625
-101.31990539406424
-99.46440833142596
-97.99954222934309
-98.29251544975968
-96.24170290684367
-94.77683680476082
-95.06981002517739
-93.01899748226138
-91.55413138017853
-89.89394979781795
-88.33142595559625
-88.62439917601282
-85.6946669718471
-83.4485389486534
-83.93682764934768
-77.10078583962768
-71.92492561226825
-62.54978255893797
-54.053559166857404
-55.90905622949569
-38.33066300450141
-25.049210345616846
-27.97894254978256
-4.443427176317998
13.13496604867628
37.84237430380713
60.987258716716255
55.90905622949569
86.57358663309682
109.32784008545052
104.24963759822995
132.96101319905395
154.25040054932478
173.3913176165408
192.9228656443122
188.52826733806364
205.61837186236363
217.9232471198596
215.18883039597162
226.22415503166246
234.1344319829099
236.08758678568705
239.40794995040818
238.62668802929733
238.62668802929733
238.52903028915847
238.52903028915847
234.62272068360417
231.5953307392996
224.46631570916304
218.31387808041504
219.58342870222017
209.71999694819561
202.29800869764247
203.86053253986418
191.06736858167392
181.39925230792707
170.07095445181963
159.13328755626765
161.57473105973907
147.6096742198825
137.25795376516365
139.50408178835735
126.51560234988938
116.94514381628137
108.54657816433966
99.85503929198138
101.71053635461966
91.74944686045625
84.42511635004196
85.98764019226367
78.95628290226597
73.78042267490653
68.21393148699168
62.745098039215684
63.91699092088197
57.95986877241169
53.467612726024264
54.44419012741283
47.51049057755398
42.33463035019455
37.74471656366827
33.05714503700313
34.131380178530556
27.1976806286717
22.021820401312276
23.19371328297856
16.16235599298085
11.08415350576028
6.494239719233997
1.7090104524299992
2.783245593957427
-4.052796215762569
-9.130998702983138
-8.05676356145571
-14.013885709925994
-18.40848401617456
-23.096055542839704
-27.783627069504846
-26.709391927977418
-32.6665140764477
-37.06111238269627
-36.0845349813077
-40.08850232700084
-43.018234531166556
-47.11985961699855
-51.02616922255284
-50.14724956130312
-54.15121690699626
-56.983291371023114
-56.39734493018997
-59.32707713435569
-61.475547417410546
-63.91699092088197
-66.16311894407569
-65.6748302433814
-67.62798504615854
-69.0928511482414
-68.79987792782482
-71.63195239185168
-73.87808041504539
-75.2452887769894
-76.8078126192111
-76.41718165865568
-77.4914168001831
-78.17502098115511
-77.97970550087739
-78.95628290226597
-79.63988708323797
-80.42114900434882
-81.20241092545967
-81.00709544518196
-81.88601510643167
-82.66727702754254
-82.47196154726483
-82.47196154726483
-82.47196154726483
-83.35088120851454
-84.03448538948653
-83.83916990920882
-83.93682764934768
-83.83916990920882
-83.83916990920882
-83.83916990920882
-83.74151216906996
-83.74151216906996
-83.74151216906996
-83.74151216906996
-83.6438544289311
-83.6438544289311
-83.6438544289311
-83.6438544289311
-83.54619668879225
-82.56961928740368
-81.78835736629281
-81.98367284657053
-81.88601510643167
-81.88601510643167
-81.88601510643167
-81.78835736629281
-81.78835736629281
-80.81177996490425
-80.03051804379339
-80.2258335240711
-79.15159838254368
-78.37033646143283
-78.56565194171054
-74.65934233615626
-71.72961013199054
-65.6748302433814
-60.30365453574426
-61.475547417410546
-49.75661860074769
-40.86976424811169
-42.822919050888835
-25.146868085755703
-11.865415426871138
7.959105821316854
26.416418707560844
22.314793621728846
49.073014419775696
68.89753566796368
64.40527962157626
91.1635004196231
110.9880216678111
129.44533455405508
148.19562066071566
143.9963378347448
163.91851682307163
178.5671778439002
175.24681467917907
189.3095292591745
199.46593423361563
204.73945220111392
211.0872053101396
209.62233920805676
213.72396429388877
216.55603875791562
215.87243457694362
215.87243457694362
215.77477683680476
212.84504463263906
210.59891660944533
210.98954757000075
204.15350576028078
198.8799877927825
199.9542229343099
191.06736858167392
184.42664225223163
174.36789501792936
165.09040970473794
167.04356450751507
153.17616540779736
142.8244449530785
145.07057297627222
131.2031738765545
120.85145342183566
109.71847104600594
98.78080415045396
101.22224765392538
89.1126878767071
80.32349126420996
82.27664606698711
72.21789883268482
64.89356832227054
58.8387884336614
52.588693064774546
53.95590142671855
46.92454413672083
41.74868390936141
42.92057679102769
35.98687724116884
30.811017013809415
26.22110322728313
21.533531700617992
22.510109102006563
16.55298695353628
12.158388647287708
13.13496604867628
6.201266498817426
1.1230640115968566
-3.36919203479057
-8.154421301594567
-7.080186160067139
-13.037308308537423
-17.43190661478599
-16.45532921339742
-23.291371023117417
-28.467231250476843
-33.05714503700313
-37.74471656366827
-36.67048142214084
-42.62760357061112
-47.0222018768597
-46.04562447547112
-51.02616922255284
-54.639505607690545
-58.643472953383686
-62.45212481879911
-61.5732051575494
-65.57717250324254
-68.50690470740825
-67.82330052643626
-71.72961013199054
-74.65934233615626
-76.90547035934996
-79.24925612268254
-78.6633096818494
-81.5930418860151
-83.83916990920882
-83.25322346837568
-85.30403601129167
-86.67124437323568
-88.23376821545739
-89.7962920576791
-89.40566109712367
-90.38223849851225
-91.1635004196231
-90.96818493934539
-91.94476234073396
-92.62836652170596
-93.40962844281681
-94.09323262378882
-93.8979171435111
-93.8979171435111
-93.8979171435111
-93.8979171435111
-94.77683680476082
-95.46044098573282
-95.2651255054551
-95.2651255054551
-95.2651255054551
-95.2651255054551
-95.16746776531625
-95.16746776531625
-95.16746776531625
-95.06981002517739
-95.06981002517739
-95.06981002517739
-95.06981002517739
-94.97215228503853
-94.97215228503853
-94.97215228503853
-94.87449454489968
-94.87449454489968
-95.85107194628824
-96.53467612726024
-96.33936064698253
-96.33936064698253
-96.24170290684367
-96.24170290684367
-96.24170290684367
-96.24170290684367
-96.14404516670481
-96.14404516670481
-96.14404516670481
-93.2143129625391
-90.96818493934539
-91.45647364003968
-85.59700923170824
-81.10475318532082
-71.53429465171283
-63.13572899977112
-64.9912260624094
-47.412832837415124
-34.131380178530556
-37.06111238269627
-13.427939269092851
4.150453955901427
27.881284809643702
50.34256504158083
45.26436255436027
76.02655069810025
98.78080415045396
93.60494392309452
122.41397726405738
143.70336461432822
161.77004654001678
180.61799038681622
176.41870756084535
194.4853894865339
207.57152666514077
204.5441367208362
216.55603875791562
225.34523537041275
229.93514915693905
235.50164034485388
234.23208972304874
237.25947966735333
239.31029221026932
238.82200350957504
237.84542610818647
237.06416418707562
234.23208972304874
231.88830395971618
232.37659266041047
226.41947051194018
221.92721446555277
222.90379186694133
214.01693751430534
207.2785534447242
197.21980621042192
187.94232089723047
189.89547570000764
176.02807660028992
165.67635614557108
167.92248416876478
153.0785076676585
141.9455252918288
129.05470359349965
116.6521705958648
119.3865873197528
104.34729533836881
93.31197070267795
95.75341420614939
82.7649347676814
73.19447623407339
65.77248798352025
57.86221103227283
59.62005035477226
49.658960860608836
42.236972610055695
43.89715419241627
35.889219501029984
30.029755092698558
24.65857938506142
19.092088197146563
20.361638818951704
13.427939269092851
8.252079041733426
9.42397192339971
2.392614633401999
-2.5879301136797133
-8.154421301594567
-13.623254749370565
-12.353704127565424
-18.40848401617456
-22.803082322423133
-21.826504921034562
-28.66254673075456
-33.838406958113985
-38.42832074464027
-43.11589227130541
-42.04165712977798
-47.998779278248264
-52.39337758449683
-51.31914244296941
-57.27626459143969
-61.67086289768826
-66.45609216449226
-71.04600595101854
-69.9717708094911
-75.9288929579614
-80.32349126420996
-79.3469138628214
-84.3274586099031
-87.94079499504082
-90.87052719920653
-93.99557488364995
-93.31197070267795
-97.21828030823224
-100.14801251239795
-99.46440833142596
-102.39414053559167
-104.64026855878538
-106.00747692072939
-107.5700007629511
-107.17936980239567
-109.1325246051728
-110.49973296711681
-110.20675974670024
-112.15991454947738
-113.52712291142137
-114.11306935225453
-114.89433127336538
-114.69901579308767
-114.69901579308767
-114.69901579308767
-114.60135805294881
-115.57793545433738
-116.26153963530938
-116.06622415503166
-116.06622415503166
-116.06622415503166
-115.9685664148928
-115.9685664148928
-115.87090867475395
-114.89433127336538
-114.11306935225453
-113.33180743114366
-112.5505455100328
-112.64820325017166
-112.5505455100328
-112.5505455100328
-112.5505455100328
-111.47631036850538
-110.69504844739453
-108.93720912489509
-107.37468528267338
-107.66765850308995
-105.7145037003128
-104.1519798580911
-104.44495307850767
-101.51522087434195
-99.26909285114824
-94.97215228503853
-91.06584267948425
-91.94476234073396
-82.17898832684826
-74.75700007629511
-76.31952391851682
-60.694285496299685
-48.877698939497975
-29.541466392004274
-11.865415426871138
-15.771725032425422
12.646677347981994
34.0337224383917
29.2484931715877
60.8896009765774
84.3274586099031
109.62081330586709
134.52353704127566
128.9570458533608
156.88715953307394
177.39528496223392
172.7077134355688
194.68070496681162
210.79423208972304
221.43892576485848
233.25551232166018
230.61875333791104
238.72434576943618
244.48615243762876
243.11894407568474
243.31425955596245
243.2166018158236
243.11894407568474
243.02128633554588
242.92362859540702
242.92362859540702
242.82597085526817
242.7283131151293
238.82200350957504
235.79461356527045
229.64217593652248
224.27100022888533
225.34523537041275
215.4818036163882
208.05981536583505
209.62233920805676
196.8291752498665
187.16105897611962
174.9538414587625
163.23491264209963
165.77401388570993
148.87922484168766
136.37903410391394
139.11345082780193
123.19523918516823
111.37865262836652
98.6831464103151
86.1829556725414
88.91737239642939
74.95231555657283
64.69825284199283
66.94438086518655
54.932478828107115
46.14328221560998
38.525978484779124
30.615701533531702
32.37354085603113
23.389028763256274
16.748302433813993
18.21316853589685
10.302891584649425
4.443427176317998
-0.9277485313191425
-6.39658197909514
-5.127031357289998
-11.181811245899137
-15.576409552147707
-14.599832150759136
-20.45929655909056
-24.853894865339132
-29.63912413214313
-34.32669565880827
-33.252460517280845
-39.20958266575113
-43.604180971999696
-42.62760357061112
-48.584725719081405
-52.881666285191116
-57.66689555199512
-62.35446707866026
-61.28023193713283
-67.23735408560312
-71.53429465171283
-70.55771725032426
-76.51483939879454
-80.9094377050431
-84.62043183031967
-88.52674143587396
-87.64782177462425
-91.65178912031739
-94.5815213244831
-93.8979171435111
-97.80422674906538
-100.7339589532311
-101.90585183489738
-103.56603341725796
-103.17540245670253
-104.1519798580911
-104.8355840390631
-104.64026855878538
-105.61684596017395
-106.30045014114596
-106.10513466086825
-106.10513466086825
-106.10513466086825
-106.98405432211796
-107.66765850308995
-107.47234302281224
-108.44892042420081
-109.1325246051728
-108.93720912489509
-109.91378652628366
-110.59739070725567
-112.35523002975509
-113.82009613183794
-113.42946517128252
-115.38261997405966
-116.84748607614252
-118.31235217822538
-119.87487602044709
-119.48424505989166
-120.46082246128023
-121.14442664225223
-120.94911116197451
-119.97253376058595
-119.19127183947509
-116.45685511558709
-114.21072709239338
-114.69901579308767
-105.90981918059052
-99.26909285114824
-100.63630121309224
-86.96421759365225
-76.61249713893339
-59.815365835049974
-44.38544289311055
-47.80346379797055
-24.072632944228275
-6.494239719233997
-10.400549324788281
16.16235599298085
35.98687724116884
56.39734493018997
76.71015487907225
72.21789883268482
94.19089036392768
110.20675974670024
106.59342336156253
123.58587014572366
135.9884031433585
144.6799420157168
154.15274280918592
152.00427252613107
159.13328755626765
164.11383230334937
162.94193942168306
165.96932936598765
168.1177996490425
167.6295109483482
167.6295109483482
167.53185320820936
164.6997787441825
162.35599298084992
162.8442816815442
156.9848172732128
152.49256122682536
145.75417715724421
139.6017395284962
140.87129015030138
130.03128099488822
121.92568856336308
123.68352788586252
111.76928358892195
102.88242923628596
91.45647364003968
80.61646448462653
82.96025024795911
69.0928511482414
58.74113069352254
60.987258716716255
48.09643701838712
38.525978484779124
30.127412832837415
21.43587396047913
23.389028763256274
13.427939269092851
6.103608758678568
7.666132600900283
0.6347753109025711
-4.345769436179141
-8.935683222705425
-13.623254749370565
-12.646677347981994
-18.60379949645228
-22.998397802700847
-22.021820401312276
-27.002365148393988
-30.615701533531702
-35.49858854047456
-40.186160067139696
-39.11192492561227
-45.069047074082555
-49.46364538033112
-48.48706797894255
-53.36995498588541
-57.08094911116198
-61.96383611810483
-66.55374990463112
-65.47951476310368
-70.4600595101854
-74.17105363546197
-73.29213397421225
-77.29610131990539
-80.2258335240711
-83.35088120851454
-86.37827115281911
-85.6946669718471
-88.72205691615167
-90.87052719920653
-90.38223849851225
-93.31197070267795
-95.46044098573282
-96.82764934767681
-98.39017318989853
-97.99954222934309
-99.95269703212024
-101.41756313420309
-101.02693217364767
-102.98008697642481
-104.44495307850767
-105.0308995193408
-105.81216144045166
-105.61684596017395
-107.5700007629511
-108.93720912489509
-108.64423590447852
-109.62081330586709
-110.3044174868391
-111.08567940794995
-111.76928358892195
-111.57396810864424
-111.57396810864424
-111.57396810864424
-111.47631036850538
-110.49973296711681
-109.71847104600594
-107.96063172350652
-106.39810788128482
-106.69108110170139
-102.7847714961471
-99.85503929198138
-100.44098573281453
-92.62836652170596
-86.67124437323568
-75.53826199740597
-65.57717250324254
-67.82330052643626
-49.17067215991455
-35.10795757991913
-38.23300526436255
-16.55298695353628
-0.34180209048599985
18.89677271686885
37.549401083390556
33.3501182574197
56.20202944991226
73.09681849393453
69.28816662851911
88.23376821545739
102.19882505531396
114.30838483253224
126.80857557030595
123.97650110627909
134.13290608072023
141.35957885099566
139.69939726863507
144.77759975585565
148.39093614099338
149.4651712825208
151.12535286488136
150.63706416418708
148.7815671015488
147.21904325932707
147.51201647974364
143.60570687418937
140.5783169298848
134.52353704127566
129.1523613336385
130.3242542153048
120.46082246128023
113.03883421072709
114.60135805294881
102.7847714961471
93.8979171435111
83.4485389486534
73.29213397421225
75.53826199740597
62.54978255893797
53.07698176546884
55.127794308384836
42.236972610055695
32.6665140764477
24.267948424505988
15.674067292286564
17.52956435492485
8.545052262149996
1.9043259327077133
3.36919203479057
-3.466849774929427
-8.642710002288853
-13.232623788815136
-17.920195315480278
-16.84596017395285
-24.756237125200276
-30.615701533531702
-29.346150911726557
-41.065079728389414
-49.85427634088655
-58.350499732967116
-66.94438086518655
-65.08888380254825
-72.12024109254597
-77.19844357976653
-76.02655069810025
-79.15159838254368
-81.30006866559853
-80.81177996490425
-80.9094377050431
-80.81177996490425
-77.00312809948882
-73.97573815518425
-74.65934233615626
-71.63195239185168
-69.38582436865796
-69.87411306935225
-69.67879758907453
-69.67879758907453
-72.5108720531014
-74.75700007629511
-74.26871137560083
-77.19844357976653
-79.3469138628214
-81.69069962615396
-84.03448538948653
-83.4485389486534
-86.47592889295797
-88.62439917601282
-88.13611047531853
-90.08926527809568
-91.55413138017853
-92.14007782101167
-92.92133974212253
-92.72602426184481
-94.5815213244831
-96.04638742656596
-95.65575646601053
-96.72999160753795
-97.41359578850995
-98.19485770962082
-98.87846189059282
-98.6831464103151
-98.6831464103151
-98.6831464103151
-98.6831464103151
-97.60891126878766
-96.92530708781567
-95.06981002517739
-93.50728618295567
-93.8979171435111
-89.01503013656824
-85.30403601129167
-86.08529793240254
-76.31952391851682
-68.89753566796368
-57.178606851300835
-46.33859769588769
-48.78004119935912
-29.053177691309987
-14.404516670481422
-17.627222095063708
4.931715877012284
21.92416266117342
41.065079728389414
59.71770809491112
55.51842526894026
77.39375906004425
93.50728618295567
89.89394979781795
108.83955138475623
122.70695048447395
131.98443579766536
142.33615625238423
139.99237048905164
148.0979629205768
153.85976958876935
152.49256122682536
156.59418631265737
159.42626077668422
157.76607919432365
157.08247501335165
157.1801327534905
154.25040054932478
152.00427252613107
152.3949034866865
145.5588616769665
140.3830014496071
132.8633554589151
125.92965590905622
127.39452201113909
115.57793545433738
106.69108110170139
108.64423590447852
95.75341420614939
86.1829556725414
74.85465781643397
64.01464866102083
66.3584344243534
54.346532387273975
45.55733577477684
47.51049057755398
36.57282368200198
28.467231250476843
21.63118944075685
14.599832150759136
16.16235599298085
9.130998702983138
3.9551384756237127
5.127031357289998
-0.7324330510414282
-5.127031357289998
-7.959105821316854
-11.181811245899137
-10.498207064927138
-15.381094071869994
-19.092088197146563
-18.21316853589685
-22.21713588158999
-25.146868085755703
-28.369573510337986
-31.396963454642556
-30.71335927367056
-35.69390402075227
-39.307240405889985
-38.525978484779124
-43.40886549172198
-47.11985961699855
-51.02616922255284
-54.932478828107115
-54.053559166857404
-58.057526512550545
-60.8896009765774
-60.30365453574426
-65.18654154268711
-68.79987792782482
-71.8272678721294
-74.95231555657283
-74.17105363546197
-77.19844357976653
-79.3469138628214
-78.85862516212711
-81.78835736629281
-84.03448538948653
-86.37827115281911
-88.62439917601282
-88.13611047531853
-90.08926527809568
-91.55413138017853
-91.1635004196231
-93.11665522240024
-94.5815213244831
-96.14404516670481
-97.60891126878766
-97.3159380483711
-99.26909285114824
-100.63630121309224
-100.34332799267567
-102.29648279545282
-103.66369115739681
-105.22621499961852
-106.78873884184024
-106.39810788128482
-107.37468528267338
-108.05828946364538
-107.86297398336767
-107.86297398336767
-107.86297398336767
-106.8863965819791
-106.10513466086825
-106.2027924010071
-102.29648279545282
-99.3667505912871
-99.95269703212024
-93.11665522240024
-87.94079499504082
-78.56565194171054
-70.06942854962998
-71.92492561226825
-55.22545204852369
-42.72526131074998
-45.45967803463798
-24.756237125200276
-9.326314183260854
9.130998702983138
26.90470740825513
22.998397802700847
44.873731593804834
60.987258716716255
57.37392233157855
77.19844357976653
91.8471046005951
102.00350957503625
113.03883421072709
110.59739070725567
120.65613794155794
127.88281071183337
126.22262912947281
130.3242542153048
133.15632867933166
133.44930189974824
134.32822156099795
134.03524834058138
130.22659647516593
127.19920653086137
127.88281071183337
120.94911116197451
115.77325093461509
107.37468528267338
99.65972381170367
101.31990539406424
89.40566109712367
80.61646448462653
82.56961928740368
69.67879758907453
60.108339055466544
48.78004119935912
37.94003204394598
40.38147554741741
28.369573510337986
19.48271915770199
21.43587396047913
11.47478446631571
4.150453955901427
-1.7090104524299992
-8.05676356145571
-6.6895551995117115
-11.767757686732281
-15.381094071869994
-14.599832150759136
-17.627222095063708
-19.775692378118563
-22.119478141451133
-24.4632639047837
-23.974975204089418
-26.90470740825513
-29.150835431448844
-28.66254673075456
-31.592278934920273
-33.74074921797513
-36.182192721446555
-38.42832074464027
-37.94003204394598
-41.84634164950027
-44.77607385366598
-44.09246967269398
-47.11985961699855
-49.26832990005341
-52.588693064774546
-55.713740749217976
-54.932478828107115
-58.936446173800256
-61.86617837796597
-61.182574196993976
-65.08888380254825
-68.01861600671397
-71.1436636911574
-74.26871137560083
-73.58510719462882
-77.4914168001831
-80.42114900434882
-79.73754482337682
-82.7649347676814
-84.91340505073624
-87.25719081406882
-89.60097657740138
-89.01503013656824
-90.96818493934539
-92.43305104142824
-92.04242008087282
-94.97215228503853
-97.21828030823224
-97.60891126878766
-98.39017318989853
-98.19485770962082
-99.17143511100939
-99.85503929198138
-99.65972381170367
-100.63630121309224
-101.31990539406424
-101.12458991378652
-101.12458991378652
-101.12458991378652
-102.00350957503625
-102.7847714961471
-102.58945601586939
-101.6128786144808
-100.83161669336995
-100.92927443350881
-100.92927443350881
-100.83161669336995
-100.83161669336995
-100.83161669336995
-100.7339589532311
-99.75738155184253
-98.97611963073167
-99.17143511100939
-99.07377737087053
-99.07377737087053
-98.09719996948196
-97.3159380483711
-97.41359578850995
-96.43701838712138
-95.65575646601053
-95.75341420614939
-95.65575646601053
-95.65575646601053
-93.70260166323338
-92.23773556115053
-92.5307087815671
-91.45647364003968
-90.67521171892882
-89.89394979781795
-89.1126878767071
-89.21034561684596
-87.25719081406882
-85.79232471198596
-86.08529793240254
-85.0110627908751
-84.22980086976425
-83.4485389486534
-82.56961928740368
-82.7649347676814
-82.66727702754254
-82.66727702754254
-82.66727702754254
-81.69069962615396
-80.9094377050431
-78.17502098115511
-75.9288929579614
-76.41718165865568
-71.43663691157397
-67.7256427862974
-68.50690470740825
-58.8387884336614
-51.416800183108265
-37.74471656366827
-25.537499046311133
-28.174258030060273
-5.615320057984283
11.181811245899137
7.470817120622568
35.010299839780274
55.61608300907912
80.61646448462653
104.64026855878538
99.26909285114824
127.10154879072252
147.6096742198825
143.01976043335623
165.96932936598765
182.76646066987107
194.19241626611733
206.88792248416877
203.95819028000304
213.13801785305563
219.58342870222017
218.11856260013732
222.12252994583048
224.95460440985732
222.41550316624705
220.9506370641642
221.1459525444419
215.28648813611048
210.79423208972304
211.7708094911116
201.90737773708705
194.4853894865339
184.62195773250934
175.24681467917907
177.29762722209506
164.30914778362708
154.73868925001906
156.78950179293508
142.92210269321737
132.57038223849852
122.41397726405738
112.25757228961623
114.4060425726711
103.37071793698024
95.2651255054551
97.02296482795452
89.01503013656824
83.15556572823682
78.6633096818494
73.87808041504539
74.95231555657283
69.87411306935225
66.26077668421455
67.0420386053254
63.91699092088197
61.768520637827116
62.15915159838254
59.22941939421683
56.983291371023114
55.51842526894026
53.95590142671855
54.24887464713512
50.34256504158083
47.412832837415124
44.19012741283284
41.065079728389414
41.74868390936141
37.74471656366827
34.81498435950255
35.49858854047456
30.518043793392845
26.807049668116274
22.90074006256199
18.994430457007706
19.87335011825742
14.892805371175708
11.181811245899137
11.963073167009995
7.080186160067139
3.36919203479057
-0.43945983062485694
-4.345769436179141
-3.466849774929427
-8.44739452201114
-12.158388647287708
-11.279468986037996
-15.283436331731137
-18.21316853589685
-20.45929655909056
-22.803082322423133
-22.314793621728846
-25.24452582589456
-27.49065384908827
-27.002365148393988
-28.95551995117113
-30.420386053253985
-31.9829098954757
-33.545433737697415
-33.15480277714199
-34.22903791866941
-34.91264209964141
-34.717326619363696
-36.67048142214084
-38.1353475242237
-38.72129396505684
-39.600213626306555
-39.40489814602884
-40.38147554741741
-41.065079728389414
-40.86976424811169
-42.822919050888835
-44.28778515297169
-44.873731593804834
-45.75265125505455
-45.55733577477684
-45.55733577477684
-45.55733577477684
-45.45967803463798
-46.43625543602655
-47.21751735713741
-46.04562447547112
-45.362020294499125
-45.45967803463798
-45.362020294499125
-45.362020294499125
-45.362020294499125
-45.362020294499125
-45.362020294499125
-45.362020294499125
-45.362020294499125
-45.362020294499125
-46.240939955748836
-47.0222018768597
-46.826886396581976
-46.826886396581976
-46.826886396581976
-47.705806057831694
-48.48706797894255
-48.291752498664835
-48.291752498664835
-48.291752498664835
-48.291752498664835
-46.33859769588769
-44.873731593804834
-41.358052948805984
-38.33066300450141
-38.91660944533455
-30.22507057297627
-23.58434424353399
-25.049210345616846
-10.400549324788281
0.6347753109025711
17.236591134508277
32.6665140764477
29.2484931715877
51.90508888380255
68.79987792782482
64.9912260624094
88.72205691615167
106.39810788128482
121.53505760280765
137.1602960250248
133.64461738002595
149.6604867627985
161.37941557946135
158.64499885557336
169.6803234912642
177.6882581826505
181.59456778820478
186.37979705500877
185.20790417334248
186.37979705500877
186.9657434958419
186.7704280155642
183.93835355153735
181.59456778820478
176.3210498207065
171.7311360341802
172.7077134355688
164.79743648432137
158.84031433585108
160.1098649576562
149.2698558022431
141.0666056305791
130.42191195544365
120.36316472114137
122.51163500419624
108.64423590447852
98.29251544975968
100.53864347295338
87.64782177462425
78.07736324101626
68.70222018768597
59.22941939421683
61.37788967727169
51.31914244296941
43.99481193255512
45.55733577477684
37.549401083390556
31.68993667505913
27.295338368810558
22.510109102006563
23.58434424353399
18.506141756313422
14.892805371175708
15.674067292286564
11.670099946593423
8.74036774242771
4.638742656595713
0.7324330510414282
1.6113527122911422
-2.2949568932631417
-5.224689097428855
-4.541084916456855
-9.521629663538567
-13.13496604867628
-17.13893339436942
-21.045242999923705
-20.16632333867399
-25.049210345616846
-28.760204470893417
-27.97894254978256
-32.86182955672541
-36.57282368200198
-40.479133287556266
-44.38544289311055
-43.50652323186084
-48.48706797894255
-52.10040436408026
-51.22148470283055
-56.20202944991226
-59.815365835049974
-63.819333180743115
-67.62798504615854
-66.74906538490883
-70.75303273060197
-73.68276493476768
-72.99916075379568
-76.90547035934996
-79.83520256351568
-82.0813305867094
-84.42511635004196
-83.83916990920882
-85.79232471198596
-87.25719081406882
-86.96421759365225
-88.91737239642939
-90.2845807583734
-90.87052719920653
-91.74944686045625
-91.45647364003968
-92.43305104142824
-93.11665522240024
-93.01899748226138
-93.01899748226138
-92.92133974212253
-92.92133974212253
-92.92133974212253
-92.82368200198367
-92.82368200198367
-92.82368200198367
-92.72602426184481
-92.72602426184481
-92.72602426184481
-92.72602426184481
-92.62836652170596
-92.62836652170596
-92.62836652170596
-92.5307087815671
-92.5307087815671
-92.5307087815671
-92.43305104142824
-92.43305104142824
-92.43305104142824
-92.43305104142824
-92.33539330128939
-92.33539330128939
-92.33539330128939
-92.23773556115053
-92.23773556115053
-91.26115815976196
-90.47989623865111
-90.57755397878996
-86.76890211337454
-83.74151216906996
-84.42511635004196
-76.61249713893339
-70.65537499046312
-58.54581521324483
-47.90112153810941
-50.24490730144198
-29.63912413214313
-14.11154345006485
-17.52956435492485
6.982528419928283
25.342183566033416
47.998779278248264
69.67879758907453
64.79591058213168
92.62836652170596
113.13649195086595
108.54657816433966
132.47272449835967
149.95345998321508
164.21149004348823
179.05546654459448
175.73510337987335
188.8212405584802
198.1963836118105
196.04791332875564
204.15350576028078
209.91531242847333
211.38017853055618
213.82162203402763
213.2356755931945
212.35675593194478
211.47783627069504
211.5754940108339
207.66918440527962
204.64179446097506
198.58701457236592
193.1181811245899
194.2900740062562
185.30556191348134
178.66483558403905
180.03204394598308
169.19203479056992
161.08644235904478
149.4651712825208
138.62516212710764
140.96894789044023
127.00389105058366
116.6521705958648
118.89829861905852
105.0308995193408
94.67917906462196
84.52277409018082
74.36636911573969
76.61249713893339
66.55374990463112
59.13176165407798
60.79194323643854
51.80743114366369
45.16670481422141
39.014267185473415
32.764171816586554
34.131380178530556
27.100022888532845
21.92416266117342
23.096055542839704
17.13893339436942
12.74433508812085
6.982528419928283
1.6113527122911422
2.783245593957427
-3.076218814373999
-7.470817120622568
-6.494239719233997
-13.427939269092851
-18.60379949645228
-24.072632944228275
-29.541466392004274
-28.369573510337986
-35.303273060196844
-40.38147554741741
-39.20958266575113
-46.14328221560998
-51.31914244296941
-55.90905622949569
-60.59662775616083
-59.522392614633404
-65.47951476310368
-69.77645532921339
-68.79987792782482
-73.78042267490653
-77.39375906004425
-81.39772640573739
-85.20637827115281
-84.3274586099031
-89.30800335698481
-92.92133974212253
-92.04242008087282
-95.06981002517739
-97.21828030823224
-99.56206607156481
-101.90585183489738
-101.31990539406424
-103.37071793698024
-104.73792629892424
-104.44495307850767
-106.39810788128482
-107.76531624322881
-109.32784008545052
-110.89036392767224
-110.49973296711681
-111.47631036850538
-112.15991454947738
-111.96459906919966
-112.94117647058823
-113.62478065156023
-115.38261997405966
-116.84748607614252
-116.45685511558709
-117.43343251697566
-118.11703669794767
-117.92172121766994
-118.89829861905852
-119.58190280003052
-119.3865873197528
-119.3865873197528
-119.3865873197528
-117.43343251697566
-115.87090867475395
-116.16388189517052
-112.25757228961623
-109.23018234531166
-102.19882505531396
-96.14404516670481
-97.41359578850995
-83.74151216906996
-73.3897917143511
-75.63591973754482
-56.006713969634546
-41.26039520866713
-20.654612039368278
-1.416037232013428
-5.615320057984283
20.068665598535134
39.11192492561227
34.81498435950255
59.62005035477226
77.97970550087739
94.87449454489968
112.06225680933852
108.2536049439231
126.22262912947281
139.4064240482185
136.37903410391394
148.48859388113223
157.1801327534905
161.86770428015564
167.4341954680705
166.16464484626536
170.1686121919585
173.09834439612422
172.31708247501336
172.41474021515222
172.31708247501336
170.3639276722362
168.89906157015335
169.09437705043106
164.21149004348823
160.50049591821164
161.2817578393225
154.34805828946364
149.17219806210423
140.67597467002366
132.96101319905395
134.62119478141452
122.70695048447395
113.9177538719768
115.77325093461509
102.00350957503625
91.65178912031739
80.51880674448768
69.58113984893568
72.02258335240711
60.01068131532769
51.22148470283055
53.07698176546884
41.26039520866713
32.37354085603113
25.732814526588847
18.60379949645228
20.16632333867399
12.158388647287708
6.298924238956283
7.666132600900283
-0.24414435034714274
-6.103608758678568
-10.498207064927138
-15.283436331731137
-14.209201190203707
-21.14290074006256
-26.22110322728313
-25.049210345616846
-31.103990234225986
-35.4009308003357
-40.186160067139696
-44.873731593804834
-43.79949645227741
-50.73319600213626
-55.81139848935683
-54.639505607690545
-59.71770809491112
-63.33104448004883
-68.21393148699168
-72.80384527351796
-71.72961013199054
-76.71015487907225
-80.42114900434882
-79.54222934309911
-84.52277409018082
-88.13611047531853
-92.04242008087282
-95.9487296864271
-95.06981002517739
-98.97611963073167
-101.90585183489738
-101.22224765392538
-105.12855725947966
-108.05828946364538
-110.20675974670024
-112.5505455100328
-111.96459906919966
-115.87090867475395
-118.80064087891967
-118.11703669794767
-120.16784924086366
-121.53505760280765
-124.07415884641794
-126.32028686961166
-125.73434042877851
-127.78515297169452
-129.1523613336385
-128.76173037308308
-129.8359655146105
-130.5195696955825
-130.3242542153048
-130.22659647516593
-130.22659647516593
-129.25001907377737
-128.4687571526665
-128.56641489280537
-125.63668268863965
-123.39055466544595
-116.16388189517052
-110.10910200656139
-111.37865262836652
-99.65972381170367
-90.77286945906768
-92.72602426184481
-76.02655069810025
-63.42870222018769
-47.11985961699855
-31.592278934920273
-35.010299839780274
-13.232623788815136
2.783245593957427
-0.7324330510414282
18.11551079575799
32.08056763561456
45.16670481422141
58.44815747310597
55.51842526894026
68.60456244754711
78.07736324101626
75.9288929579614
84.91340505073624
91.55413138017853
94.77683680476082
98.78080415045396
97.90188448920424
99.95269703212024
101.31990539406424
101.02693217364767
101.02693217364767
101.02693217364767
99.07377737087053
97.51125352864881
97.80422674906538
92.92133974212253
89.21034561684596
89.99160753795681
84.13214312962539
79.63988708323797
72.02258335240711
65.08888380254825
66.65140764476998
56.690318150606544
49.365987640192266
50.928511482413974
40.08850232700084
31.9829098954757
23.291371023117417
14.697489890897993
16.55298695353628
7.568474860761425
0.9277485313191425
2.392614633401999
-5.420004577706569
-11.279468986037996
-16.650644693675137
-22.119478141451133
-20.947585259784848
-26.90470740825513
-31.2993057145037
-30.322728313115128
-35.303273060196844
-38.91660944533455
-42.92057679102769
-46.826886396581976
-45.947966735332265
-50.83085374227512
-54.54184786755169
-53.66292820630198
-58.643472953383686
-62.2568093385214
-65.28419928282597
-68.4092469672694
-67.62798504615854
-72.60852979324025
-76.22186617837797
-75.34294651712825
-79.3469138628214
-82.27664606698711
-85.40169375143053
-88.52674143587396
-87.7454795147631
-91.74944686045625
-94.67917906462196
-93.99557488364995
-96.92530708781567
-99.07377737087053
-102.39414053559167
-105.42153047989623
-104.73792629892424
-106.78873884184024
-108.15594720378424
-107.86297398336767
-110.69504844739453
-112.94117647058823
-114.30838483253224
-115.87090867475395
-115.48027771419852
-117.43343251697566
-118.80064087891967
-118.5076676585031
-120.36316472114137
-121.82803082322422
-123.39055466544595
-124.8554207675288
-124.56244754711223
-125.5390249485008
-126.22262912947281
-126.0273136491951
-126.9062333104448
-127.68749523155566
-127.39452201113909
-127.39452201113909
-127.39452201113909
-124.46478980697337
-122.21866178377967
-122.70695048447395
-117.72640573739223
-114.01541161211567
-114.79667353322652
-106.00747692072939
-99.3667505912871
-89.30800335698481
-80.03051804379339
-82.0813305867094
-66.3584344243534
-54.54184786755169
-40.86976424811169
-27.68596932936599
-30.615701533531702
-14.697489890897993
-2.8809033340962844
-5.517662317845426
7.373159380483711
16.943617914091707
24.365606164644845
32.178225375753414
30.420386053253985
37.549401083390556
42.62760357061112
41.45571068894484
45.55733577477684
48.38941023880369
49.658960860608836
51.31914244296941
50.928511482413974
50.928511482413974
50.928511482413974
50.928511482413974
49.951934081025406
49.17067215991455
46.43625543602655
44.19012741283284
44.67841611352712
39.79552910658427
36.0845349813077
36.86579690241855
31.00633249408713
26.514076447699704
21.826504921034562
17.13893339436942
18.11551079575799
11.181811245899137
6.103608758678568
7.177843900205997
0.24414435034714274
-4.736400396734569
-9.326314183260854
-14.013885709925994
-13.037308308537423
-18.017853055619135
-21.63118944075685
-20.84992751964599
-23.87731746395056
-26.025787747005417
-29.346150911726557
-32.471198596169984
-31.787594415197987
-34.81498435950255
-36.96345464255741
-36.475165941863125
-39.40489814602884
-41.651026169222554
-43.99481193255512
-46.240939955748836
-45.75265125505455
-49.658960860608836
-52.588693064774546
-51.90508888380255
-54.932478828107115
-57.08094911116198
-59.42473487449455
-61.768520637827116
-61.28023193713283
-65.18654154268711
-68.11627374685283
-67.43266956588083
-70.36240177004655
-72.60852979324025
-74.95231555657283
-77.19844357976653
-76.71015487907225
-79.63988708323797
-81.78835736629281
-81.30006866559853
-83.25322346837568
-84.71808957045853
-86.28061341268025
-87.84313725490196
-87.45250629434653
-88.4290836957351
-89.1126878767071
-88.91737239642939
-90.87052719920653
-92.33539330128939
-93.8979171435111
-95.36278324559396
-95.06981002517739
-96.04638742656596
-96.72999160753795
-96.53467612726024
-97.51125352864881
-98.19485770962082
-98.97611963073167
-99.65972381170367
-99.46440833142596
-100.44098573281453
-101.12458991378652
-100.92927443350881
-100.92927443350881
-100.92927443350881
-98.97611963073167
-97.51125352864881
-97.80422674906538
-93.8979171435111
-90.87052719920653
-91.45647364003968
-85.59700923170824
-81.10475318532082
-72.60852979324025
-64.89356832227054
-66.55374990463112
-53.760585946440834
-44.19012741283284
-46.240939955748836
-33.3501182574197
-23.87731746395056
-14.50217441062028
-5.127031357289998
-7.177843900205997
2.68558785381857
10.009918364232853
8.44739452201114
15.47875181200885
20.55695429922942
24.17029068436713
28.174258030060273
27.295338368810558
29.346150911726557
30.811017013809415
30.518043793392845
31.494621194781413
32.178225375753414
32.08056763561456
32.08056763561456
32.08056763561456
30.127412832837415
28.66254673075456
28.95551995117113
27.002365148393988
25.439841306172273
22.021820401312276
18.89677271686885
19.58037689784085
15.674067292286564
12.646677347981994
13.330281528953995
9.326314183260854
6.39658197909514
3.2715342946517127
0.14648661020828566
0.8300907911802854
-3.076218814373999
-6.005951018539712
-5.322346837567712
-8.349736781872283
-10.498207064927138
-11.963073167009995
-13.525597009231708
-13.13496604867628
-14.209201190203707
-14.892805371175708
-14.795147631036851
-15.771725032425422
-16.45532921339742
-18.21316853589685
-19.775692378118563
-19.385061417563133
-20.361638818951704
-21.14290074006256
-20.947585259784848
-21.92416266117342
-22.705424582284277
-24.365606164644845
-25.92813000686656
-25.537499046311133
-26.61173418783856
-27.295338368810558
-27.100022888532845
-29.053177691309987
-30.518043793392845
-32.08056763561456
-33.64309147783627
-33.3501182574197
-35.303273060196844
-36.768139162279695
-36.37750820172427
-38.42832074464027
-39.79552910658427
-40.479133287556266
-41.26039520866713
-41.065079728389414
-44.873731593804834
-47.90112153810941
-47.21751735713741
-53.07698176546884
-57.471580071717405
-62.15915159838254
-66.84672312504769
-65.77248798352025
-68.79987792782482
-71.04600595101854
-70.4600595101854
-69.58113984893568
-68.79987792782482
-66.16311894407569
-63.819333180743115
-64.3076218814374
-58.44815747310597
-54.053559166857404
-54.932478828107115
-48.97535667963683
-44.580758373388264
-42.72526131074998
-40.186160067139696
-40.772106507972836
-41.5533684290837
-42.33463035019455
-42.13931486991684
-41.26039520866713
-40.479133287556266
-38.72129396505684
-37.15877012283513
-37.4517433432517
-33.545433737697415
-30.615701533531702
-31.2993057145037
-24.4632639047837
-19.287403677424276
-11.767757686732281
-4.834058136873426
-6.39658197909514
4.345769436179141
12.45136186770428
10.595864805065995
20.55695429922942
27.881284809643702
33.93606469825284
40.186160067139696
38.818951705195694
45.75265125505455
50.83085374227512
49.75661860074769
52.78400854505226
54.932478828107115
56.39734493018997
57.95986877241169
57.56923781185626
57.66689555199512
57.56923781185626
57.56923781185626
56.59266041046769
55.90905622949569
53.17463950560769
50.83085374227512
51.31914244296941
48.38941023880369
46.14328221560998
46.63157091630426
41.74868390936141
38.03768978408484
34.0337224383917
30.127412832837415
31.00633249408713
26.025787747005417
22.314793621728846
23.19371328297856
18.21316853589685
14.50217441062028
11.47478446631571
8.349736781872283
9.033340962844282
6.982528419928283
5.517662317845426
5.810635538261997
3.8574807354848555
2.392614633401999
1.8066681925688564
0.9277485313191425
1.1230640115968566
0.14648661020828566
-0.537117570763714
-0.34180209048599985
-0.34180209048599985
-0.34180209048599985
-1.3183794918745708
-2.0996414129854277
-1.9043259327077133
-2.8809033340962844
-3.662165255207141
-3.466849774929427
-4.443427176317998
-5.127031357289998
-6.005951018539712
-6.787212939650568
-6.591897459372854
-8.545052262149996
-10.009918364232853
-9.619287403677424
-10.693522545204852
-11.377126726176853
-13.13496604867628
-14.697489890897993
-14.306858930342566
-15.381094071869994
-16.064698252841993
-15.869382772564279
-16.84596017395285
-17.627222095063708
-18.40848401617456
-19.18974593728542
-18.994430457007706
-19.971007858396277
-20.752269779507134
-20.55695429922942
-21.533531700617992
-22.21713588158999
-23.974975204089418
-25.537499046311133
-25.146868085755703
-26.22110322728313
-26.90470740825513
-26.709391927977418
-27.68596932936599
-28.467231250476843
-29.2484931715877
-30.029755092698558
-29.834439612420844
-30.811017013809415
-31.494621194781413
-31.2993057145037
-31.396963454642556
-31.396963454642556
-30.420386053253985
-29.63912413214313
-29.834439612420844
-29.736781872281988
-29.736781872281988
-29.736781872281988
-27.783627069504846
-26.318760967421987
-23.779659723811704
-21.43587396047913
-21.92416266117342
-17.041275654230564
-13.427939269092851
-14.209201190203707
-8.252079041733426
-3.8574807354848555
3.662165255207141
10.498207064927138
9.033340962844282
17.920195315480278
24.560921644922562
23.096055542839704
31.00633249408713
36.86579690241855
41.26039520866713
46.04562447547112
44.97138933394369
48.97535667963683
51.90508888380255
51.22148470283055
52.295719844357976
52.97932402532997
52.881666285191116
52.881666285191116
52.78400854505226
49.951934081025406
47.705806057831694
48.19409475852598
45.16670481422141
43.018234531166556
39.600213626306555
36.57282368200198
37.256427862973986
32.27588311589227
28.564888990615703
29.443808651865414
25.439841306172273
22.412451361867703
18.310826276035705
14.50217441062028
15.283436331731137
12.256046387426567
10.10757610437171
10.595864805065995
8.545052262149996
7.080186160067139
6.39658197909514
5.615320057984283
5.810635538261997
6.6895551995117115
7.470817120622568
7.275501640344854
7.275501640344854
7.275501640344854
8.252079041733426
9.033340962844282
8.838025482566568
7.959105821316854
7.177843900205997
7.373159380483711
7.275501640344854
7.275501640344854
6.298924238956283
5.615320057984283
5.71297779812314
3.7598229953459983
2.2949568932631417
2.68558785381857
0.6347753109025711
-0.7324330510414282
-1.3183794918745708
-2.0996414129854277
-2.0019836728465705
-3.9551384756237127
-5.420004577706569
-5.0293736171511405
-7.080186160067139
-8.545052262149996
-10.10757610437171
-11.670099946593423
-11.279468986037996
-12.353704127565424
-13.037308308537423
-12.84199282825971
-13.81857022964828
-14.599832150759136
-15.381094071869994
-16.16235599298085
-15.967040512703136
-15.967040512703136
-15.967040512703136
-15.967040512703136
-15.967040512703136
-15.967040512703136
-15.967040512703136
-15.967040512703136
-15.967040512703136
-15.967040512703136
-15.967040512703136
-15.967040512703136
-14.990463111314565
-14.209201190203707
-14.404516670481422
-14.404516670481422
-14.404516670481422
-15.283436331731137
-16.064698252841993
-15.869382772564279
-15.869382772564279
-15.869382772564279
-16.84596017395285
-17.627222095063708
-17.43190661478599
-17.43190661478599
-17.43190661478599
-17.43190661478599
-18.40848401617456
-19.092088197146563
-18.89677271686885
-18.994430457007706
-18.994430457007706
-19.87335011825742
-20.654612039368278
-20.45929655909056
-19.58037689784085
-18.799114976729992
-18.994430457007706
-18.89677271686885
-18.89677271686885
-17.920195315480278
-17.236591134508277
-17.334248874647134
-17.334248874647134
-17.334248874647134
-16.357671473258563
-15.576409552147707
-15.771725032425422
-15.771725032425422
-15.771725032425422
-15.771725032425422
-14.795147631036851
-14.013885709925994
-14.209201190203707
-14.11154345006485
-14.11154345006485
-13.13496604867628
-12.45136186770428
-12.646677347981994
-10.693522545204852
-9.130998702983138
-6.591897459372854
-4.345769436179141
-4.834058136873426
0.9277485313191425
5.322346837567712
4.345769436179141
13.13496604867628
19.775692378118563
29.736781872281988
39.014267185473415
36.96345464255741
49.75661860074769
59.32707713435569
57.178606851300835
68.11627374685283
76.22186617837797
82.96025024795911
89.99160753795681
88.4290836957351
93.50728618295567
97.12062256809338
96.24170290684367
98.29251544975968
99.75738155184253
99.3667505912871
99.46440833142596
99.3667505912871
97.41359578850995
95.9487296864271
96.24170290684367
93.31197070267795
91.06584267948425
87.64782177462425
84.52277409018082
85.20637827115281
81.20241092545967
78.27267872129397
78.85862516212711
73.97573815518425
70.26474402990769
66.26077668421455
62.35446707866026
63.233386739909974
58.25284199282826
54.54184786755169
55.32310978866255
50.34256504158083
46.63157091630426
43.604180971999696
40.479133287556266
41.16273746852827
38.1353475242237
35.889219501029984
36.37750820172427
34.32669565880827
32.86182955672541
32.27588311589227
31.396963454642556
31.592278934920273
31.592278934920273
31.592278934920273
31.592278934920273
30.615701533531702
29.834439612420844
29.053177691309987
28.27191577019913
28.369573510337986
27.392996108949415
26.61173418783856
26.807049668116274
24.853894865339132
23.389028763256274
21.826504921034562
20.263981078812847
20.55695429922942
18.60379949645228
17.13893339436942
17.43190661478599
15.381094071869994
13.916227969787137
11.377126726176853
9.130998702983138
9.619287403677424
7.568474860761425
6.103608758678568
6.494239719233997
4.443427176317998
2.9785610742351416
1.416037232013428
-0.04882887006942855
0.24414435034714274
-1.7090104524299992
-3.1738765545128556
-2.783245593957427
-3.8574807354848555
-4.541084916456855
-4.443427176317998
-5.420004577706569
-6.103608758678568
-6.884870679789426
-7.666132600900283
-7.568474860761425
-7.568474860761425
-7.568474860761425
-8.545052262149996
-9.228656443121995
-9.033340962844282
-9.130998702983138
-9.130998702983138
-9.130998702983138
-9.130998702983138
-9.130998702983138
-9.130998702983138
-9.130998702983138
-9.130998702983138
-10.009918364232853
-10.79118028534371
-10.595864805065995
-10.595864805065995
-10.595864805065995
-11.572442206454566
-12.353704127565424
-12.158388647287708
-12.158388647287708
-12.158388647287708
-12.158388647287708
-12.158388647287708
-12.158388647287708
-12.158388647287708
-12.158388647287708
-12.158388647287708
-13.13496604867628
-13.81857022964828
-13.720912489509422
-13.720912489509422
-13.720912489509422
-13.720912489509422
-13.720912489509422
-13.720912489509422
-12.74433508812085
-11.963073167009995
-12.158388647287708
-12.060730907148852
-12.060730907148852
-10.205233844510566
-8.74036774242771
-9.033340962844282
-6.103608758678568
-3.8574807354848555
-4.345769436179141
0.43945983062485694
4.150453955901427
10.888838025482567
17.041275654230564
15.674067292286564
24.560921644922562
31.201647974364842
29.736781872281988
39.600213626306555
46.92454413672083
53.85824368657969
60.8896009765774
59.32707713435569
66.26077668421455
71.43663691157397
70.26474402990769
74.26871137560083
77.19844357976653
78.46799420157168
80.03051804379339
79.63988708323797
79.73754482337682
79.63988708323797
79.63988708323797
77.68673228046082
76.22186617837797
74.5616845960174
72.99916075379568
73.29213397421225
70.36240177004655
68.11627374685283
68.60456244754711
65.57717250324254
63.42870222018769
60.01068131532769
56.983291371023114
57.56923781185626
52.6863508049134
48.97535667963683
49.75661860074769
44.77607385366598
41.065079728389414
37.15877012283513
33.252460517280845
34.131380178530556
30.029755092698558
27.100022888532845
27.783627069504846
24.756237125200276
22.510109102006563
21.14290074006256
19.48271915770199
19.87335011825742
18.799114976729992
18.11551079575799
18.21316853589685
17.236591134508277
16.55298695353628
16.650644693675137
16.650644693675137
16.650644693675137
15.674067292286564
14.892805371175708
15.088120851453422
14.11154345006485
13.330281528953995
12.549019607843137
11.767757686732281
11.963073167009995
10.986495765621424
10.205233844510566
10.400549324788281
8.44739452201114
6.982528419928283
6.298924238956283
5.517662317845426
5.71297779812314
3.7598229953459983
2.197299153124285
2.5879301136797133
1.513694972152285
0.8300907911802854
-0.8300907911802854
-2.392614633401999
-2.0019836728465705
-3.9551384756237127
-5.420004577706569
-5.127031357289998
-7.080186160067139
-8.545052262149996
-9.228656443121995
-10.009918364232853
-9.81460288395514
-10.79118028534371
-11.572442206454566
-11.377126726176853
-12.353704127565424
-13.13496604867628
-12.939650568398566
-12.939650568398566
-12.939650568398566
-12.939650568398566
-12.939650568398566
-12.939650568398566
-13.916227969787137
-14.599832150759136
-14.50217441062028
-14.50217441062028
-14.50217441062028
-14.50217441062028
-14.50217441062028
-14.50217441062028
-14.50217441062028
-14.50217441062028
-13.525597009231708
-12.74433508812085
-12.939650568398566
-12.84199282825971
-12.939650568398566
-12.84199282825971
-12.84199282825971
-12.84199282825971
-12.84199282825971
-12.84199282825971
-12.84199282825971
-12.84199282825971
-12.84199282825971
-12.84199282825971
-12.84199282825971
-12.84199282825971
-12.84199282825971
-12.84199282825971
-12.84199282825971
-12.84199282825971
-12.84199282825971
-12.84199282825971
-11.865415426871138
-11.08415350576028
-9.326314183260854
-7.861448081177996
-8.154421301594567
-3.36919203479057
0.24414435034714274
-0.43945983062485694
6.298924238956283
11.47478446631571
19.87335011825742
27.588311589227132
25.830472266727703
35.79156176089113
43.11589227130541
41.45571068894484
51.31914244296941
58.643472953383686
63.72167544060426
69.19050888838025
68.01861600671397
72.02258335240711
74.95231555657283
74.26871137560083
75.34294651712825
76.02655069810025
75.83123521782254
75.83123521782254
75.83123521782254
72.90150301365682
70.65537499046312
71.1436636911574
69.0928511482414
67.62798504615854
64.11230640115969
61.08491645685512
61.67086289768826
57.764553292133975
54.7371633478294
55.420767528801406
51.416800183108265
48.48706797894255
45.26436255436027
42.13931486991684
42.822919050888835
37.94003204394598
34.22903791866941
35.010299839780274
31.00633249408713
28.076600289921416
25.830472266727703
23.48668650339513
23.974975204089418
20.947585259784848
18.799114976729992
19.287403677424276
18.21316853589685
17.43190661478599
16.650644693675137
15.869382772564279
16.064698252841993
15.088120851453422
14.306858930342566
14.50217441062028
13.525597009231708
12.74433508812085
11.963073167009995
11.181811245899137
11.377126726176853
9.42397192339971
7.861448081177996
8.252079041733426
7.177843900205997
6.494239719233997
4.736400396734569
3.1738765545128556
3.5645075150682843
1.513694972152285
0.04882887006942855
0.43945983062485694
-1.513694972152285
-2.9785610742351416
-4.541084916456855
-6.103608758678568
-5.71297779812314
-6.787212939650568
-7.470817120622568
-7.373159380483711
-9.228656443121995
-10.79118028534371
-11.377126726176853
-12.158388647287708
-11.963073167009995
-12.939650568398566
-13.720912489509422
-13.525597009231708
-14.50217441062028
-15.283436331731137
-15.088120851453422
-15.088120851453422
-15.088120851453422
-16.064698252841993
-16.84596017395285
-16.650644693675137
-16.650644693675137
-16.650644693675137
-17.627222095063708
-18.310826276035705
-18.21316853589685
-18.21316853589685
-18.21316853589685
-18.21316853589685
-19.092088197146563
-19.87335011825742
-19.678034637979707
-19.678034637979707
-19.678034637979707
-20.654612039368278
-21.43587396047913
-21.24055848020142
-21.24055848020142
-21.24055848020142
-22.21713588158999
-22.90074006256199
-22.705424582284277
-22.803082322423133
-22.803082322423133
-22.803082322423133
-22.803082322423133
-22.705424582284277
-22.705424582284277
-22.705424582284277
-22.705424582284277
-22.705424582284277
-22.705424582284277
-22.705424582284277
-21.728847180895706
-20.947585259784848
-20.16632333867399
-19.385061417563133
-19.58037689784085
-18.60379949645228
-17.82253757534142
-18.017853055619135
-15.088120851453422
-12.84199282825971
-8.545052262149996
-4.736400396734569
-5.615320057984283
1.1230640115968566
6.298924238956283
5.224689097428855
13.037308308537423
18.994430457007706
26.22110322728313
33.15480277714199
31.592278934920273
39.600213626306555
45.45967803463798
44.09246967269398
50.14724956130312
54.54184786755169
57.37392233157855
60.49897001602197
59.815365835049974
60.8896009765774
61.5732051575494
61.37788967727169
60.49897001602197
59.71770809491112
57.95986877241169
56.39734493018997
56.690318150606544
54.7371633478294
53.17463950560769
53.56527046616312
50.53788052185855
48.38941023880369
45.947966735332265
43.604180971999696
44.09246967269398
40.186160067139696
37.15877012283513
37.84237430380713
32.95948729686427
29.2484931715877
26.22110322728313
23.096055542839704
23.779659723811704
19.775692378118563
16.84596017395285
17.43190661478599
14.50217441062028
12.256046387426567
10.79118028534371
9.228656443121995
9.619287403677424
8.545052262149996
7.861448081177996
7.959105821316854
6.982528419928283
6.298924238956283
3.5645075150682843
1.3183794918745708
1.8066681925688564
-2.9785610742351416
-6.6895551995117115
-5.908293278400855
-10.79118028534371
-14.50217441062028
-16.55298695353628
-18.89677271686885
-18.40848401617456
-18.506141756313422
-18.506141756313422
-18.506141756313422
-15.576409552147707
-13.330281528953995
-10.009918364232853
-6.982528419928283
-7.666132600900283
-4.638742656595713
-2.392614633401999
-2.8809033340962844
-1.8066681925688564
-1.1230640115968566
-3.1738765545128556
-4.638742656595713
-4.345769436179141
-6.298924238956283
-7.763790341039139
-7.470817120622568
-9.42397192339971
-10.888838025482567
-12.45136186770428
-14.013885709925994
-13.720912489509422
-15.674067292286564
-17.13893339436942
-16.748302433813993
-17.82253757534142
-18.506141756313422
-19.287403677424276
-20.068665598535134
-19.87335011825742
-19.971007858396277
-19.971007858396277
-19.971007858396277
-19.87335011825742
-19.87335011825742
-19.87335011825742
-19.87335011825742
-19.87335011825742
-18.89677271686885
-18.21316853589685
-18.310826276035705
-18.310826276035705
-18.310826276035705
-18.310826276035705
-18.310826276035705
-18.310826276035705
-17.334248874647134
-16.55298695353628
-16.748302433813993
-16.650644693675137
-16.650644693675137
-16.650644693675137
-16.650644693675137
-16.650644693675137
-16.650644693675137
-16.650644693675137
-16.650644693675137
-15.674067292286564
-14.990463111314565
-15.088120851453422
-15.088120851453422
-15.088120851453422
-14.11154345006485
-13.330281528953995
-13.525597009231708
-11.572442206454566
-10.10757610437171
-5.615320057984283
-1.9043259327077133
-2.68558785381857
3.076218814373999
7.568474860761425
6.591897459372854
15.381094071869994
22.021820401312276
29.053177691309987
36.0845349813077
34.52201113908598
42.529945830472265
48.38941023880369
47.0222018768597
53.95590142671855
59.13176165407798
61.768520637827116
64.9912260624094
64.20996414129854
65.28419928282597
65.96780346379796
65.8701457236591
65.8701457236591
65.8701457236591
63.91699092088197
62.35446707866026
62.745098039215684
60.694285496299685
59.22941939421683
59.522392614633404
56.59266041046769
54.346532387273975
51.02616922255284
47.90112153810941
48.584725719081405
44.580758373388264
41.651026169222554
42.236972610055695
37.35408560311284
33.64309147783627
30.615701533531702
27.49065384908827
28.174258030060273
24.17029068436713
21.24055848020142
21.92416266117342
17.920195315480278
14.990463111314565
13.720912489509422
12.060730907148852
12.45136186770428
10.400549324788281
8.935683222705425
9.326314183260854
8.252079041733426
7.568474860761425
7.666132600900283
7.666132600900283
7.666132600900283
7.666132600900283
7.666132600900283
7.666132600900283
6.6895551995117115
5.908293278400855
5.127031357289998
4.345769436179141
4.541084916456855
2.5879301136797133
1.1230640115968566
1.416037232013428
0.43945983062485694
-0.24414435034714274
-2.0019836728465705
-3.466849774929427
-3.1738765545128556
-4.150453955901427
-4.931715877012284
-4.736400396734569
-6.6895551995117115
-8.154421301594567
-8.74036774242771
-9.619287403677424
-9.42397192339971
-11.377126726176853
-12.84199282825971
-12.45136186770428
-13.525597009231708
-14.209201190203707
-14.990463111314565
-15.771725032425422
-15.576409552147707
-15.674067292286564
-15.674067292286564
-15.674067292286564
-16.55298695353628
-17.334248874647134
-17.13893339436942
-17.236591134508277
-17.13893339436942
-17.13893339436942
-17.13893339436942
-17.13893339436942
-17.13893339436942
-17.13893339436942
-18.11551079575799
-18.799114976729992
-18.701457236591136
-17.724879835202564
-16.943617914091707
-17.13893339436942
-17.13893339436942
-17.13893339436942
-17.13893339436942
-17.13893339436942
-17.041275654230564
-17.041275654230564
-17.041275654230564
-17.041275654230564
-16.064698252841993
-15.381094071869994
-16.45532921339742
-17.13893339436942
-17.041275654230564
-19.87335011825742
-22.119478141451133
-21.63118944075685
-21.728847180895706
-21.728847180895706
-17.920195315480278
-14.892805371175708
-15.576409552147707
-7.763790341039139
-1.8066681925688564
-3.1738765545128556
6.591897459372854
13.916227969787137
23.779659723811704
33.05714503700313
30.908674753948272
39.99084458686198
46.533913176165406
45.069047074082555
50.14724956130312
53.760585946440834
52.002746623941405
51.416800183108265
51.51445792324712
50.53788052185855
49.75661860074769
49.951934081025406
47.998779278248264
46.43625543602655
43.89715419241627
41.651026169222554
42.13931486991684
37.256427862973986
33.545433737697415
34.32669565880827
30.322728313115128
27.392996108949415
23.19371328297856
19.385061417563133
20.263981078812847
15.283436331731137
11.572442206454566
12.353704127565424
8.349736781872283
5.420004577706569
4.150453955901427
2.5879301136797133
2.8809033340962844
0.9277485313191425
-0.43945983062485694
-0.14648661020828566
-0.14648661020828566
-0.14648661020828566
-0.14648661020828566
-0.14648661020828566
-0.14648661020828566
-0.14648661020828566
-0.14648661020828566
-0.14648661020828566
-0.14648661020828566
-0.14648661020828566
-1.1230640115968566
-1.9043259327077133
-1.7090104524299992
-1.7090104524299992
-1.7090104524299992
-1.7090104524299992
-2.68558785381857
-3.466849774929427
-4.248111696040284
-5.0293736171511405
-4.834058136873426
-5.810635538261997
-6.494239719233997
-6.39658197909514
-8.349736781872283
-9.81460288395514
-10.400549324788281
-11.181811245899137
-11.08415350576028
-12.060730907148852
-12.74433508812085
-12.549019607843137
-13.623254749370565
-14.306858930342566
-15.088120851453422
-15.869382772564279
-15.674067292286564
-16.650644693675137
-17.43190661478599
-17.236591134508277
-18.21316853589685
-18.994430457007706
-19.775692378118563
-20.55695429922942
-20.361638818951704
-21.338216220340275
-22.021820401312276
-21.92416266117342
-21.92416266117342
-21.92416266117342
-21.92416266117342
-21.92416266117342
-21.92416266117342
-21.826504921034562
-21.826504921034562
-21.826504921034562
-20.84992751964599
-20.16632333867399
-18.40848401617456
-16.84596017395285
-17.236591134508277
-14.209201190203707
-12.060730907148852
-12.549019607843137
-7.666132600900283
-3.9551384756237127
0.8300907911802854
5.517662317845426
4.443427176317998
13.330281528953995
19.87335011825742
18.40848401617456
26.416418707560844
32.27588311589227
37.64705882352941
43.11589227130541
41.84634164950027
46.92454413672083
50.53788052185855
49.75661860074769
52.78400854505226
54.932478828107115
55.32310978866255
56.20202944991226
56.006713969634546
55.03013656824598
54.24887464713512
54.44419012741283
52.49103532463569
51.02616922255284
49.365987640192266
47.80346379797055
48.09643701838712
45.16670481422141
42.92057679102769
43.40886549172198
40.479133287556266
38.23300526436255
35.889219501029984
33.545433737697415
34.0337224383917
31.00633249408713
28.760204470893417
29.2484931715877
25.342183566033416
22.412451361867703
20.16632333867399
17.82253757534142
18.310826276035705
15.381094071869994
13.13496604867628
13.623254749370565
11.572442206454566
10.10757610437171
8.545052262149996
6.982528419928283
7.275501640344854
6.298924238956283
5.517662317845426
5.71297779812314
5.71297779812314
5.71297779812314
4.736400396734569
3.9551384756237127
4.150453955901427
2.197299153124285
0.7324330510414282
1.0254062714579995
0.04882887006942855
-0.6347753109025711
-1.416037232013428
-2.197299153124285
-2.0019836728465705
-3.9551384756237127
-5.420004577706569
-5.127031357289998
-6.103608758678568
-6.884870679789426
-8.545052262149996
-10.10757610437171
-9.71694514381628
-10.79118028534371
-11.47478446631571
-11.377126726176853
-11.377126726176853
-11.377126726176853
-14.209201190203707
-16.45532921339742
-15.967040512703136
-20.84992751964599
-24.560921644922562
-23.682001983672848
-28.66254673075456
-32.27588311589227
-33.3501182574197
-35.010299839780274
-34.61966887922484
-34.717326619363696
-34.717326619363696
-34.717326619363696
-31.787594415197987
-29.541466392004274
-26.22110322728313
-23.19371328297856
-23.87731746395056
-18.89677271686885
-15.185778591592278
-16.064698252841993
-13.916227969787137
-12.45136186770428
-13.720912489509422
-14.404516670481422
-14.306858930342566
-14.306858930342566
-14.306858930342566
-14.306858930342566
-13.330281528953995
-12.549019607843137
-10.79118028534371
-9.326314183260854
-9.619287403677424
-5.71297779812314
-2.783245593957427
-3.466849774929427
1.416037232013428
5.0293736171511405
10.888838025482567
16.260013733119706
15.088120851453422
22.998397802700847
28.857862211032273
27.588311589227132
35.49858854047456
41.358052948805984
44.77607385366598
48.78004119935912
47.90112153810941
51.90508888380255
54.83482108796826
54.15121690699626
55.22545204852369
55.90905622949569
54.7371633478294
54.053559166857404
54.15121690699626
53.17463950560769
52.39337758449683
52.588693064774546
50.635538261997404
49.073014419775696
46.533913176165406
44.28778515297169
44.77607385366598
41.74868390936141
39.5025558861677
39.99084458686198
36.0845349813077
33.15480277714199
28.95551995117113
25.146868085755703
25.92813000686656
21.92416266117342
18.994430457007706
19.678034637979707
15.674067292286564
12.74433508812085
10.498207064927138
8.154421301594567
8.642710002288853
5.71297779812314
3.466849774929427
3.9551384756237127
2.8809033340962844
2.197299153124285
1.416037232013428
0.6347753109025711
0.8300907911802854
0.7324330510414282
0.7324330510414282
0.7324330510414282
-0.04882887006942855
-0.8300907911802854
-1.6113527122911422
-2.392614633401999
-2.197299153124285
-3.1738765545128556
-3.9551384756237127
-3.7598229953459983
-4.736400396734569
-5.517662317845426
-6.298924238956283
-7.080186160067139
-6.884870679789426
-7.861448081177996
-8.642710002288853
-8.44739452201114
-10.400549324788281
-11.865415426871138
-13.427939269092851
-14.990463111314565
-14.697489890897993
-15.674067292286564
-16.357671473258563
-16.260013733119706
-17.236591134508277
-17.920195315480278
-18.701457236591136
-19.48271915770199
-19.287403677424276
-20.361638818951704
-21.045242999923705
-20.84992751964599
-21.826504921034562
-22.60776684214542
-22.412451361867703
-22.412451361867703
-22.412451361867703
-22.412451361867703
-22.412451361867703
-22.412451361867703
-23.389028763256274
-24.072632944228275
-23.87731746395056
-23.974975204089418
-23.974975204089418
-23.87731746395056
-23.87731746395056
-23.87731746395056
-22.90074006256199
-22.21713588158999
-21.43587396047913
-20.654612039368278
-20.752269779507134
-19.775692378118563
-18.994430457007706
-19.18974593728542
-16.260013733119706
-14.11154345006485
-9.81460288395514
-6.005951018539712
-6.787212939650568
0.04882887006942855
5.127031357289998
3.9551384756237127
12.84199282825971
19.48271915770199
25.63515678644999
31.885252155336843
30.420386053253985
36.475165941863125
40.86976424811169
39.893186846723125
44.873731593804834
48.48706797894255
49.56130312046998
51.22148470283055
50.83085374227512
50.928511482413974
50.928511482413974
50.83085374227512
50.83085374227512
50.83085374227512
48.877698939497975
47.412832837415124
47.705806057831694
45.75265125505455
44.28778515297169
44.580758373388264
42.529945830472265
41.065079728389414
39.5025558861677
37.94003204394598
38.23300526436255
34.32669565880827
31.396963454642556
31.9829098954757
29.053177691309987
26.807049668116274
23.48668650339513
20.361638818951704
21.045242999923705
17.041275654230564
14.11154345006485
14.795147631036851
11.767757686732281
9.521629663538567
4.345769436179141
-0.14648661020828566
0.7324330510414282
-6.005951018539712
-11.181811245899137
-10.009918364232853
-15.967040512703136
-20.361638818951704
-22.314793621728846
-24.756237125200276
-24.17029068436713
-24.267948424505988
-24.267948424505988
-24.267948424505988
-21.338216220340275
-19.18974593728542
-14.892805371175708
-10.986495765621424
-11.865415426871138
-6.884870679789426
-3.2715342946517127
-4.052796215762569
-2.8809033340962844
-2.197299153124285
-3.36919203479057
-4.052796215762569
-3.8574807354848555
-5.810635538261997
-7.275501640344854
-6.982528419928283
-7.959105821316854
-8.74036774242771
-10.498207064927138
-11.963073167009995
-11.670099946593423
-12.646677347981994
-13.330281528953995
-13.232623788815136
-14.209201190203707
-14.892805371175708
-16.650644693675137
-18.21316853589685
-17.82253757534142
-18.89677271686885
-19.58037689784085
-19.385061417563133
-21.338216220340275
-22.803082322423133
-23.48668650339513
-24.267948424505988
-24.072632944228275
-26.025787747005417
-27.49065384908827
-27.100022888532845
-28.174258030060273
-28.857862211032273
-28.66254673075456
-28.760204470893417
-28.760204470893417
-29.63912413214313
-30.420386053253985
-30.22507057297627
-30.22507057297627
-30.22507057297627
-29.2484931715877
-28.564888990615703
-28.66254673075456
-27.68596932936599
-26.90470740825513
-27.100022888532845
-23.19371328297856
-20.263981078812847
-15.185778591592278
-10.595864805065995
-11.572442206454566
-4.638742656595713
0.34180209048599985
-0.6347753109025711
7.080186160067139
13.037308308537423
19.287403677424276
25.537499046311133
24.17029068436713
30.22507057297627
34.52201113908598
33.545433737697415
37.64705882352941
40.479133287556266
40.772106507972836
41.651026169222554
41.45571068894484
41.5533684290837
41.45571068894484
41.45571068894484
39.600213626306555
38.03768978408484
36.475165941863125
34.91264209964141
35.20561532005799
32.27588311589227
30.029755092698558
30.518043793392845
27.588311589227132
25.342183566033416
22.021820401312276
18.89677271686885
19.58037689784085
15.576409552147707
12.646677347981994
13.330281528953995
9.326314183260854
6.39658197909514
4.248111696040284
1.8066681925688564
2.392614633401999
0.34180209048599985
-1.0254062714579995
-0.7324330510414282
-2.68558785381857
-4.150453955901427
-3.8574807354848555
-3.8574807354848555
-3.8574807354848555
-3.8574807354848555
-3.8574807354848555
-3.8574807354848555
-4.834058136873426
-5.615320057984283
-5.420004577706569
-5.420004577706569
-5.420004577706569
-6.39658197909514
-7.177843900205997
-6.982528419928283
-7.959105821316854
-8.642710002288853
-9.42397192339971
-10.205233844510566
-10.10757610437171
-11.08415350576028
-11.767757686732281
-11.670099946593423
-13.525597009231708
-15.088120851453422
-15.674067292286564
-16.45532921339742
