ExG_CH1;ExG_CH2;ExG_CH3;ExG_CH4;ExG_CH5;ExG_CH6
475;567;659;711;696;676
478;504;557;606;619;620
500;513;549;592;615;627
473;514;561;607;639;653
459;472;498;532;562;584
491;482;489;509;531;555
483;510;536;562;582;598
450;476;502;527;547;564
471;462;467;481;495;514
481;496;512;531;543;556
446;480;510;535;551;561
452;450;460;474;487;502
476;477;483;497;507;520
450;485;514;538;552;559
435;446;463;480;494;506
470;459;461;471;480;492
467;491;512;531;542;548
444;464;485;503;516;524
479;462;460;467;473;484
499;505;515;527;532;537
479;502;523;540;549;550
502;488;486;492;496;502
540;528;525;529;529;532
527;550;569;582;586;583
525;524;529;537;540;542
566;547;539;540;538;540
568;585;598;609;610;606
548;561;575;586;590;589
577;558;553;553;553;556
590;598;606;613;615;613
558;585;607;622;629;627
566;558;560;567;572;577
594;589;590;597;600;604
567;598;622;639;647;647
552;559;570;582;591;597
583;571;570;575;580;588
574;597;617;633;642;644
541;562;582;599;610;617
563;551;550;558;565;576
570;584;598;610;618;624
534;565;591;611;624;629
540;535;540;551;561;572
567;564;569;579;585;594
540;571;597;617;629;633
526;532;544;558;569;580
558;546;545;552;558;569
548;573;594;610;620;625
519;539;559;576;588;595
545;532;531;538;544;556
556;568;581;593;600;606
520;551;576;595;607;611
531;525;528;537;546;556
554;553;558;567;573;581
524;558;585;605;616;620
511;518;531;545;556;566
544;533;533;540;546;557
533;559;581;598;608;612
505;525;545;563;576;583
533;520;518;525;532;543
543;556;569;581;589;595
509;538;563;582;594;598
520;513;516;525;533;544
546;544;548;557;562;570
518;550;576;595;606;610
509;513;524;537;547;556
541;529;527;534;540;550
530;557;576;593;602;606
503;522;541;557;569;575
532;517;515;521;527;538
541;553;566;578;585;590
507;535;559;578;589;594
519;511;514;522;530;540
546;544;548;556;561;568
517;550;575;594;604;607
509;513;524;536;546;554
540;530;528;535;540;549
530;555;576;593;602;605
500;520;539;556;567;574
528;515;513;520;526;537
541;553;566;578;585;590
503;533;557;577;588;592
516;509;512;520;528;540
542;541;545;554;560;567
512;545;571;591;601;604
502;506;517;530;541;550
535;524;523;529;535;545
524;549;570;587;596;600
496;514;533;549;560;569
525;511;509;515;521;532
536;549;561;574;580;585
503;530;554;572;583;587
519;509;510;518;525;536
543;541;545;553;558;565
511;544;570;588;598;601
499;505;516;528;538;547
535;523;522;529;535;545
521;548;570;587;597;600
494;513;531;548;559;567
522;509;507;514;520;531
528;544;558;571;578;584
496;525;549;568;579;584
507;500;503;512;520;531
527;529;535;545;552;560
498;532;559;579;590;594
495;497;507;520;530;540
529;518;516;522;528;538
517;543;565;581;590;594
490;508;526;542;553;560
517;503;502;508;515;526
522;538;552;566;573;579
489;517;541;560;572;577
501;493;496;505;513;524
530;528;533;542;548;556
502;533;558;576;587;590
492;495;505;516;527;537
520;511;512;519;525;535
503;532;556;574;584;588
475;494;514;531;544;553
508;494;492;499;507;518
522;534;547;560;567;573
487;514;537;555;566;571
497;490;492;500;508;519
517;520;527;537;543;551
482;518;546;567;579;583
481;484;495;507;518;529
519;507;506;513;519;528
508;534;555;571;580;584
483;499;516;531;542;549
517;501;498;503;508;518
528;541;553;565;571;575
499;524;545;561;571;574
511;502;502;509;515;524
533;534;539;548;553;559
504;536;561;580;590;592
499;501;509;521;530;538
531;521;520;527;532;540
517;544;566;583;592;595
483;502;521;538;550;557
495;489;492;501;510;523
483;510;532;551;564;572
431;471;504;531;549;560
432;435;447;464;481;499
463;468;481;497;511;526
518;523;534;547;557;561
599;555;533;526;522;524
653;611;582;566;551;546
642;651;652;649;637;622
599;611;617;618;612;602
579;580;582;584;582;581
543;581;610;628;636;637
486;532;570;599;617;624
488;494;509;528;546;562
501;514;532;552;570;586
473;510;543;571;592;604
472;475;488;505;523;540
503;495;498;508;519;536
483;513;538;559;573;583
461;477;495;513;528;540
492;478;477;485;493;508
496;513;529;544;553;561
467;492;515;534;546;553
488;477;477;484;492;503
511;512;518;527;532;540
479;511;537;556;566;569
473;475;484;496;505;515
506;497;497;505;510;520
493;520;543;560;570;573
471;485;502;516;527;535
502;488;485;491;497;507
502;521;537;551;559;563
465;494;519;538;550;555
480;472;476;485;493;504
500;505;513;525;533;541
471;504;531;551;564;568
474;473;481;493;503;513
512;501;499;505;510;519
500;526;547;563;571;574
477;491;506;520;529;536
508;494;491;496;501;510
510;528;544;557;564;567
469;498;523;542;553;558
483;476;479;488;497;508
503;508;517;529;537;545
469;503;531;552;565;570
470;470;478;491;502;513
504;494;494;502;508;518
485;514;537;556;566;570
460;475;492;508;520;529
485;474;474;482;490;501
481;503;522;539;549;555
443;473;499;521;535;543
460;452;456;467;477;491
480;486;496;509;518;528
446;481;509;531;544;551
446;447;456;470;482;494
484;474;476;483;490;500
471;498;520;538;548;552
456;467;481;495;505;513
497;478;473;477;481;490
505;519;532;543;548;550
479;500;519;534;542;544
516;497;491;493;496;502
554;547;546;549;549;550
536;558;574;585;588;584
547;535;533;536;536;538
586;568;560;559;556;556
570;592;609;620;621;616
550;558;568;577;581;581
585;566;559;560;560;564
587;602;614;624;627;626
553;576;595;609;617;618
572;559;557;561;565;572
591;594;600;607;611;615
559;589;613;630;639;640
559;556;561;570;577;585
590;580;579;584;588;595
567;597;619;636;644;646
541;555;571;585;595;602
570;557;556;562;568;578
573;592;608;622;630;635
539;563;585;603;615;620
555;544;544;552;560;571
570;576;585;596;603;610
532;567;593;613;625;630
528;529;537;549;560;572
559;552;554;562;569;580
537;568;593;611;623;628
517;530;545;560;572;582
550;535;532;538;545;557
546;566;583;598;607;612
510;536;559;577;589;596
534;522;521;528;536;548
554;558;565;576;582;589
521;552;577;595;606;610
521;519;525;535;544;554
548;542;543;550;556;565
526;557;581;599;610;613
508;520;534;548;560;568
544;529;525;530;536;546
543;562;578;592;599;604
510;534;556;572;583;590
530;519;518;525;531;542
545;552;561;572;578;585
512;544;570;589;601;604
515;512;520;529;538;548
547;541;540;547;552;561
525;555;579;597;607;610
503;515;530;545;556;564
537;523;521;527;533;543
537;557;574;588;596;600
509;531;552;568;579;585
532;518;517;523;529;539
548;554;561;572;577;583
510;543;568;587;598;602
513;510;516;526;536;546
545;538;538;545;551;560
527;557;578;596;605;608
509;518;531;545;555;562
538;524;522;527;533;543
530;553;572;587;595;601
501;525;546;564;576;582
528;514;512;518;525;536
544;550;558;568;575;580
511;542;566;584;595;598
512;510;515;525;535;543
540;535;537;544;549;558
513;546;572;591;601;605
496;507;522;538;549;558
536;520;517;523;528;539
533;553;571;585;593;597
499;523;544;561;572;578
520;509;508;515;522;533
533;542;552;564;571;578
495;529;556;576;588;593
502;499;505;516;526;537
537;530;530;538;544;552
516;545;568;586;596;599
497;507;520;533;544;552
531;517;514;519;525;535
528;549;567;581;589;593
495;518;539;556;567;573
516;504;504;511;518;529
533;541;551;562;569;575
502;532;557;575;588;590
507;502;507;517;525;535
534;529;530;538;544;552
509;541;566;584;594;598
491;502;516;530;542;550
526;513;511;517;523;533
520;543;562;578;586;591
489;512;533;551;563;570
511;500;499;506;514;525
522;532;544;556;564;571
488;521;547;567;579;585
494;491;497;507;517;528
526;521;523;531;537;546
499;531;557;576;587;591
480;491;506;520;532;542
519;504;502;508;515;526
516;537;555;571;579;584
492;511;530;546;557;563
522;505;501;506;511;521
534;541;550;560;565;570
501;531;555;572;582;585
508;502;506;514;522;531
536;530;532;540;544;552
509;541;566;584;595;597
499;506;517;531;541;549
533;519;515;520;525;535
520;544;564;579;588;592
474;502;526;546;559;567
483;479;484;496;506;520
479;500;519;538;551;561
420;467;504;533;553;564
423;429;444;462;481;499
531;505;498;503;510;521
609;591;586;586;584;580
629;598;579;568;558;552
664;629;604;587;570;562
646;660;666;665;655;640
561;596;620;631;633;626
542;552;563;574;580;585
530;560;586;608;621;627
477;525;565;596;618;628
479;484;499;520;540;560
505;507;518;534;551;569
483;517;546;571;590;602
473;481;494;511;528;545
507;494;493;500;510;527
496;521;542;559;571;580
465;487;509;527;541;552
492;480;479;487;495;509
509;518;529;541;549;557
476;506;530;549;561;566
483;478;482;491;500;511
510;507;510;519;525;534
484;517;543;562;573;576
472;480;494;506;517;526
509;496;494;499;505;515
501;525;545;561;570;574
473;494;514;531;542;548
501;487;486;492;498;509
513;524;535;547;554;559
476;508;533;553;564;568
488;482;486;495;503;514
516;513;516;524;529;538
488;521;547;566;576;579
475;483;495;509;520;529
507;495;494;501;507;518
497;522;543;560;570;574
466;488;508;526;539;546
493;480;479;487;494;506
502;515;528;541;549;555
470;499;525;545;558;562
478;472;477;486;497;507
503;501;506;515;522;531
473;507;534;554;566;570
459;467;481;495;507;517
488;479;479;488;496;507
478;505;527;546;557;562
449;471;492;511;524;532
475;463;463;472;480;492
482;497;511;525;534;541
443;477;505;527;540;546
451;448;455;466;477;490
478;478;484;495;504;513
450;484;512;533;546;551
442;449;461;476;488;499
483;469;467;474;480;491
479;501;521;537;545;549
455;472;490;506;516;522
492;474;469;474;478;487
515;520;527;537;540;543
493;514;533;547;554;554
519;502;497;500;502;507
559;547;542;543;542;543
537;562;579;591;594;590
535;532;536;542;545;546
575;556;547;547;546;548
568;588;603;613;616;612
543;557;571;582;588;588
573;555;549;550;552;557
582;592;601;610;613;613
548;575;597;612;620;620
563;553;553;558;563;570
589;586;587;593;596;600
559;590;614;631;639;639
543;549;560;571;580;587
573;563;562;567;572;581
561;588;609;625;634;637
534;552;571;587;598;605
560;546;544;550;557;567
567;580;593;606;613;619
530;560;584;602;615;620
538;532;535;544;553;564
562;562;567;576;582;591
532;565;591;610;622;626
525;528;539;550;562;572
558;545;543;549;555;566
543;569;590;607;616;621
513;532;551;567;579;587
541;527;525;531;538;550
550;563;576;588;596;602
513;543;567;585;597;603
527;519;521;528;537;548
554;552;556;564;569;578
522;555;580;598;609;613
513;517;527;539;549;559
547;536;534;540;545;555
534;561;583;599;608;611
505;523;542;558;570;577
536;522;519;525;531;542
542;557;570;583;590;595
508;537;561;580;591;595
519;512;515;523;531;542
544;544;549;558;564;572
516;548;573;592;603;606
508;512;521;533;543;553
545;532;530;536;541;550
531;558;578;594;604;606
502;520;538;554;565;572
530;516;514;520;527;538
536;550;564;577;585;590
497;527;552;571;583;589
516;506;508;516;524;535
545;542;546;554;560;567
514;545;570;588;599;601
503;507;516;528;538;547
533;524;523;530;535;545
521;548;570;587;597;600
499;515;532;547;558;565
527;513;510;516;522;533
533;548;562;575;582;587
502;530;553;570;581;586
517;507;508;516;523;533
539;540;545;554;559;566
508;541;567;586;596;599
501;504;514;526;536;545
534;523;523;529;535;545
517;546;568;586;595;599
489;507;526;543;555;562
523;509;506;513;519;530
527;543;557;571;579;584
490;519;544;563;575;580
507;497;499;508;516;527
529;530;536;545;552;560
501;533;558;577;588;592
506;504;511;521;530;539
539;526;522;527;531;540
519;547;568;584;592;595
488;506;524;540;551;558
515;503;502;509;515;526
520;537;552;566;575;580
486;514;538;557;570;575
507;496;496;504;512;523
527;529;534;543;550;557
491;526;553;572;584;588
483;488;498;512;522;532
516;508;508;516;522;533
501;530;553;571;582;586
483;497;513;529;541;549
514;499;496;501;508;518
522;537;550;563;570;574
495;519;541;557;567;571
514;501;501;507;513;522
538;538;542;550;554;560
508;539;563;581;590;592
502;504;511;522;530;538
536;525;524;529;534;542
525;550;571;587;595;597
498;513;529;543;553;560
526;512;510;515;521;531
533;549;562;575;582;587
489;519;543;562;574;579
490;487;493;503;513;525
498;509;523;536;546;557
443;489;525;551;569;578
420;436;456;477;496;513
485;472;474;485;496;512
569;560;561;568;572;574
613;583;568;562;556;553
656;614;584;567;552;546
662;663;658;652;638;624
597;625;642;648;644;632
565;572;580;586;588;588
550;575;595;611;620;623
497;548;588;618;637;643
479;495;516;539;560;576
507;507;517;534;550;569
492;526;555;579;599;611
468;486;506;528;545;561
498;486;487;496;508;527
499;518;536;552;565;576
471;497;520;539;554;564
488;478;479;487;497;511
506;510;518;529;537;547
478;510;536;555;567;572
480;479;486;497;506;517
511;501;501;508;513;524
490;520;544;562;572;576
466;482;498;514;526;535
504;488;485;491;497;508
506;523;538;552;559;564
471;497;520;538;550;555
489;479;480;488;495;506
513;516;523;533;539;546
481;513;539;558;569;572
477;478;486;498;507;517
513;504;504;510;516;524
497;526;548;566;575;578
473;487;503;518;529;537
501;489;488;494;500;511
500;520;538;553;562;567
464;492;517;536;549;556
484;475;476;485;493;505
505;510;518;530;536;545
473;505;531;551;563;568
473;472;480;491;501;512
503;495;496;503;509;519
481;512;537;556;566;570
458;473;491;506;518;528
488;476;475;482;490;501
487;507;525;541;550;556
450;478;503;523;536;543
464;456;460;470;480;492
484;490;500;513;522;531
451;484;512;533;547;552
450;451;459;472;484;495
482;476;477;486;493;503
462;494;518;538;549;554
441;455;472;488;500;510
477;463;461;468;475;486
483;500;516;531;539;543
460;481;501;518;529;534
492;475;471;475;480;489
523;521;523;529;531;535
499;524;544;558;564;564
512;503;503;508;511;515
556;539;533;533;531;535
546;568;584;596;597;593
533;538;546;554;557;558
575;553;543;542;541;543
580;593;602;610;611;608
551;570;586;598;603;602
573;557;552;554;556;560
592;594;598;604;606;607
558;587;610;626;633;632
560;556;560;567;573;579
585;578;577;582;586;592
567;595;618;634;642;643
545;556;569;582;592;599
575;561;558;562;567;577
568;590;607;621;629;633
530;558;580;598;610;617
556;544;543;550;557;568
578;582;589;598;604;610
539;571;596;615;626;630
537;536;543;553;563;573
568;561;562;569;575;584
543;575;600;618;628;632
522;534;550;565;576;585
555;541;539;545;551;563
554;573;590;605;613;618
518;543;565;583;595;601
538;526;526;533;541;553
554;560;569;580;588;595
521;552;577;596;608;613
526;522;527;537;546;557
554;547;547;554;559;569
528;560;584;603;613;617
511;522;537;550;561;570
547;532;528;534;539;550
544;563;580;595;602;607
508;533;555;572;584;590
529;518;517;523;531;542
547;554;562;573;579;586
514;545;570;590;600;604
513;512;518;528;537;548
544;538;539;547;552;561
521;553;577;596;605;609
503;514;528;543;554;562
536;523;521;526;532;543
531;553;572;586;595;600
501;525;546;563;575;581
524;512;510;517;524;535
542;548;557;568;574;581
509;540;564;583;594;598
512;509;514;524;532;542
541;534;535;543;548;557
516;548;572;591;601;604
502;511;524;538;549;557
536;521;518;524;529;539
530;552;569;584;592;597
498;521;543;560;571;578
521;508;507;514;521;532
540;546;555;565;571;578
505;535;560;579;590;594
510;506;510;520;529;539
540;534;534;541;547;555
515;546;571;589;599;602
499;509;522;536;546;555
534;521;518;523;528;538
528;550;568;583;591;595
492;517;539;557;569;575
510;500;501;509;518;530
523;534;546;558;567;574
496;526;551;571;583;588
503;498;503;512;521;532
531;526;527;535;540;549
504;537;562;581;591;595
490;499;513;527;538;547
524;510;508;514;520;531
520;541;560;575;583;588
488;510;531;548;560;566
512;499;497;504;511;522
528;536;546;557;563;570
497;526;550;569;580;584
507;500;503;512;520;529
542;533;532;538;542;549
518;547;570;587;595;597
505;511;522;534;543;550
538;523;520;524;528;537
533;555;572;586;593;596
504;525;544;560;570;575
528;515;512;518;524;533
541;551;560;571;577;582
502;535;560;580;591;595
494;496;504;516;527;537
507;511;520;532;541;552
461;506;541;566;583;591
423;447;472;495;515;531
465;458;463;477;491;509
547;542;547;557;564;570
602;578;568;566;564;563
652;605;574;558;545;541
673;661;649;640;624;612
622;645;658;662;655;641
575;584;592;597;597;595
561;578;593;606;612;615
508;560;601;630;647;652
478;502;529;554;576;591
506;503;511;528;547;565
497;526;553;578;596;610
466;491;516;539;559;575
492;480;481;492;505;524
506;517;529;543;554;567
471;502;528;549;564;573
479;475;480;490;500;515
509;505;508;517;524;535
482;515;541;562;572;577
468;477;490;504;516;526
507;493;491;497;503;514
499;522;542;558;567;571
469;491;511;528;541;547
495;483;481;488;495;506
510;520;531;544;551;556
475;505;531;550;561;566
483;478;482;492;501;512
512;508;511;519;526;534
486;519;544;563;573;577
472;479;492;505;517;526
505;493;492;498;504;514
497;521;541;558;567;572
468;489;509;527;539;546
493;480;479;486;493;505
505;516;529;541;548;555
470;501;526;545;557;562
478;473;477;487;496;507
506;503;507;515;521;530
479;512;538;557;568;571
465;472;485;499;510;520
497;486;485;492;499;509
485;512;534;551;561;566
456;479;500;518;531;538
482;470;470;478;486;498
491;504;518;532;541;547
452;485;513;534;547;553
460;456;463;474;484;497
487;485;491;501;509;520
456;491;519;540;553;558
444;452;466;481;493;505
478;467;467;475;482;495
469;495;517;535;545;550
442;463;483;501;514;523
473;458;456;464;471;483
491;499;510;523;529;535
463;489;511;529;539;544
482;470;470;477;484;492
521;511;510;514;517;522
505;530;549;563;569;568
511;506;509;516;520;524
557;534;524;523;521;524
557;573;584;593;594;590
535;547;559;568;571;570
568;547;539;539;537;540
582;589;595;602;602;600
552;577;597;609;615;612
566;555;553;557;561;564
594;589;588;592;593;596
565;595;618;633;640;638
551;556;565;575;583;588
583;571;568;572;576;583
569;595;616;632;639;640
541;560;578;594;605;610
566;552;550;556;562;572
573;586;599;611;618;623
537;566;591;609;621;626
545;539;542;550;559;570
568;567;571;580;587;596
542;573;598;617;628;632
530;534;544;557;568;578
562;550;548;554;560;571
548;574;595;611;622;626
518;538;557;573;585;593
548;533;531;537;543;555
555;568;581;593;600;606
520;548;572;591;604;608
531;523;525;534;542;553
557;555;558;567;573;581
528;560;585;603;614;618
519;523;533;545;555;565
553;541;539;544;550;560
542;567;588;603;612;616
511;531;550;566;577;584
540;527;524;530;537;548
550;564;576;588;595;600
514;543;567;585;597;601
526;518;521;529;537;548
552;551;555;563;569;577
524;556;581;600;610;614
514;518;528;540;550;560
548;537;535;541;546;556
535;560;581;598;607;611
504;523;542;558;570;578
534;520;517;523;530;542
546;558;570;582;589;595
512;539;562;579;592;595
524;515;516;524;531;542
545;545;550;559;564;573
514;548;574;593;603;607
506;510;520;532;543;553
540;529;527;534;539;550
527;554;575;592;601;606
501;519;537;552;564;571
530;516;514;519;526;537
538;552;565;578;585;590
500;530;554;573;584;589
515;507;509;517;525;536
542;541;545;555;560;568
512;544;570;588;599;602
504;508;517;529;539;548
538;527;526;532;537;547
525;552;573;590;599;602
495;514;532;548;560;567
522;510;508;515;522;533
530;545;560;573;581;586
497;525;548;567;579;584
511;502;503;512;520;531
532;533;538;548;555;563
496;531;558;578;590;594
490;494;504;517;528;539
524;514;513;520;527;537
513;539;560;577;587;591
489;505;522;537;548;556
524;507;503;508;514;524
533;546;559;570;576;580
504;528;549;566;575;579
520;509;509;514;520;529
543;543;547;555;559;565
512;545;570;588;597;599
507;509;517;528;537;546
538;528;527;533;538;547
521;550;572;589;598;601
498;514;532;548;558;565
529;514;512;517;524;534
527;545;561;575;583;588
477;511;539;560;574;581
475;476;485;498;510;524
477;491;507;524;537;550
425;474;511;540;560;572
430;437;453;473;491;509
553;514;498;499;503;514
628;607;597;594;589;585
628;608;595;587;577;569
668;630;604;587;570;562
651;661;663;661;650;636
557;601;629;644;647;639
530;544;559;573;582;587
530;552;573;593;606;615
483;531;571;602;624;634
472;484;503;526;547;566
505;500;507;522;538;557
489;521;547;570;588;601
466;484;503;523;540;555
498;485;484;492;502;519
496;516;533;549;560;571
459;489;515;536;550;560
477;469;472;482;492;506
503;505;512;523;530;540
478;509;534;553;564;570
480;478;485;495;504;515
516;504;502;507;511;520
496;525;547;564;572;575
470;487;504;519;530;537
503;488;486;492;498;508
505;523;538;552;560;565
470;497;522;540;552;557
492;481;481;489;497;507
517;518;523;532;538;545
485;517;542;561;571;574
482;482;490;501;510;519
514;504;504;511;516;525
495;524;547;566;575;578
470;485;502;518;530;538
499;486;484;491;498;509
500;519;535;550;559;564
466;494;518;537;549;556
482;474;476;484;493;504
501;506;515;526;533;541
470;504;531;551;563;567
468;469;478;490;501;512
500;492;492;500;506;516
481;511;535;554;565;568
459;474;491;507;519;528
488;475;474;481;488;500
486;506;524;540;549;555
447;477;503;523;537;544
463;456;460;470;480;492
483;488;498;510;519;528
447;483;511;533;546;552
445;446;456;470;482;494
478;470;471;480;488;499
463;492;515;534;545;550
447;459;474;489;500;509
482;466;462;467;473;484
493;507;521;533;539;544
468;488;507;523;532;536
500;482;477;480;484;491
534;529;529;534;535;537
514;537;555;568;573;570
525;515;514;518;521;523
566;549;542;542;539;540
553;575;591;603;605;600
538;545;554;563;567;567
577;556;548;547;546;549
583;596;607;615;616;613
548;570;589;602;609;608
567;554;551;555;558;563
589;590;595;602;605;607
557;587;610;626;634;634
557;554;558;567;574;580
585;576;575;580;584;590
563;592;615;631;640;641
538;551;566;580;591;597
571;556;552;557;563;573
566;586;602;616;624;629
530;556;579;596;608;614
546;536;536;544;553;564
566;571;578;588;595;603
535;565;591;609;620;624
534;532;538;548;557;567
566;557;556;562;567;576
545;574;596;613;623;626
522;535;549;563;574;582
554;540;537;542;547;558
552;572;589;602;610;614
518;544;565;583;594;600
539;527;527;533;540;551
557;562;570;579;586;593
525;556;582;599;610;614
524;522;528;538;547;557
554;546;547;553;558;567
533;564;586;604;613;617
512;524;539;553;564;571
543;529;526;532;539;548
544;563;579;593;601;605
514;537;558;574;585;591
533;520;519;525;532;543
553;557;564;573;579;585
519;551;575;592;603;606
522;518;523;532;541;551
554;545;545;550;555;563
533;562;584;601;610;613
514;525;538;551;560;568
545;530;527;532;536;546
545;564;580;594;600;604
515;537;558;575;584;590
539;525;522;528;533;543
555;561;568;577;582;587
527;557;580;597;606;609
531;526;530;539;546;554
561;553;552;558;561;568
540;569;592;609;617;619
521;532;545;558;568;574
551;537;534;539;545;554
544;566;584;599;607;611
508;534;557;575;587;593
531;520;520;527;535;546
550;556;565;575;582;589
514;546;572;591;604;607
516;513;519;530;539;550
541;536;538;547;553;562
520;551;575;594;605;609
503;513;527;542;553;562
533;520;518;524;530;541
523;547;566;582;592;597
490;516;538;557;571;578
513;501;501;510;518;530
530;537;546;558;565;573
493;526;552;572;584;590
497;495;500;511;521;532
528;522;523;531;537;547
510;540;564;581;591;595
495;504;517;530;541;549
524;511;509;515;520;530
519;542;560;576;584;588
490;513;535;552;564;570
507;497;498;505;513;524
523;532;543;556;562;569
488;521;548;568;580;585
491;489;496;507;517;528
519;515;518;527;533;543
482;519;548;569;582;587
448;468;489;508;524;535
463;462;468;482;495;510
434;472;502;528;545;558
399;432;464;491;513;528
482;455;448;456;466;483
593;558;542;539;537;540
608;599;593;590;583;575
627;596;576;562;549;543
650;632;617;606;591;581
584;622;645;655;652;640
521;550;573;589;596;596
528;533;545;559;569;577
505;543;575;601;618;626
464;499;531;560;581;595
481;478;487;502;520;540
495;509;525;544;560;575
466;499;528;552;570;582
475;471;477;490;503;520
504;499;502;512;521;534
481;513;538;558;570;577
468;477;490;505;517;528
500;488;486;493;499;511
493;518;537;553;563;568
462;486;508;526;538;546
488;476;476;483;491;503
506;514;524;536;543;550
472;502;528;547;559;563
480;474;479;489;498;508
509;503;505;513;519;528
485;516;540;559;569;572
469;478;491;505;516;524
501;489;487;495;500;510
499;521;540;556;564;568
472;493;512;529;540;546
492;480;480;488;494;504
504;514;526;539;546;552
475;505;530;549;561;565
479;475;480;491;500;510
502;501;505;514;521;530
478;511;538;558;569;573
464;473;487;502;514;524
495;484;483;491;498;509
488;513;533;550;560;566
460;482;503;521;534;541
481;471;471;479;487;500
494;505;518;531;539;546
461;493;519;539;552;557
462;460;467;478;489;500
487;487;492;502;510;520
463;496;523;544;556;561
449;458;472;487;500;510
479;468;468;477;484;496
473;497;518;536;547;553
447;468;488;506;519;527
472;459;458;466;474;486
482;493;505;519;527;534
451;481;506;527;539;544
465;457;461;470;479;490
497;491;493;500;505;513
489;513;534;549;557;559
487;486;493;502;508;514
528;509;501;503;503;509
536;551;564;574;576;574
515;528;541;551;556;556
547;528;520;520;520;524
568;572;577;583;583;582
543;566;584;597;601;598
555;544;542;545;548;551
585;577;576;579;579;581
564;591;611;625;631;628
550;554;563;572;578;582
581;567;563;566;569;575
571;594;613;627;634;634
541;560;579;594;604;608
566;551;549;554;560;569
578;587;598;609;615;619
544;572;595;613;624;627
549;542;545;553;562;573
575;572;574;581;587;595
547;578;603;621;631;634
535;541;551;563;574;582
564;552;550;556;562;572
550;576;598;613;623;627
524;543;562;579;591;598
548;535;533;539;546;558
555;568;581;593;601;607
519;550;575;594;606;612
525;521;525;535;544;556
550;549;554;563;570;579
524;556;583;601;612;617
510;517;529;543;554;564
544;532;531;537;544;555
531;558;579;595;605;610
505;525;544;560;573;580
529;517;516;522;529;541
536;550;563;576;584;590
506;535;560;578;591;595
516;509;511;520;529;540
541;539;543;551;557;566
516;546;571;590;600;604
507;511;521;533;543;552
538;526;524;530;535;545
528;553;573;589;598;602
503;521;539;555;566;572
537;520;516;521;526;537
546;557;567;578;584;589
510;539;562;579;590;594
517;511;514;522;530;540
542;541;545;554;560;568
512;546;572;591;602;605
501;508;519;532;543;553
534;524;523;529;535;546
524;550;571;588;597;602
497;515;534;551;563;570
519;507;507;514;521;533
529;543;556;571;578;584
501;528;552;570;582;587
519;508;509;516;524;534
543;541;544;551;556;563
507;541;568;586;597;600
488;498;511;525;536;547
515;508;510;519;528;539
503;531;556;576;586;592
485;501;520;537;550;559
512;497;495;502;510;522
521;533;546;559;567;573
494;520;542;560;571;576
510;499;500;506;514;523
537;534;537;545;548;555
511;541;564;581;590;593
503;506;514;525;533;541
534;522;520;525;530;539
520;546;568;584;592;595
496;513;531;547;557;563
521;508;506;513;519;529
531;545;558;571;578;582
492;522;547;566;578;583
491;489;495;506;516;528
497;507;519;532;543;553
449;493;529;555;572;581
419;438;460;482;501;518
455;452;460;474;489;507
522;525;535;548;558;564
582;556;545;544;544;544
640;592;562;546;533;531
656;648;640;631;617;605
613;631;641;643;636;623
577;580;583;586;583;581
559;579;595;608;613;615
509;558;597;624;641;643
489;505;527;548;567;581
509;509;519;535;551;568
496;529;557;581;600;612
470;490;512;534;553;568
500;487;488;499;510;528
504;520;536;552;564;575
471;499;524;544;559;569
487;479;481;491;501;514
510;511;517;527;535;545
483;515;541;560;572;577
476;480;489;503;512;523
510;500;499;506;512;523
496;524;546;563;573;577
472;489;506;523;534;542
503;489;487;493;499;510
508;524;538;552;560;564
475;502;526;545;557;562
491;482;483;492;500;511
513;514;520;530;537;544
482;514;541;560;572;575
481;482;490;502;512;522
511;501;500;507;513;523
498;525;548;564;574;577
474;490;507;522;534;541
502;488;487;493;499;510
505;522;537;551;559;564
469;498;523;542;554;560
485;477;480;488;497;508
509;512;517;527;534;543
479;511;537;556;568;572
468;473;483;496;507;517
498;491;492;500;508;518
483;513;537;555;566;571
459;476;494;511;524;532
485;474;474;482;489;501
488;506;523;539;549;554
451;481;507;527;541;548
464;458;462;472;482;495
484;489;498;510;519;528
451;486;514;536;550;555
446;450;461;475;487;499
480;471;473;482;489;501
465;494;518;537;548;553
447;460;477;493;505;514
484;467;463;469;475;486
496;509;521;533;539;543
476;496;514;529;538;541
502;485;481;485;488;496
534;529;529;534;535;538
515;539;557;571;576;574
524;516;516;522;524;527
562;546;538;539;537;539
554;575;591;602;604;601
540;547;556;565;569;569
575;555;546;546;545;549
580;593;603;612;613;611
551;573;591;605;611;610
566;554;552;556;559;564
585;588;593;600;602;605
554;585;609;626;635;635
552;551;557;566;574;582
580;571;570;575;579;587
561;590;613;629;638;640
540;553;568;582;593;599
565;553;550;555;561;572
564;583;599;613;621;626
532;558;581;598;610;616
548;537;538;545;553;564
565;569;576;586;593;601
537;567;591;610;621;625
532;532;539;549;559;569
559;552;552;558;564;574
540;569;592;610;621;625
518;532;548;562;574;583
545;533;530;537;544;555
542;562;579;594;603;609
511;537;560;578;591;597
530;519;519;527;535;547
549;553;560;570;577;585
521;552;576;594;605;610
518;518;525;535;544;554
548;540;540;547;552;561
530;560;583;600;609;613
511;523;538;553;564;571
539;526;524;530;536;545
540;559;575;589;597;602
509;534;556;574;585;591
528;517;517;524;531;542
549;553;560;570;576;582
519;551;574;592;603;606
518;517;523;533;542;552
550;541;540;546;553;560
526;557;580;598;608;611
504;517;533;548;560;568
537;523;520;526;532;543
538;556;572;586;594;599
506;530;552;569;581;587
524;512;512;519;527;538
542;547;555;565;572;579
512;542;567;586;597;601
510;510;516;526;536;546
541;533;533;540;546;555
522;551;574;592;602;605
503;515;529;544;554;562
537;522;519;524;530;540
536;555;571;585;593;597
506;530;551;568;579;584
526;514;513;520;527;537
538;546;555;566;572;579
501;536;563;583;596;599
502;503;510;522;532;543
533;526;528;536;543;554
515;545;569;587;597;601
497;508;523;537;548;557
524;512;511;517;524;535
518;540;559;574;584;590
487;512;535;554;567;574
512;499;498;506;514;526
529;534;542;553;560;568
497;528;553;572;583;587
499;496;502;513;522;532
533;524;524;530;536;544
516;544;566;583;592;594
500;509;521;534;544;551
532;517;513;518;522;532
533;551;567;580;587;590
501;524;544;561;571;576
520;509;508;514;521;531
537;544;553;563;569;575
506;537;563;581;591;595
502;502;509;520;529;539
514;515;521;531;539;549
479;519;549;572;587;593
442;465;488;510;527;540
442;447;459;476;491;510
433;467;496;522;541;556
472;479;494;511;526;537
592;535;507;499;497;504
652;619;597;585;573;568
629;635;635;631;621;608
623;609;599;591;580;572
608;611;610;610;604;598
545;594;627;647;654;649
506;533;560;580;594;601
520;521;531;547;561;574
507;539;567;592;610;621
473;503;532;557;578;592
495;487;491;503;518;537
510;520;532;548;560;574
479;510;537;559;575;585
483;480;487;498;510;525
513;508;510;519;526;538
491;523;547;566;577;583
478;487;500;514;526;536
510;497;495;501;507;518
505;527;546;561;570;575
475;498;520;538;549;556
499;486;486;493;500;511
511;521;532;543;550;557
481;512;537;557;569;573
485;482;488;498;507;518
515;510;512;520;526;534
493;524;549;568;578;581
476;485;499;513;524;533
506;494;492;499;506;516
501;523;543;559;568;573
477;498;518;535;547;553
501;487;485;492;498;509
514;523;532;543;550;556
479;510;536;555;566;570
482;480;485;496;505;515
510;506;508;517;523;532
484;517;543;562;573;577
471;480;493;508;519;528
498;487;486;494;501;512
490;515;536;553;563;568
460;484;506;526;538;546
480;470;471;480;489;501
491;503;516;529;538;546
455;489;516;538;551;557
458;457;465;477;488;500
485;483;488;498;506;517
462;494;522;542;554;560
444;456;470;486;499;509
474;464;464;473;481;493
468;493;514;531;542;548
443;465;486;505;518;526
466;454;453;462;470;482
481;491;502;514;522;529
458;485;508;526;538;542
476;466;466;474;481;490
515;504;501;506;508;514
505;528;546;560;565;564
505;503;508;515;519;523
547;526;516;516;514;518
547;563;575;585;586;583
528;542;554;565;569;568
561;540;531;532;531;535
581;584;588;593;593;592
552;577;596;608;613;610
558;550;550;555;558;561
585;579;579;583;585;587
565;593;615;630;636;634
552;557;566;576;583;588
580;568;564;568;571;578
571;594;613;627;634;636
543;563;582;597;607;612
565;552;550;556;561;571
574;585;596;608;614;619
540;570;594;613;624;628
545;540;544;553;562;573
569;566;569;577;584;592
544;575;600;618;629;633
532;538;549;561;572;582
557;546;546;551;558;569
549;573;593;609;619;624
519;540;560;576;589;596
544;531;529;535;543;556
553;565;576;589;596;603
519;549;573;592;604;609
527;521;525;534;543;554
551;549;552;560;567;576
525;557;582;601;612;616
515;521;532;545;555;565
545;534;532;538;544;554
537;562;582;597;606;610
510;530;549;565;576;583
532;521;519;525;532;543
543;555;568;580;587;593
510;539;564;583;595;599
521;514;517;527;534;545
544;542;546;554;560;569
520;551;576;594;605;609
508;514;525;537;548;557
541;529;527;533;538;548
535;558;577;592;601;604
509;527;545;560;571;577
533;519;516;522;528;539
540;553;565;577;584;589
508;537;561;579;591;595
520;512;515;523;531;541
544;543;545;553;559;567
519;551;575;593;603;606
508;513;524;536;547;555
538;527;525;531;537;547
530;555;574;590;599;603
504;523;541;556;567;574
528;516;514;519;526;537
536;550;563;575;582;588
503;533;558;576;588;592
514;508;511;520;529;538
538;537;541;550;556;565
510;543;569;588;599;602
498;504;515;529;540;549
530;519;519;526;533;542
521;546;567;584;594;598
496;514;533;549;560;568
525;510;507;513;520;531
534;546;558;570;577;583
498;527;551;569;581;586
506;500;503;512;521;532
529;529;534;543;550;558
505;536;562;581;592;596
498;501;511;523;533;543
529;517;516;522;527;537
515;541;562;579;588;592
487;506;525;542;554;561
514;501;500;506;513;525
522;536;549;563;570;576
491;519;542;561;574;578
504;496;498;506;514;525
529;528;532;541;546;554
507;537;561;579;589;592
505;506;514;524;533;541
537;525;522;526;530;539
525;551;571;586;594;596
498;516;534;549;559;565
528;513;511;516;521;531
536;549;562;574;580;585
502;530;553;571;582;586
513;506;508;516;524;534
538;538;543;551;557;564
503;538;565;584;595;599
479;489;504;519;531;542
489;490;497;510;520;534
453;494;527;553;570;580
403;438;470;497;519;535
442;434;440;455;472;492
543;528;526;533;540;548
596;576;569;568;566;563
631;589;562;547;535;532
661;640;623;611;595;585
612;639;654;658;651;637
554;572;585;593;595;592
549;559;570;581;586;591
519;562;596;622;637;642
483;512;541;566;586;598
505;500;506;521;537;555
508;529;549;569;585;598
475;506;535;557;575;588
489;483;487;499;512;529
513;515;521;533;543;556
484;517;544;564;578;585
479;482;492;505;516;530
512;503;502;509;515;527
498;526;548;566;575;581
476;492;509;525;536;545
504;490;488;494;501;512
511;526;540;553;560;566
480;506;529;547;559;564
497;487;488;495;503;513
522;522;526;535;540;547
493;524;549;567;577;580
485;487;496;508;518;527
516;507;506;513;518;528
501;528;551;569;578;582
478;494;511;528;538;546
504;491;490;496;503;514
509;526;541;555;563;568
476;504;528;547;559;564
490;482;484;493;501;512
513;515;521;532;538;547
483;516;542;562;574;577
475;479;489;501;512;522
503;496;497;506;512;523
489;518;541;560;571;575
464;481;500;516;529;537
489;478;478;485;494;506
491;510;527;543;552;559
461;489;513;533;546;553
474;466;469;479;488;500
491;495;504;515;524;533
457;492;520;542;555;561
452;456;466;480;492;504
481;474;477;485;493;505
465;495;519;539;551;556
443;459;477;495;507;517
471;459;458;466;474;487
476;494;510;525;534;540
444;471;495;514;527;533
464;454;455;464;472;483
495;494;498;507;513;520
476;503;525;541;550;552
486;480;483;490;496;503
525;510;505;507;508;513
520;541;558;570;574;572
510;517;526;535;540;541
552;529;520;520;518;522
564;573;581;588;588;585
537;556;573;584;589;587
558;543;538;540;541;544
582;581;583;588;588;588
558;584;605;619;625;622
555;552;556;563;568;572
583;574;571;575;577;581
569;594;615;630;636;637
549;560;573;586;594;599
576;561;557;560;565;573
577;594;608;620;626;629
542;567;589;606;616;620
557;546;546;553;560;570
578;581;586;595;601;608
546;577;602;619;630;633
540;540;547;558;568;577
569;561;561;567;573;583
549;578;601;618;628;633
524;539;555;570;581;590
552;540;538;544;551;562
554;573;589;604;612;617
519;545;568;586;599;606
532;524;526;534;542;554
552;557;565;576;583;592
522;554;579;599;610;615
520;520;527;538;548;559
550;542;543;550;555;565
529;560;583;601;611;615
509;523;538;553;565;573
540;526;524;530;536;547
539;559;575;589;597;603
512;536;557;573;585;591
531;519;519;525;532;542
547;551;559;569;576;582
515;547;572;591;602;606
516;514;521;531;540;550
547;538;538;545;551;559
526;555;578;596;606;609
507;519;533;548;559;567
536;522;521;525;531;542
538;556;572;586;595;598
505;529;551;569;580;586
524;513;513;520;527;538
544;549;556;566;572;579
515;546;570;588;599;602
515;513;519;530;538;547
543;536;537;543;549;557
522;553;576;594;604;607
503;516;530;545;556;564
532;519;517;524;530;542
533;553;569;584;592;597
503;527;548;566;577;583
520;510;510;517;525;536
538;544;552;563;570;577
507;539;564;583;594;598
507;505;511;522;531;542
535;528;529;537;543;552
516;545;569;587;597;601
499;510;524;538;549;557
528;514;512;518;524;535
526;546;564;578;586;592
496;520;541;559;570;576
516;504;504;511;518;529
534;539;548;558;565;571
505;535;560;577;589;593
506;503;508;518;527;537
537;530;530;536;541;550
519;548;571;588;597;600
498;510;524;538;548;556
528;515;513;519;525;535
525;546;565;579;588;592
496;519;541;558;570;576
515;504;504;511;519;529
531;538;547;559;565;572
499;531;557;576;587;591
501;499;506;516;525;536
529;524;526;533;539;548
509;540;564;582;593;596
492;503;517;531;543;551
523;509;507;513;520;530
520;541;559;574;582;587
491;514;535;552;564;570
510;499;498;505;513;524
525;533;542;553;560;567
493;524;549;569;580;585
498;494;499;510;519;529
529;522;523;530;535;544
505;536;560;578;588;591
485;496;511;525;536;545
514;502;501;508;515;525
514;535;553;568;577;582
486;508;529;546;558;564
508;496;495;502;509;520
525;532;541;552;558;565
495;525;550;568;579;582
508;501;504;512;520;529
538;530;530;536;540;549
518;546;569;585;594;595
502;511;523;537;544;551
535;521;518;522;526;535
532;553;571;584;591;594
503;525;544;561;571;576
521;510;509;515;522;532
535;543;553;565;572;578
504;534;559;578;589;593
501;499;505;516;526;536
508;511;519;530;539;550
466;508;541;566;582;589
427;451;475;498;517;532
441;443;453;470;486;505
471;490;510;530;545;557
544;527;526;532;539;544
628;572;540;526;517;518
651;633;618;607;594;585
620;635;642;642;633;619
588;588;588;588;583;578
567;581;592;601;601;601
519;568;605;631;643;644
490;513;538;561;578;589
510;509;518;533;548;564
503;532;559;583;600;611
474;499;525;548;567;581
496;486;488;499;512;530
512;522;534;548;560;572
481;512;537;558;572;580
487;483;488;498;509;523
515;511;514;522;529;540
491;522;547;566;577;582
478;486;498;512;523;533
510;497;495;502;508;519
504;527;546;562;571;576
474;496;516;534;545;552
497;485;484;491;499;510
515;523;533;545;552;558
485;513;537;555;566;570
491;485;489;498;506;516
517;513;515;524;529;537
494;525;549;568;578;581
481;488;500;513;524;532
513;501;499;505;510;520
504;529;549;565;574;578
475;497;518;536;547;553
499;487;487;494;501;512
513;523;534;547;554;560
479;510;535;555;566;571
484;480;485;495;505;515
506;505;510;520;527;536
485;517;543;562;574;578
474;481;493;507;518;528
504;493;492;498;504;515
495;520;541;558;567;572
463;485;506;525;538;545
486;475;475;483;492;503
496;508;521;535;544;551
458;491;518;539;552;558
467;462;468;479;489;502
492;490;495;505;512;523
464;497;524;545;557;562
451;459;473;487;500;511
485;473;472;480;487;499
477;502;522;540;550;555
448;469;489;507;520;528
474;461;460;468;476;488
490;500;511;524;531;538
463;490;514;532;543;547
479;470;471;480;486;495
514;507;507;513;516;523
502;527;547;561;568;568
503;502;507;514;520;524
545;525;517;517;517;521
545;562;576;586;588;586
529;540;552;562;567;567
560;540;532;533;532;535
575;581;588;594;595;593
549;572;591;604;610;607
562;550;548;552;555;559
589;583;582;586;587;589
567;594;616;629;636;633
557;559;566;575;583;586
586;573;569;572;575;581
574;599;617;631;638;639
546;564;582;596;606;611
569;556;553;558;564;573
575;588;600;612;618;623
540;569;594;612;624;628
548;541;544;553;562;572
571;570;574;582;588;597
542;575;600;619;630;634
530;536;547;560;571;581
560;549;548;554;560;571
549;575;596;612;622;626
522;541;560;576;588;596
549;535;533;539;546;557
556;569;581;594;601;608
519;550;574;593;605;610
529;523;526;535;544;555
553;553;557;566;572;581
524;557;583;602;613;617
515;520;531;544;554;564
546;535;533;540;547;557
535;561;581;598;608;612
509;527;545;561;573;580
533;520;518;525;532;543
542;556;568;580;588;594
510;538;562;580;592;596
523;514;516;524;532;544
546;545;549;557;563;571
519;550;575;593;604;608
510;514;524;536;546;555
541;529;528;534;540;550
531;556;577;593;603;606
503;522;540;556;567;574
529;517;515;521;527;538
534;549;563;576;584;589
501;531;555;574;586;591
519;509;511;519;527;538
542;541;546;554;560;568
514;546;571;589;600;603
506;510;520;531;541;551
538;527;526;532;537;547
527;553;574;591;599;604
501;519;536;552;563;570
528;515;512;519;525;536
534;548;562;575;582;588
502;530;553;571;583;588
516;507;508;516;524;535
538;538;543;551;557;565
509;541;566;585;596;599
502;506;515;527;537;546
537;525;523;529;534;544
526;551;571;587;596;599
498;515;532;548;559;565
525;511;509;515;522;532
532;547;560;573;580;585
500;529;551;569;580;585
514;506;507;515;523;533
537;538;543;552;558;565
512;543;567;586;596;599
506;508;517;528;538;546
534;525;524;530;536;545
523;550;571;588;597;600
496;514;531;547;558;565
521;509;508;515;522;532
528;544;558;573;580;585
493;522;547;565;577;583
507;499;501;510;520;530
529;531;537;547;554;562
500;532;558;577;589;593
495;497;507;519;529;540
529;518;517;523;529;539
517;543;564;581;590;593
492;507;524;540;550;558
520;506;503;509;515;526
526;541;555;568;575;580
494;520;543;561;572;577
508;498;500;507;515;526
532;533;538;547;553;560
504;535;559;578;588;592
501;501;509;520;529;538
531;522;520;526;531;540
515;544;566;583;592;595
491;508;525;540;551;558
516;504;503;510;516;527
522;539;554;568;576;581
495;521;543;560;573;577
504;496;498;507;514;525
523;527;535;545;552;560
497;529;555;574;586;590
494;495;504;515;525;535
526;516;516;522;528;537
508;538;560;577;587;591
487;501;518;533;545;553
515;501;499;505;512;524
528;541;554;567;574;578
502;524;544;560;570;574
513;502;502;509;515;525
536;537;542;551;556;562
508;538;563;580;590;592
506;506;513;523;531;539
536;527;525;531;536;545
521;549;570;587;596;598
496;511;527;542;553;560
507;500;502;510;518;529
488;517;540;559;571;579
436;476;509;535;554;564
429;436;450;468;485;504
448;462;479;498;514;531
497;507;523;539;552;559
589;544;523;517;515;519
654;608;578;561;547;543
640;648;648;644;632;618
600;609;613;613;607;597
582;582;582;584;580;579
548;585;612;630;636;635
498;540;576;601;617;623
498;501;514;532;548;564
512;524;541;560;576;591
481;517;549;575;595;607
480;482;493;509;526;543
510;503;505;515;526;542
491;522;546;566;580;589
472;486;502;519;532;544
505;491;488;495;502;516
509;526;541;555;563;570
474;500;523;541;554;560
490;481;482;490;498;510
510;515;523;533;540;548
481;513;539;559;570;574
479;480;487;499;509;519
513;504;504;511;518;526
495;525;548;565;575;578
473;487;503;518;530;539
503;490;489;495;503;512
508;526;541;556;564;568
478;503;524;542;554;559
495;485;485;492;500;511
512;518;526;537;543;550
483;515;541;560;571;575
484;483;490;501;511;520
513;505;506;513;519;528
492;522;546;565;575;579
469;483;499;515;527;536
502;489;486;493;501;511
503;522;538;553;562;567
468;494;517;536;548;555
484;475;476;485;493;506
504;509;518;530;537;545
472;504;530;550;562;567
470;470;478;490;500;511
495;490;493;501;509;519
473;505;531;551;563;568
452;467;484;501;514;523
479;469;470;478;486;498
477;499;519;536;546;552
442;470;495;516;530;538
461;452;455;465;475;488
478;485;496;509;518;527
449;481;508;529;542;547
451;450;458;470;481;492
483;476;477;486;492;502
469;497;520;539;549;552
458;466;479;493;504;510
495;478;474;478;482;491
507;520;533;544;550;552
488;504;520;534;541;543
524;502;494;496;497;503
553;549;550;554;553;554
533;554;571;583;587;583
541;531;530;533;535;537
574;561;556;557;556;557
563;586;603;615;619;614
547;553;561;570;575;576
580;562;556;557;557;561
581;597;610;621;624;623
552;572;590;604;611;612
574;560;556;559;563;569
587;593;600;608;612;615
553;584;608;625;634;635
551;550;555;564;572;580
576;571;573;580;585;593
555;586;610;628;638;641
536;547;561;575;585;594
562;552;550;556;563;573
558;580;598;615;623;628
525;550;572;590;602;609
542;532;533;540;549;561
557;565;575;587;595;603
525;556;581;600;612;618
526;524;529;540;549;561
555;548;550;557;563;573
532;562;587;605;615;620
517;526;539;553;563;572
546;533;530;536;542;553
541;562;580;595;604;609
511;534;555;572;583;590
530;518;518;525;532;544
547;554;563;574;581;588
517;547;571;589;600;604
518;515;520;530;539;549
545;540;543;549;556;564
524;556;579;597;607;611
509;518;531;545;555;564
540;527;525;531;536;546
536;558;575;591;599;603
507;529;550;567;579;584
532;518;517;523;529;540
546;554;564;574;580;586
516;546;570;588;598;602
518;515;520;529;537;547
545;541;542;550;555;563
524;555;579;597;607;610
510;518;530;543;554;562
540;526;524;530;535;545
534;556;574;589;597;602
506;527;547;564;575;581
530;516;514;520;527;537
543;551;561;572;578;584
509;539;564;583;595;598
513;509;514;523;532;543
541;536;538;546;552;560
521;551;574;592;602;605
504;512;524;538;549;557
534;521;519;525;531;542
528;551;570;585;594;598
500;522;542;559;570;576
524;511;510;516;523;533
535;546;556;568;574;580
503;534;559;578;589;593
506;503;508;518;527;537
533;530;533;541;547;556
506;540;566;585;596;599
493;502;515;529;541;550
528;515;513;519;525;536
522;544;563;579;588;592
493;514;534;551;563;570
518;505;502;509;516;527
532;542;551;562;569;575
500;529;553;571;582;586
507;501;505;514;523;532
532;528;531;538;544;553
512;542;566;583;593;596
501;506;517;529;539;547
534;520;517;521;526;535
527;549;567;582;590;593
496;517;537;553;564;570
519;506;505;512;518;528
531;541;553;564;571;577
502;530;554;573;584;588
511;504;507;516;524;534
538;534;536;543;548;556
516;546;570;588;597;599
503;509;520;532;542;550
535;522;520;525;530;539
525;549;569;584;592;596
493;515;536;553;564;571
518;505;504;511;518;529
534;544;555;566;574;579
502;531;555;573;584;588
508;503;506;515;523;533
535;531;534;542;547;556
510;541;566;584;594;597
501;506;516;528;538;547
535;521;518;523;528;537
527;550;568;584;592;595
499;518;536;552;563;569
524;510;507;514;519;529
534;545;556;568;574;579
501;530;554;572;583;587
511;505;507;515;523;533
535;533;537;544;549;557
513;544;568;586;596;599
502;507;517;530;540;548
530;519;518;524;529;539
519;545;566;582;591;595
493;513;532;549;560;567
519;505;504;511;517;528
526;540;552;565;572;578
489;520;546;566;579;583
499;493;498;508;517;528
526;524;528;537;543;552
499;532;557;576;587;591
490;496;506;519;529;539
523;511;510;516;521;531
516;539;559;575;584;588
492;509;527;542;553;560
522;505;502;507;512;523
535;544;555;565;570;575
502;529;553;569;578;581
512;505;506;513;520;529
539;536;539;546;550;557
512;543;568;585;596;597
498;504;515;527;537;545
529;518;517;523;529;539
507;537;560;578;588;593
465;492;517;536;550;559
472;470;477;489;501;516
459;487;511;532;547;559
410;453;489;518;539;552
452;442;447;461;476;494
573;536;520;519;520;528
610;599;595;593;588;582
611;589;574;565;555;550
641;615;597;585;571;564
596;625;642;649;644;634
524;560;586;602;609;607
528;531;541;553;562;570
517;547;572;594;608;615
475;514;549;577;597;608
485;484;493;510;527;545
509;511;520;535;549;564
483;516;544;567;584;593
477;480;491;505;520;535
507;497;496;504;512;526
498;523;545;562;572;579
470;488;507;524;536;545
500;485;484;490;497;509
510;523;536;549;556;562
475;503;527;546;557;563
487;480;482;491;499;510
512;512;517;526;532;540
482;516;542;561;572;576
476;480;490;502;513;522
512;501;499;505;511;520
500;526;547;564;573;576
472;491;509;525;536;543
500;487;486;492;498;509
509;524;538;551;558;563
476;504;528;547;559;563
486;479;482;491;499;510
513;513;518;528;534;542
486;518;543;562;574;576
478;481;490;502;513;522
507;497;497;504;510;521
492;520;542;560;570;575
463;482;501;519;531;539
487;476;476;484;492;504
493;510;526;541;550;557
459;488;513;533;547;553
471;464;467;477;487;500
494;496;502;513;521;530
463;497;525;544;557;562
454;459;470;483;495;506
484;477;477;486;493;504
471;500;523;543;553;558
443;462;482;499;512;521
471;460;459;467;475;488
476;494;510;525;534;541
442;471;497;517;530;537
456;449;452;463;472;484
479;481;489;500;507;517
452;485;512;532;544;548
449;451;461;474;484;494
488;476;474;481;487;496
480;505;525;541;550;552
466;477;491;504;513;519
504;484;479;481;484;492
522;530;539;548;552;553
500;519;536;548;555;555
525;507;502;504;506;511
556;551;549;553;553;553
537;561;579;592;597;592
540;533;535;540;543;546
577;561;554;554;553;555
568;589;606;618;620;616
549;558;570;580;585;585
580;561;554;555;556;561
584;598;609;618;621;621
551;576;596;611;619;619
567;556;555;560;564;571
589;590;594;601;605;609
558;589;613;630;639;640
550;551;559;569;577;585
577;569;569;575;580;589
560;589;612;629;639;641
538;552;568;583;594;602
565;551;549;554;561;571
566;584;599;613;621;626
532;559;582;600;612;618
548;538;539;546;554;566
568;570;577;586;593;601
535;567;593;612;623;627
531;531;539;550;560;571
561;552;552;559;564;574
544;572;594;612;622;626
520;534;550;565;577;585
548;534;532;538;544;556
549;567;583;597;605;610
516;542;565;583;595;601
533;523;523;531;539;550
553;556;563;573;579;588
522;554;579;598;609;613
520;520;527;538;548;558
549;541;541;548;554;563
530;560;584;601;611;615
509;524;540;555;566;574
540;526;524;531;536;547
541;560;576;590;598;603
509;535;558;575;587;593
527;517;517;524;532;543
548;552;559;568;574;582
516;548;574;592;603;607
514;514;521;532;541;551
546;538;538;544;549;558
528;557;579;597;606;610
507;519;535;549;560;568
535;521;519;525;531;542
537;555;571;585;593;598
505;530;552;569;581;587
524;512;512;519;528;538
542;546;554;564;570;577
511;542;568;587;598;601
510;508;515;526;536;546
541;533;533;539;545;555
523;552;574;593;601;605
501;514;529;544;554;563
534;520;517;522;528;538
536;555;570;584;591;595
503;528;550;567;578;583
524;512;512;518;525;536
544;548;555;565;571;577
512;544;569;587;598;601
511;510;517;527;536;546
545;536;536;542;547;556
525;554;577;594;604;607
507;518;532;546;557;564
539;524;521;526;531;541
535;555;572;586;594;598
504;528;550;568;579;585
524;512;511;519;526;537
543;548;555;566;573;579
509;541;566;585;596;600
510;508;514;525;535;545
541;533;533;540;546;555
519;550;573;590;601;604
500;512;527;542;552;560
532;517;515;521;527;537
530;550;567;582;590;594
497;522;544;561;573;579
519;507;506;513;521;532
537;543;552;561;568;575
504;536;561;580;591;595
506;504;510;520;529;539
536;529;530;537;543;552
516;546;570;588;598;601
500;510;524;538;548;556
531;518;514;520;525;535
528;549;567;581;589;593
495;520;542;559;572;577
518;506;506;512;520;531
536;542;550;561;567;574
500;533;559;578;589;593
504;502;507;517;527;537
534;527;528;536;541;550
511;542;566;584;595;598
495;505;519;533;544;552
528;514;511;516;522;532
525;546;563;577;585;590
496;519;539;556;567;574
518;505;504;510;517;528
535;541;550;560;566;572
502;533;558;576;587;591
506;502;507;517;526;535
534;528;529;536;542;550
511;543;567;585;595;598
492;503;518;532;543;551
522;510;509;516;522;532
518;541;560;576;585;589
490;513;534;552;564;571
512;500;499;506;514;525
525;534;544;556;563;570
490;523;549;569;581;586
495;492;498;509;519;529
526;520;522;530;536;545
505;535;559;577;588;592
489;499;512;526;536;545
526;510;507;512;519;528
522;543;560;575;583;587
495;515;535;551;562;568
523;507;504;509;515;525
540;546;553;562;568;573
507;536;560;578;587;590
511;506;510;519;527;536
541;534;535;542;547;554
516;547;571;589;600;601
498;508;521;535;545;554
521;511;511;518;525;536
500;530;553;572;583;590
451;485;514;537;553;563
451;453;464;480;494;511
449;472;494;516;533;547
445;475;503;527;545;556
556;513;497;496;500;509
653;603;573;559;548;546
643;645;642;638;626;613
626;619;613;607;597;587
618;610;604;600;591;586
563;606;634;650;654;649
506;548;582;606;621;624
513;516;528;545;560;574
518;538;560;581;598;611
481;519;551;579;600;612
487;486;495;511;528;547
517;514;519;530;543;560
493;525;551;572;587;597
478;487;500;515;529;543
510;497;496;503;511;525
505;528;548;564;574;581
474;496;517;535;547;556
499;486;485;493;500;512
514;523;534;546;553;560
480;511;537;555;567;572
487;482;487;497;506;516
517;513;515;523;529;537
493;525;550;568;579;581
476;486;498;512;524;532
508;496;495;502;508;519
505;528;548;564;573;577
475;496;517;534;546;553
499;487;486;492;499;511
515;524;535;547;554;560
480;511;536;555;567;572
489;484;487;497;505;515
519;515;517;525;530;538
492;524;549;568;579;582
479;486;498;512;522;531
512;499;497;503;508;519
503;528;548;564;573;577
471;493;514;532;544;551
495;483;482;490;498;509
510;521;532;544;552;559
472;504;530;550;562;567
476;472;478;488;498;510
503;501;505;515;522;532
476;509;536;557;568;573
462;470;484;498;510;520
493;482;482;490;497;508
480;508;530;548;559;565
447;471;494;513;527;536
470;460;462;471;480;493
480;494;509;524;533;542
444;477;505;526;541;547
452;448;454;466;477;490
484;481;485;495;503;513
457;490;516;537;548;553
450;456;467;481;492;502
492;476;473;478;483;493
494;513;530;545;551;554
475;488;503;517;525;529
513;492;484;486;488;496
535;538;544;551;552;553
513;534;551;564;569;568
532;516;512;515;517;521
570;558;555;555;553;555
549;574;592;605;608;603
543;542;547;554;558;559
580;562;555;555;555;558
574;594;610;621;624;622
546;562;577;590;596;597
572;556;551;555;557;563
582;593;603;612;616;618
548;576;599;615;624;625
554;547;550;557;563;572
577;576;580;587;592;599
549;582;607;625;635;637
539;544;555;566;576;585
569;557;556;561;567;577
555;582;603;619;628;632
523;544;564;581;593;600
550;537;536;543;550;561
560;572;585;598;606;612
523;553;577;596;608;614
530;524;527;536;545;557
555;554;559;567;574;583
526;558;584;603;615;619
517;521;531;544;555;565
550;537;535;541;547;558
538;563;583;599;609;614
510;528;546;562;574;581
540;525;522;528;534;545
546;559;572;585;591;596
512;541;565;583;594;599
522;514;517;526;534;544
548;546;550;559;565;573
521;552;577;595;606;609
511;516;526;537;547;557
541;531;530;536;542;552
528;556;578;594;603;607
503;521;540;556;567;575
531;518;516;522;528;539
537;551;565;578;585;591
502;532;556;575;587;592
515;507;510;519;527;538
541;540;545;554;561;568
512;544;569;588;600;603
503;508;518;530;541;550
537;525;524;530;536;546
523;550;571;588;597;601
498;515;533;549;561;568
528;513;510;516;523;534
536;549;561;574;581;587
503;530;553;571;582;587
517;507;509;516;524;535
540;540;544;552;558;566
510;542;567;586;597;600
503;506;516;528;538;547
535;524;523;529;535;545
523;549;571;587;596;600
497;514;532;548;560;566
526;512;510;516;522;533
531;546;560;573;581;587
496;526;550;568;580;585
511;503;505;514;522;533
535;536;541;550;556;564
508;539;564;583;594;597
500;504;513;525;535;544
532;522;521;528;533;543
519;546;569;585;594;598
494;512;529;544;556;563
525;511;508;514;520;531
532;546;559;572;579;584
499;526;549;567;578;583
515;505;505;513;521;531
537;538;542;551;557;564
507;539;564;583;593;597
502;504;513;524;534;543
535;524;523;529;534;543
519;546;568;585;594;598
497;512;528;544;555;562
529;513;509;515;521;531
534;549;562;574;581;586
502;529;551;568;579;583
518;508;509;516;523;532
539;541;546;555;560;567
510;542;567;586;596;599
506;508;516;527;537;545
539;528;527;533;538;547
523;551;573;591;598;602
498;514;531;546;557;564
526;513;511;517;523;534
531;547;562;575;583;588
497;525;549;567;578;583
514;504;505;513;521;532
537;538;544;553;559;567
508;538;563;582;593;596
505;505;512;523;533;542
538;527;525;531;536;545
521;549;570;588;596;599
496;511;528;543;554;561
526;512;510;515;521;532
530;546;561;574;582;586
495;522;545;563;575;580
510;501;502;510;518;529
535;536;542;551;557;565
509;539;563;581;591;594
502;503;511;522;531;541
529;522;522;529;535;544
511;541;565;583;593;597
489;504;522;537;549;557
523;508;506;512;518;529
530;545;560;572;579;584
497;523;545;562;573;578
516;505;505;512;519;528
540;542;547;556;561;567
515;544;567;585;594;596
515;513;519;528;536;544
546;536;534;539;543;551
527;556;578;594;603;604
505;519;534;549;559;565
535;520;518;523;529;539
536;553;569;582;590;594
502;528;551;569;580;586
509;502;505;514;523;534
514;524;536;550;559;568
469;509;542;566;582;589
445;458;475;494;511;526
464;467;477;492;506;523
485;507;529;549;563;572
559;535;528;531;535;541
640;587;556;541;531;531
652;645;637;630;618;607
621;632;637;637;629;618
607;599;594;592;586;581
579;601;616;626;627;625
516;569;607;633;647;648
498;514;535;556;573;585
517;521;533;551;566;582
492;531;564;590;610;623
472;490;511;533;553;570
501;491;493;503;517;536
501;522;541;559;573;584
470;497;521;541;557;568
491;480;481;490;500;515
513;517;524;535;543;554
482;513;539;558;570;576
482;481;488;499;509;520
513;505;505;513;518;528
494;524;547;565;575;579
474;487;502;517;528;536
506;493;490;496;503;513
510;527;543;558;565;569
477;501;523;541;553;558
497;485;485;492;499;510
515;520;528;539;545;552
484;516;542;561;572;575
487;486;493;502;512;522
518;510;510;517;522;531
498;529;552;570;580;582
478;491;506;521;532;539
509;496;494;500;506;517
504;525;544;560;569;573
471;497;521;540;553;559
491;481;482;490;499;510
511;517;525;537;544;552
477;509;536;556;568;572
475;476;483;495;505;516
506;499;501;509;516;527
485;516;540;559;571;575
465;477;493;508;521;530
493;481;480;488;495;507
489;511;530;546;556;562
454;481;505;525;538;546
474;464;466;475;484;497
491;499;509;521;530;538
456;490;517;538;551;557
454;455;463;476;487;499
484;479;481;491;499;509
464;496;521;541;552;558
445;458;474;490;502;512
476;464;464;471;479;490
475;497;516;531;541;546
447;472;493;512;524;531
474;461;460;467;474;485
501;504;510;520;525;531
478;504;526;543;553;553
492;483;484;491;496;503
535;520;515;518;518;523
525;547;564;577;581;578
517;520;527;535;539;541
559;538;528;528;527;530
564;577;587;596;597;594
537;555;570;581;586;585
563;545;540;541;542;546
582;585;590;597;597;597
550;577;599;614;621;619
555;548;551;557;562;568
584;575;574;578;580;585
561;590;612;628;635;635
544;552;564;576;585;590
575;561;556;561;565;573
568;589;606;620;627;630
534;558;578;596;606;611
556;544;542;548;555;566
571;579;588;598;604;610
535;567;592;611;622;626
538;535;540;550;559;570
563;558;560;568;574;583
538;570;595;614;624;628
521;531;545;559;570;579
553;540;538;544;550;561
548;570;588;603;612;618
515;539;561;578;590;596
538;525;525;532;539;551
551;560;570;581;589;596
517;548;573;592;604;609
524;519;523;533;542;553
552;546;548;554;560;569
527;558;582;600;611;614
510;519;532;546;557;566
543;529;527;533;538;549
538;560;578;593;601;606
507;529;550;566;578;584
532;518;516;523;529;540
547;555;564;575;581;587
512;542;567;586;597;601
517;513;517;526;535;546
546;541;543;550;555;564
523;554;578;596;606;609
506;515;528;541;552;560
538;526;524;529;535;545
532;555;574;589;598;602
500;523;544;562;573;580
526;513;511;518;525;536
541;549;559;571;577;584
507;537;562;581;592;596
514;510;513;522;531;541
543;538;540;547;552;560
518;550;574;592;602;605
504;511;523;536;546;555
536;523;520;526;531;541
528;551;570;586;594;598
498;520;540;557;569;575
522;509;508;514;521;532
533;543;554;566;574;580
501;531;556;575;587;591
510;504;507;516;525;535
538;533;535;542;548;556
512;544;568;586;596;599
498;505;517;530;541;549
530;517;515;521;527;537
523;547;566;582;591;595
493;515;535;552;564;570
519;506;504;511;518;529
533;543;554;565;572;578
497;528;553;572;583;588
505;500;504;514;523;533
532;529;532;541;546;555
506;539;564;583;594;598
494;501;513;526;537;546
526;514;512;518;524;535
518;542;562;578;587;592
490;511;531;547;559;566
517;503;501;507;515;525
530;540;551;563;569;576
496;525;550;568;580;584
504;498;501;510;519;529
533;529;531;539;545;553
507;539;563;581;592;595
495;501;513;525;535;544
529;516;513;519;525;535
522;546;564;580;588;592
493;513;532;548;559;565
520;505;503;509;515;526
530;541;553;564;571;577
497;526;551;569;580;584
505;499;504;512;520;531
531;529;532;541;546;554
505;537;563;582;592;595
492;499;511;524;535;544
525;514;512;519;524;535
517;541;562;578;588;591
489;509;528;545;557;563
516;502;500;507;513;525
522;535;548;561;569;575
484;515;542;562;574;579
496;490;494;504;513;524
528;524;526;535;541;549
503;533;557;576;586;589
491;496;506;519;529;538
526;513;510;516;521;531
518;541;561;576;584;588
493;510;528;543;554;560
525;508;504;509;514;524
536;546;557;567;573;578
501;529;552;570;580;583
512;504;506;514;521;530
538;535;538;546;551;558
512;543;567;585;595;597
503;507;517;529;538;546
534;523;521;526;532;540
513;542;565;582;592;595
468;497;520;540;554;562
480;477;482;494;505;520
466;493;517;537;552;563
412;457;493;522;543;556
444;439;446;462;477;495
571;534;519;520;522;530
622;607;600;597;592;585
629;602;584;573;561;555
666;636;613;598;581;572
620;646;660;664;657;645
536;574;601;616;621;619
529;537;549;562;572;579
516;548;576;601;615;624
471;513;550;580;602;614
479;480;492;510;529;548
504;507;518;534;549;566
477;511;540;564;583;594
469;474;487;502;518;534
504;493;492;500;509;525
494;520;541;558;570;577
469;487;505;521;533;543
499;485;483;488;495;507
508;522;535;548;555;561
474;503;527;545;557;562
488;480;482;491;499;509
513;512;517;526;532;541
485;517;543;562;573;576
479;482;492;504;514;523
512;501;500;506;511;521
499;526;548;564;573;577
474;492;510;526;537;544
501;488;487;493;499;510
510;525;539;552;559;564
477;504;529;547;559;564
490;481;484;492;500;511
514;514;519;528;535;542
485;517;543;562;573;577
476;480;490;502;513;523
510;499;499;505;511;521
497;524;546;563;572;576
471;489;507;523;534;542
502;487;485;491;497;508
508;523;537;550;558;563
472;500;525;543;557;561
485;477;480;490;497;508
506;508;515;525;532;540
476;510;537;557;569;573
468;472;483;496;507;518
496;489;490;498;505;516
480;510;535;553;565;569
452;472;492;509;523;532
479;468;468;476;485;498
483;501;518;533;543;550
449;478;504;524;538;545
458;452;457;468;480;491
480;484;492;504;513;523
450;485;513;534;547;553
447;450;460;474;485;497
485;473;473;480;486;497
475;500;521;538;548;552
459;471;486;500;511;517
501;481;474;477;481;490
518;526;535;544;548;550
495;514;531;544;551;552
523;505;499;501;503;508
557;549;547;550;549;551
536;560;578;590;593;590
541;534;535;540;542;544
578;561;554;554;552;554
566;589;606;617;620;617
544;556;569;579;584;585
575;558;552;554;555;560
578;593;606;616;620;620
545;570;592;607;616;617
561;550;550;555;562;568
582;583;588;596;600;605
551;582;607;624;634;636
545;545;553;563;572;580
575;566;565;570;575;584
554;583;606;623;633;636
530;545;562;577;588;596
557;543;541;547;555;565
560;576;592;606;614;620
524;551;574;592;604;610
541;531;531;539;547;558
562;564;570;579;586;594
528;561;586;605;616;621
525;525;533;544;554;564
557;547;546;553;558;569
542;569;591;607;616;620
518;532;547;562;572;580
548;533;530;535;541;552
549;566;582;595;603;607
513;540;563;581;593;598
530;521;521;529;537;547
551;555;561;571;577;585
521;553;578;597;608;612
518;519;525;536;545;556
551;542;541;547;552;561
532;561;584;601;610;613
508;523;539;554;565;572
539;525;523;528;535;545
541;559;575;589;597;601
506;533;556;574;585;591
524;514;515;522;530;541
545;548;555;565;571;579
515;546;571;590;601;604
513;512;519;530;539;548
543;534;534;541;546;555
524;553;576;593;603;607
502;516;531;546;557;565
534;519;516;522;528;539
533;552;569;582;590;595
502;527;549;567;579;584
523;511;510;517;524;535
544;547;553;562;568;575
510;542;567;586;596;600
508;508;515;526;535;544
539;532;532;539;544;553
522;551;574;592;601;604
502;515;530;544;554;562
535;520;517;522;527;538
534;553;569;583;590;595
500;526;548;566;577;583
519;508;508;516;524;534
537;542;550;562;567;575
505;537;563;582;593;598
504;503;510;521;531;541
537;529;529;536;541;551
517;546;569;587;597;601
495;508;523;538;549;557
529;515;511;517;523;534
529;548;564;579;586;591
497;521;543;560;572;577
519;506;505;512;519;530
538;542;550;560;565;572
503;535;560;579;590;594
505;502;509;519;528;538
537;528;528;535;540;549
517;546;569;587;596;600
496;508;522;536;547;555
527;514;512;518;524;533
525;546;563;578;586;591
493;518;540;558;570;576
514;503;502;510;517;528
531;538;546;557;564;571
499;531;557;576;587;591
502;499;505;516;525;535
532;525;526;533;539;547
510;541;565;583;593;597
488;501;517;532;543;551
521;508;506;512;519;529
519;540;558;573;582;587
490;513;534;552;564;570
511;498;498;505;512;523
525;532;542;552;559;566
487;522;548;568;581;585
490;488;495;507;517;528
523;517;517;525;532;541
503;533;556;575;585;589
486;496;510;524;535;543
523;507;503;508;514;524
524;543;558;572;579;583
496;518;537;553;563;567
522;507;504;509;514;524
538;544;551;560;565;570
505;536;560;578;588;590
508;504;509;519;527;535
537;531;532;539;544;551
515;546;570;588;598;600
498;509;522;536;546;554
530;517;514;520;525;535
517;542;562;578;587;592
470;501;527;548;562;570
477;475;481;494;505;520
469;491;511;530;544;557
420;466;503;531;552;563
458;450;457;471;486;502
582;540;521;518;519;526
623;610;605;603;597;590
618;600;588;580;570;563
653;623;602;589;574;567
619;641;653;657;651;639
537;577;605;622;628;625
526;534;547;560;570;578
524;548;571;593;607;616
480;523;561;589;610;621
482;485;498;517;536;554
510;508;515;530;544;561
487;521;549;571;588;599
472;483;498;515;530;545
506;494;493;500;509;524
504;526;545;561;571;579
473;496;517;535;548;556
497;485;484;492;499;511
511;521;531;543;550;558
478;509;535;555;567;572
484;480;485;495;504;515
516;510;512;520;525;534
490;522;547;566;577;579
474;484;497;513;523;531
509;495;493;499;505;516
504;527;545;561;570;574
476;497;517;534;545;552
503;488;486;493;499;510
518;526;535;546;553;558
484;515;539;558;568;572
492;486;490;499;507;518
519;514;516;524;529;537
496;527;551;569;579;582
478;487;500;514;524;533
509;497;495;502;508;518
502;526;546;562;571;576
472;494;516;533;545;552
494;483;483;490;498;510
507;518;530;542;550;557
471;504;530;551;563;568
479;474;479;490;500;511
505;502;506;515;522;531
479;512;538;558;570;574
461;472;486;501;513;523
491;481;481;489;497;509
482;508;530;548;559;565
450;474;496;515;529;538
473;462;463;472;481;494
485;496;509;523;532;541
450;481;508;530;543;549
458;453;460;470;480;492
487;483;488;496;503;513
463;494;520;539;551;555
450;457;470;484;495;505
489;474;471;478;483;494
489;510;527;542;550;554
469;485;501;516;525;530
508;487;480;483;486;494
530;533;539;546;548;550
508;530;548;561;567;566
527;513;510;513;515;519
565;554;549;551;550;551
549;573;591;602;605;602
540;541;546;553;557;558
578;560;553;553;552;555
574;594;609;620;622;619
547;564;579;591;598;598
574;558;553;555;557;563
589;597;605;614;617;617
552;582;604;619;628;628
561;553;555;561;568;575
584;582;584;590;595;601
556;588;612;630;640;641
543;549;559;571;581;589
575;562;559;564;570;579
563;588;608;624;632;636
531;552;571;587;599;606
556;543;541;547;554;566
565;577;589;601;609;615
529;560;584;602;614;620
537;531;534;543;552;563
564;562;566;573;579;588
538;569;594;612;623;627
522;529;540;552;563;573
553;542;541;547;553;564
541;568;589;606;615;620
513;534;553;569;581;589
540;527;526;531;538;550
548;561;574;586;594;600
512;543;568;587;599;604
525;517;520;529;537;549
551;549;552;561;567;575
523;555;581;599;610;613
513;518;529;542;551;561
546;534;532;538;543;553
536;561;582;598;606;610
507;526;544;560;572;579
534;520;518;524;530;541
546;557;569;581;588;593
510;539;563;581;592;597
520;513;515;524;532;542
545;543;547;556;562;570
517;549;574;593;604;607
508;512;522;535;545;554
541;529;527;532;538;548
530;556;576;592;601;605
501;520;538;554;566;573
530;515;513;519;525;536
538;552;564;577;584;589
502;532;557;575;587;591
516;508;510;519;527;537
542;541;545;553;559;567
512;545;570;589;600;603
502;507;517;530;540;550
538;526;524;530;535;545
526;552;574;589;598;602
497;516;534;550;563;568
526;512;510;516;523;534
535;549;562;574;581;587
500;529;554;572;583;588
513;505;507;515;523;533
539;538;542;551;556;564
509;541;566;585;596;599
499;503;513;525;536;546
534;522;520;526;532;542
520;546;568;586;594;598
494;512;529;545;556;564
524;509;507;512;519;529
532;545;558;571;578;583
497;525;549;567;578;583
510;501;503;511;519;529
535;534;539;548;554;561
506;539;564;583;593;596
500;503;512;524;533;543
531;521;519;526;531;541
514;543;566;583;593;597
487;505;524;542;553;561
520;505;503;509;516;527
528;542;556;569;576;581
489;519;543;562;574;579
499;493;496;505;514;525
521;524;531;541;548;557
492;525;552;572;585;589
489;491;501;513;524;534
524;511;510;516;522;533
510;536;558;575;584;588
487;502;518;534;545;552
522;504;500;505;510;521
533;545;556;568;573;577
499;525;547;563;573;576
516;505;504;511;517;526
542;541;545;552;556;562
511;542;567;584;594;596
503;505;514;525;534;542
536;525;524;530;535;544
522;549;571;588;596;599
496;513;530;545;556;562
515;505;505;512;519;530
505;529;548;565;575;582
457;494;525;548;564;573
454;457;467;482;497;513
462;476;492;510;525;539
454;486;514;538;555;565
542;510;500;503;508;517
642;589;559;545;536;536
638;639;637;632;622;610
622;619;617;613;604;593
623;609;599;593;584;579
575;609;631;643;645;640
506;554;591;616;630;632
503;510;525;544;559;573
514;528;547;568;584;598
480;519;554;582;604;616
474;480;494;512;531;550
508;501;503;514;527;545
492;521;546;567;581;592
466;483;501;519;535;547
497;484;483;490;499;514
503;520;536;550;559;567
470;497;520;539;552;559
488;478;479;487;495;507
512;515;521;531;537;545
481;514;540;559;570;574
477;479;487;499;508;519
510;501;501;508;514;523
496;524;547;565;574;577
472;487;503;519;530;537
504;490;488;494;499;510
507;525;541;555;562;567
473;500;524;542;554;559
494;483;484;491;498;509
516;519;526;535;541;548
484;515;541;560;571;575
481;481;489;500;510;520
515;505;505;511;518;526
497;526;549;567;576;580
474;488;504;519;530;538
505;491;489;495;501;512
508;526;542;556;564;568
473;499;523;541;553;559
489;479;481;489;497;509
510;514;522;533;540;547
476;509;536;556;568;572
472;473;482;494;505;516
503;496;497;505;512;522
483;514;539;558;569;573
459;475;492;509;521;530
488;477;477;484;492;503
488;509;527;543;553;559
452;481;505;525;539;546
469;461;463;473;482;495
490;496;505;517;525;534
458;491;518;539;552;557
454;456;464;478;488;500
488;481;482;490;497;507
472;502;526;545;555;559
456;467;482;497;508;516
496;478;473;478;483;494
508;521;533;545;551;554
485;504;521;535;543;546
518;498;491;494;496;503
548;544;545;550;550;552
526;549;568;581;585;583
535;525;524;529;531;534
573;558;551;552;551;552
558;582;600;612;615;611
543;550;559;568;573;574
579;560;552;553;553;557
579;595;608;618;622;620
544;568;587;602;609;610
563;551;549;553;558;565
584;588;594;602;606;610
550;581;605;622;631;632
548;547;552;561;569;577
576;569;569;575;580;588
554;585;609;626;635;638
534;545;560;574;584;592
565;551;548;554;559;570
560;581;599;613;621;626
525;551;573;591;603;610
545;533;533;540;548;560
564;569;577;588;595;602
528;560;585;604;616;620
527;525;531;542;552;563
556;549;550;557;563;573
534;565;589;608;618;622
515;526;540;554;565;575
545;532;529;535;541;553
544;564;581;596;604;609
512;536;557;575;586;592
532;520;519;526;533;545
551;557;565;575;582;589
518;550;574;592;603;607
520;518;523;532;541;551
551;544;545;551;556;565
527;559;583;601;610;614
508;519;534;547;558;566
541;527;525;531;536;547
538;559;577;592;600;604
506;530;551;570;580;586
528;515;514;521;529;540
544;552;561;572;578;584
510;542;568;587;598;602
514;510;516;526;535;545
545;537;538;545;551;560
521;552;576;594;604;608
504;513;527;541;551;560
537;523;520;526;531;542
534;555;572;587;596;599
502;525;546;563;574;580
524;511;510;516;523;534
540;547;558;568;574;581
506;538;562;581;592;596
508;505;511;521;529;540
539;532;534;541;547;556
516;547;571;589;599;603
498;509;522;535;546;555
531;518;516;522;527;538
528;550;568;583;591;596
495;519;540;558;569;575
519;506;505;512;520;530
536;544;554;566;571;577
503;534;559;577;589;592
505;502;507;517;526;536
535;530;532;540;545;554
513;544;569;587;597;600
496;505;518;532;542;551
529;516;514;520;526;535
522;545;563;579;588;593
489;512;533;551;564;571
515;502;500;506;514;526
531;539;549;560;567;574
497;527;552;571;582;587
502;497;502;511;520;530
528;524;526;534;540;549
501;534;560;579;590;594
487;496;509;523;534;543
521;508;505;512;518;529
516;538;557;573;582;586
487;508;528;545;557;563
517;502;500;504;510;521
535;542;551;562;566;572
503;532;555;572;582;586
511;504;507;515;522;531
541;535;536;543;546;553
516;547;571;589;598;599
501;509;521;533;543;550
538;523;520;525;530;538
531;554;572;587;595;597
499;521;541;558;568;574
516;505;505;513;520;531
513;530;546;561;570;578
461;501;534;558;575;582
451;457;471;488;503;519
466;473;485;502;516;532
460;491;519;543;560;570
529;506;502;508;515;524
635;579;548;535;526;528
643;638;632;626;616;605
624;624;624;621;612;601
622;606;595;589;580;576
580;608;626;636;636;632
510;561;599;625;638;638
495;509;526;546;562;575
511;522;537;557;573;587
482;523;557;586;607;618
469;481;498;519;539;556
504;494;495;507;519;537
496;521;543;563;578;587
468;489;510;529;544;556
495;482;481;488;497;512
509;520;532;544;553;561
475;505;530;549;562;568
485;479;483;493;501;512
512;509;513;521;528;537
487;519;545;564;575;578
476;481;492;506;517;526
510;497;495;501;507;517
502;526;546;562;571;575
473;493;512;529;540;547
502;487;485;492;497;508
514;525;536;548;555;560
478;508;532;551;563;567
490;482;485;494;502;512
518;515;517;525;531;539
493;524;549;567;578;580
480;485;496;509;520;528
513;501;499;505;511;521
503;529;550;566;575;579
475;495;515;531;543;549
501;488;487;493;500;511
510;523;537;550;557;563
474;505;531;550;562;567
482;477;482;492;501;512
509;508;512;522;529;538
481;514;541;561;572;576
469;476;487;501;512;522
502;491;491;498;504;515
488;516;538;556;566;571
459;480;501;519;532;540
484;471;471;479;488;500
491;506;521;535;544;551
456;487;512;533;547;553
465;459;464;474;485;497
490;490;496;506;515;523
462;496;523;543;556;561
452;458;469;483;495;507
485;474;474;481;489;500
477;502;524;541;551;556
456;473;490;506;518;525
494;475;470;475;480;490
513;521;529;539;543;547
489;512;531;545;553;554
512;497;495;497;500;507
549;540;538;541;542;543
528;554;573;586;591;588
528;525;529;535;539;542
570;552;544;544;543;546
564;585;599;610;612;609
540;553;567;578;583;583
571;552;546;548;549;554
581;591;601;609;612;612
545;572;593;608;617;616
559;548;548;554;559;566
583;580;583;590;593;598
553;584;608;625;634;635
542;545;554;565;574;581
575;563;560;566;571;579
561;587;607;623;632;636
531;549;567;582;594;600
557;543;541;547;553;564
564;579;592;605;612;618
528;556;580;598;610;615
539;531;533;541;549;560
562;562;567;576;583;591
531;564;591;609;620;625
521;525;535;547;558;568
553;543;542;550;555;566
541;568;590;606;616;620
515;532;550;565;576;584
543;529;527;532;538;550
548;564;578;591;598;604
512;541;565;584;596;601
525;517;519;527;536;547
550;551;556;565;571;579
520;553;579;597;608;612
513;516;525;536;546;556
545;535;534;540;547;556
531;558;580;597;606;611
505;522;540;555;565;573
536;521;518;524;530;541
541;556;570;584;590;596
507;534;557;575;587;592
522;512;513;521;528;539
546;546;551;560;566;573
514;547;573;591;602;606
508;510;518;530;540;551
540;530;529;535;541;551
524;552;574;591;601;605
499;515;532;548;559;567
530;515;512;518;525;536
536;552;566;579;586;591
500;528;551;569;581;586
518;508;509;516;524;534
541;542;548;557;563;570
509;542;568;587;597;601
503;505;514;525;536;545
537;527;527;533;538;548
521;550;572;589;598;602
496;512;529;545;556;563
528;513;511;516;522;533
534;550;564;577;585;589
497;524;548;566;577;582
514;504;505;512;520;531
535;537;544;553;560;567
503;536;562;581;592;596
496;498;507;519;529;540
532;522;521;528;534;544
517;544;567;584;593;597
492;507;524;538;549;557
522;508;505;511;517;528
521;540;556;570;578;584
484;512;537;556;569;575
505;494;495;503;512;523
529;531;537;547;553;561
496;529;555;574;585;589
494;494;502;513;523;533
530;520;519;525;530;540
519;545;566;582;591;594
500;512;526;539;549;555
533;516;512;516;520;529
533;551;566;578;585;588
499;525;548;565;576;580
518;507;507;514;521;531
540;542;549;558;564;571
506;539;565;583;594;597
502;502;510;521;531;541
524;519;521;529;536;546
490;526;555;576;589;595
453;476;499;520;537;547
465;463;470;483;496;513
454;484;509;532;548;561
455;476;498;519;535;546
576;525;503;498;498;507
659;618;594;581;570;566
641;644;642;638;627;613
642;623;610;601;589;580
624;623;619;617;608;601
548;602;636;656;662;657
494;531;563;587;603;609
504;510;524;542;558;574
497;530;559;585;605;618
463;496;528;555;578;594
482;476;482;496;513;533
502;510;520;536;550;565
469;504;532;554;570;582
471;471;479;492;505;520
506;498;498;506;513;527
487;517;541;560;570;576
466;480;495;510;522;532
499;485;483;489;495;507
500;519;536;551;559;564
469;494;515;533;545;551
490;478;477;485;492;503
509;514;522;532;538;545
475;508;534;554;564;568
477;475;482;493;502;512
509;501;502;508;515;523
490;519;543;561;571;574
468;481;496;511;522;530
503;488;485;491;497;508
501;521;538;553;561;566
469;494;517;535;546;552
490;479;479;486;493;504
508;514;523;534;541;547
474;507;534;553;565;569
476;474;481;492;502;512
507;500;502;509;515;524
486;517;542;560;570;574
466;479;494;509;520;529
497;484;483;490;496;507
495;517;535;551;560;565
460;486;509;528;541;548
480;470;471;479;488;500
495;503;513;526;534;542
461;494;521;542;555;560
461;460;468;480;491;502
491;486;488;497;504;514
467;499;525;545;557;562
446;460;476;492;505;514
478;466;465;474;481;493
475;497;516;533;543;549
442;467;490;510;523;531
465;454;454;463;471;484
486;492;501;513;520;528
457;488;512;531;542;547
468;464;466;475;484;493
509;498;496;501;504;511
498;522;542;557;563;564
494;496;504;513;519;523
540;517;507;507;507;512
548;561;571;579;581;578
526;541;555;565;570;568
557;537;529;529;528;532
581;581;584;588;588;586
552;577;597;609;614;610
561;552;551;555;558;561
593;583;580;582;582;584
569;597;618;632;638;635
550;558;569;580;587;591
582;567;562;566;569;576
576;597;614;628;634;635
544;566;586;601;612;616
565;552;550;555;561;571
577;586;595;605;611;617
541;573;598;616;627;631
544;541;545;555;564;574
572;567;569;576;581;590
548;579;603;621;631;635
529;539;552;565;576;585
560;547;546;551;557;568
552;576;595;610;619;624
519;543;564;583;595;601
543;530;529;536;544;556
556;565;575;587;594;601
521;553;578;597;609;614
526;522;527;536;546;557
556;551;552;560;566;575
530;562;587;605;616;620
514;523;536;550;561;570
546;533;531;537;543;554
540;563;582;597;606;611
508;530;551;568;580;587
533;519;519;524;531;543
549;557;566;577;584;590
513;544;569;587;599;602
519;514;518;527;536;546
549;544;545;552;558;566
526;556;580;598;608;612
508;517;529;542;552;561
539;526;524;530;536;547
531;555;575;591;600;604
502;524;543;560;572;579
527;513;512;518;525;536
539;549;560;572;579;585
504;535;561;579;591;596
511;507;511;520;529;540
541;537;539;547;552;561
516;548;573;591;601;604
500;509;521;534;545;554
533;521;519;525;531;541
525;550;570;586;595;599
495;517;537;554;566;573
522;509;507;514;520;532
536;546;557;568;575;581
501;532;557;575;586;590
508;502;506;515;524;534
537;533;536;544;549;557
510;542;567;586;596;599
497;504;516;529;539;548
531;518;516;522;527;537
524;548;567;584;591;595
492;513;533;550;562;568
515;503;502;509;516;527
526;539;551;563;571;577
495;525;550;568;580;585
506;498;501;510;519;529
533;529;532;540;545;554
504;537;562;581;592;595
488;497;509;524;534;543
522;511;511;516;522;533
515;540;560;577;586;590
489;508;527;544;555;562
515;502;499;505;512;523
528;539;550;562;569;574
499;527;550;568;579;582
514;505;505;513;520;529
545;540;540;546;550;557
518;549;572;589;598;599
507;512;522;533;542;549
542;528;525;529;534;542
532;556;575;591;598;601
502;521;540;556;566;572
528;514;512;518;524;534
534;548;560;573;580;586
485;520;548;570;583;588
482;483;491;504;516;529
493;500;511;526;537;550
438;485;522;550;569;579
423;439;459;481;500;517
532;500;488;492;498;511
627;603;593;591;587;584
638;616;602;593;585;576
673;634;606;588;571;563
668;671;669;664;650;636
573;618;645;659;659;650
534;552;569;583;591;595
533;554;576;595;608;617
487;538;579;611;633;643
473;489;511;535;558;576
509;502;507;522;539;559
496;526;551;574;592;605
468;489;511;531;549;564
498;485;485;495;505;522
509;522;535;550;560;571
474;503;528;548;561;569
486;479;481;491;500;513
512;511;516;526;532;542
485;517;542;562;573;578
477;481;491;503;514;524
512;499;498;505;510;520
499;526;547;564;573;577
473;491;509;526;537;544
503;489;486;492;498;509
512;525;538;551;558;563
476;505;529;548;560;564
488;482;484;493;501;511
516;515;520;529;535;543
485;518;545;564;575;578
480;483;493;505;516;525
512;501;500;507;513;522
497;525;548;566;575;578
472;491;509;526;537;544
500;488;486;493;500;510
506;523;536;551;559;564
470;500;525;545;558;563
485;477;479;489;498;509
508;509;515;525;533;541
478;511;537;557;569;573
468;473;484;497;508;519
500;490;490;498;505;516
485;513;537;555;566;571
457;476;495;512;525;534
483;471;471;479;487;499
489;506;521;536;545;552
452;482;508;528;541;548
464;457;461;471;481;494
484;488;495;507;515;525
452;487;515;537;550;556
443;448;460;475;487;499
475;467;468;477;485;497
464;493;516;535;546;551
442;459;477;493;506;514
477;462;459;465;472;483
493;505;517;529;535;540
472;493;513;528;537;540
500;483;479;482;486;493
536;529;528;532;532;535
519;542;560;573;577;574
524;517;519;524;526;528
568;549;540;539;537;539
561;581;596;607;609;603
540;549;560;570;574;574
573;554;546;546;547;551
583;593;603;611;614;612
549;573;592;606;613;612
563;551;549;554;558;564
585;585;589;596;599;603
555;586;609;626;634;635
547;548;555;565;573;581
578;568;566;571;576;584
559;588;610;626;635;638
531;547;564;579;590;598
557;545;543;549;556;567
560;578;594;607;615;621
524;552;576;595;607;613
540;530;532;540;548;560
561;564;571;580;587;595
529;562;588;607;618;623
525;526;534;546;556;566
556;547;546;553;559;569
535;566;589;607;617;621
512;527;544;560;572;581
541;528;526;532;539;551
544;562;578;592;600;606
509;536;560;578;590;597
526;515;516;524;532;544
547;549;556;566;573;581
514;546;572;591;603;607
509;510;518;530;540;551
542;532;532;539;545;555
522;552;575;593;603;607
499;513;530;545;557;565
532;517;514;520;527;538
535;552;567;580;589;594
501;527;549;567;578;584
519;508;508;515;523;534
542;545;551;560;566;573
511;544;568;586;597;600
507;508;515;526;535;544
539;531;531;537;542;551
520;550;574;591;601;604
498;512;528;543;554;562
529;516;513;519;525;536
533;551;566;580;588;592
500;526;548;565;577;582
518;507;507;514;522;532
539;543;550;560;566;573
506;539;564;583;594;597
505;504;511;522;532;542
537;528;528;534;540;549
518;547;570;588;598;602
496;508;523;538;550;558
528;513;510;516;522;533
530;548;563;577;586;590
497;521;543;560;572;578
516;504;504;512;518;529
537;540;548;558;564;571
502;534;560;579;590;593
502;501;507;518;527;537
532;524;525;532;537;546
512;542;566;584;594;597
490;504;519;534;545;553
524;510;507;513;519;530
526;545;561;575;583;587
493;518;540;558;569;574
509;499;499;507;514;525
526;533;542;553;560;567
493;526;553;572;584;588
496;494;501;512;522;532
527;520;520;527;533;542
505;536;560;579;589;592
487;499;513;528;539;547
529;512;507;512;517;527
530;547;561;575;582;585
498;521;541;557;567;572
521;507;505;510;516;526
541;545;551;560;565;571
508;538;562;580;590;592
509;506;511;521;528;537
541;533;532;539;543;551
518;548;572;589;599;601
499;510;524;538;548;556
521;510;510;517;523;534
503;531;553;571;582;588
457;490;519;541;557;567
458;459;468;482;496;512
460;480;499;519;534;547
449;481;509;533;550;561
542;507;495;497;502;512
641;592;564;551;542;542
640;641;638;633;623;611
631;622;615;607;597;587
637;621;609;602;591;584
579;618;641;655;656;649
510;556;591;615;627;630
510;516;530;548;563;576
512;534;557;579;597;610
474;514;550;579;602;615
477;478;490;508;527;547
507;503;508;521;535;552
487;519;545;567;583;593
471;481;495;511;526;540
504;491;489;496;504;519
500;522;541;557;566;573
468;492;514;532;545;553
491;479;479;486;494;507
509;517;526;538;545;552
476;507;532;552;563;568
482;478;483;493;502;512
513;507;508;516;521;530
490;522;546;564;574;577
473;483;497;511;521;529
506;493;492;498;503;514
503;526;545;560;568;572
473;496;517;535;546;552
497;485;484;490;497;508
511;521;532;543;549;556
480;511;536;555;566;570
483;480;486;497;505;515
512;507;510;518;524;533
489;521;546;565;576;579
475;483;496;510;521;530
507;493;491;498;504;515
501;524;543;559;568;572
469;492;513;531;544;550
493;481;479;487;495;506
504;514;526;539;546;553
468;500;527;547;560;565
474;470;476;487;497;508
504;499;502;511;518;527
475;508;535;555;567;571
455;466;481;497;509;520
486;476;476;484;492;504
477;503;525;543;554;560
443;469;492;512;526;535
468;457;458;467;477;490
483;494;507;520;529;537
449;481;507;528;541;547
456;452;458;469;479;491
488;483;486;495;501;511
469;499;523;542;552;556
463;467;478;490;499;508
507;489;483;486;490;498
512;528;543;555;560;561
494;507;522;534;541;543
531;509;500;501;502;508
556;557;560;566;566;566
531;553;570;582;587;584
546;533;530;532;534;537
581;570;566;567;566;567
559;585;605;617;621;617
549;551;559;566;570;572
586;568;561;563;563;567
579;600;615;627;631;629
547;566;583;597;605;607
572;557;554;557;561;568
582;593;602;612;618;620
546;576;600;617;627;629
554;548;550;558;566;574
579;576;578;586;591;598
550;583;608;626;636;639
534;542;553;566;577;586
565;554;553;558;564;575
555;580;601;617;627;631
525;546;566;582;594;602
550;537;535;542;548;560
560;572;584;596;604;610
523;553;579;598;610;615
533;527;530;539;548;559
559;556;559;567;574;583
531;563;588;607;618;622
520;525;536;548;559;569
552;539;537;543;549;560
541;566;586;602;611;616
510;530;550;566;578;586
536;522;520;527;534;546
547;559;572;583;591;597
515;543;566;584;596;601
527;519;520;528;536;546
553;550;552;560;565;573
525;557;582;599;609;612
515;520;530;542;551;560
554;540;536;541;545;554
544;568;587;603;609;612
516;534;552;567;577;583
543;528;526;531;536;546
553;565;577;589;595;600
514;544;569;588;599;603
524;518;521;530;538;548
552;550;554;562;568;576
528;559;583;601;611;614
516;520;530;542;552;561
547;536;534;540;545;555
535;560;581;597;607;612
505;524;543;559;571;578
535;520;518;523;530;541
542;556;568;581;588;594
507;536;560;578;590;595
520;512;514;522;530;541
547;545;548;557;562;571
512;547;573;592;603;606
502;507;518;531;542;552
537;526;524;531;537;547
525;551;572;589;600;603
499;517;535;551;562;569
529;514;512;517;524;535
536;551;564;576;583;588
503;531;555;573;584;589
511;505;508;516;524;535
532;534;540;550;557;565
499;535;562;582;595;599
493;498;508;521;533;543
529;518;517;524;531;541
521;546;566;583;592;596
487;507;525;542;553;561
513;501;500;507;514;526
520;537;551;565;573;579
488;516;540;560;572;577
504;494;496;504;512;524
529;528;533;542;548;556
500;532;557;576;587;590
494;496;505;517;526;536
534;520;517;522;527;536
526;549;568;583;591;593
497;513;530;544;554;560
524;509;507;512;518;528
530;545;559;572;579;583
496;524;547;565;576;581
512;502;503;511;518;529
536;537;541;550;556;563
507;539;564;583;593;596
490;496;507;520;530;540
506;504;508;518;526;537
480;516;545;567;581;588
437;465;491;514;531;544
447;447;455;470;485;503
469;488;508;526;541;552
521;519;527;539;548;553
618;563;534;523;516;518
660;630;608;595;581;573
639;651;655;653;642;627
605;604;604;602;595;588
578;588;594;600;598;596
528;577;614;638;649;649
481;516;548;574;593;603
500;499;509;527;544;561
498;524;549;572;591;605
465;497;526;552;574;588
487;478;481;494;509;528
509;511;519;531;543;557
480;512;538;559;573;582
474;476;485;497;509;523
506;497;497;505;512;524
490;519;543;561;571;577
465;482;500;516;528;537
499;486;483;489;496;508
508;524;538;551;559;564
473;500;523;541;552;558
491;481;482;490;497;507
514;517;523;533;538;545
482;515;541;560;571;574
479;480;488;500;509;519
510;503;502;509;515;524
493;523;546;565;574;578
472;486;503;519;530;538
502;488;486;492;498;509
506;523;539;553;561;566
473;498;521;540;552;558
491;481;481;489;496;507
511;514;521;531;538;545
475;509;536;556;568;572
473;474;482;494;505;516
509;500;499;506;512;521
494;521;544;561;571;574
470;484;500;515;526;533
500;486;484;490;496;507
499;519;536;551;559;564
461;490;514;534;547;553
478;470;472;481;490;502
495;502;511;524;532;540
457;494;523;544;558;563
451;455;466;481;492;505
484;478;481;491;498;510
466;497;522;542;554;560
445;460;477;494;506;516
474;462;461;470;477;490
477;497;515;530;540;546
449;474;496;515;528;534
474;461;460;467;474;486
500;501;506;516;521;528
477;504;526;543;552;555
484;477;480;488;494;502
523;509;505;509;510;516
514;537;555;568;574;573
505;510;519;528;534;536
550;526;517;516;516;520
556;567;577;586;587;585
530;548;563;575;580;579
556;538;532;533;534;538
575;576;579;585;586;586
544;573;595;610;616;614
550;545;547;554;559;563
587;575;571;574;575;579
564;592;613;628;634;633
538;551;565;577;586;591
565;553;551;556;560;569
568;587;603;617;624;627
539;561;582;598;608;613
561;547;545;550;556;566
576;581;589;598;603;609
537;570;596;615;626;629
534;533;541;551;561;571
564;558;559;566;573;582
541;571;596;615;625;629
517;530;545;560;573;582
547;534;532;539;546;558
546;567;584;599;608;614
514;538;559;577;589;596
535;523;522;528;536;548
554;560;567;577;584;591
520;552;576;594;605;610
518;517;523;532;542;552
547;542;543;550;556;565
526;557;581;599;610;613
508;519;532;546;557;566
542;528;525;530;536;546
539;561;578;592;600;605
508;532;553;570;581;587
532;519;518;524;530;541
549;556;565;574;580;586
512;545;571;589;600;604
514;512;518;528;537;547
547;540;541;548;554;562
525;556;579;597;607;610
504;516;530;544;554;563
536;523;521;527;533;544
536;557;576;589;597;602
504;526;547;564;576;582
525;513;512;519;526;537
538;546;557;568;575;582
503;535;561;581;593;597
507;503;509;519;529;540
540;533;535;541;547;556
516;546;571;589;600;603
500;509;522;536;546;555
538;522;519;523;529;539
535;555;572;586;594;598
503;525;545;561;572;577
527;514;512;517;523;534
542;551;560;570;576;581
509;540;565;583;594;597
512;508;513;523;531;541
541;537;539;546;551;560
518;549;574;592;602;605
501;511;524;537;548;556
534;521;519;525;530;540
529;553;571;586;595;598
496;519;540;558;570;576
522;509;507;514;521;532
536;545;555;567;574;580
500;532;558;577;588;592
505;501;505;515;525;536
531;527;530;538;545;554
508;539;565;583;594;598
492;501;514;528;538;548
527;513;511;517;523;533
518;542;561;577;586;591
482;506;528;546;559;566
508;495;495;502;510;522
524;533;544;557;563;570
490;520;545;564;576;581
495;490;495;504;514;525
525;520;523;531;537;545
504;534;559;576;587;590
496;501;511;523;533;541
532;517;512;516;521;530
524;547;566;580;587;589
491;513;533;550;560;566
517;504;502;509;515;525
533;542;553;564;570;575
497;528;553;572;582;586
503;498;502;512;521;530
532;529;532;540;545;553
498;533;560;581;591;595
472;485;502;518;531;541
494;488;492;502;512;525
465;500;529;552;567;576
417;451;481;508;527;540
470;455;456;466;479;496
578;553;545;547;549;554
616;600;594;591;586;580
643;605;580;566;553;547
678;654;635;622;606;594
611;645;664;670;665;651
539;567;588;601;606;605
539;549;562;576;585;592
508;552;588;616;633;641
468;502;535;563;587;601
491;486;494;510;528;549
501;518;536;556;573;589
464;498;528;552;572;585
476;471;477;490;504;522
506;504;510;519;529;543
482;514;539;559;572;579
470;477;488;501;513;525
505;493;491;498;504;516
496;522;542;559;568;573
469;489;508;525;536;544
498;484;482;490;495;506
509;521;533;546;553;558
475;504;528;548;559;563
485;478;481;490;498;509
512;510;514;522;528;536
486;518;543;562;573;576
474;480;491;504;514;524
508;496;494;501;507;517
498;524;545;561;570;574
469;489;508;525;538;543
497;483;482;488;495;506
505;518;531;545;553;558
469;499;525;544;556;561
482;475;478;487;497;507
508;507;512;521;527;536
474;509;536;557;568;572
453;465;479;494;506;517
488;479;481;490;498;510
485;510;532;550;560;566
465;481;498;515;527;534
495;480;476;482;488;498
502;516;528;541;547;553
462;494;519;539;550;555
469;465;469;480;489;500
494;496;502;513;520;529
462;497;525;546;559;563
449;456;469;484;497;508
482;473;473;482;490;502
470;497;520;539;551;557
441;461;481;499;512;521
470;457;456;464;472;485
478;493;507;522;530;537
445;474;498;518;531;537
461;452;454;463;472;484
494;491;494;502;508;516
477;503;525;542;551;553
483;479;483;492;497;504
529;510;502;503;503;508
528;547;561;572;574;572
510;520;531;541;545;545
550;528;519;518;517;521
565;572;579;586;586;583
534;557;575;588;593;590
554;540;536;539;541;545
583;579;579;583;583;584
557;585;606;621;626;623
551;550;556;564;570;574
583;570;566;569;571;576
567;593;614;628;635;635
540;555;571;585;595;600
566;552;549;554;559;568
571;586;599;611;618;622
535;563;586;603;614;619
548;539;539;547;555;565
572;572;577;586;592;599
538;571;596;615;626;629
529;532;541;553;563;573
560;550;550;556;562;572
546;573;595;612;622;626
519;535;552;567;579;587
551;536;532;537;544;555
555;571;585;597;605;610
521;548;571;589;601;605
537;527;527;534;542;552
562;562;567;575;581;588
529;561;586;604;615;618
522;524;532;544;553;563
553;545;543;549;555;565
538;566;589;606;615;619
514;529;547;561;572;579
549;533;529;534;539;550
553;569;583;595;602;606
517;544;567;584;595;600
536;524;524;531;538;548
556;558;563;573;578;585
520;553;579;598;610;613
513;515;524;536;546;557
550;539;538;544;550;560
535;562;584;600;610;614
513;526;542;556;566;574
543;527;524;529;535;545
544;561;576;589;597;601
507;534;558;576;588;593
524;513;514;522;530;541
546;549;555;565;571;579
516;548;573;592;603;606
512;513;520;531;541;550
546;536;535;542;547;556
529;558;580;597;606;610
503;518;534;550;560;568
532;520;518;524;530;541
531;551;568;583;591;596
496;524;548;567;580;586
515;505;506;514;523;534
539;542;549;559;567;573
503;536;562;582;594;598
501;501;509;521;531;542
535;525;525;532;538;548
516;545;568;586;596;600
493;507;522;537;549;557
525;511;508;514;520;532
527;545;561;575;583;588
494;519;542;560;571;577
513;501;501;508;516;527
531;536;543;553;560;567
498;531;557;576;587;591
496;496;504;516;525;535
531;521;522;528;534;543
513;541;564;582;592;595
494;506;520;534;545;553
527;512;509;514;520;529
524;544;560;574;582;587
487;514;538;556;568;574
509;498;498;505;513;525
532;536;544;554;560;567
500;531;557;575;586;590
498;497;504;515;524;534
525;519;521;528;534;544
500;533;559;578;589;593
480;495;511;526;538;548
517;502;500;506;513;524
521;538;554;569;577;582
486;510;532;550;561;567
512;498;496;502;508;520
536;538;545;553;558;565
504;533;558;574;584;586
507;503;508;516;524;532
540;531;530;535;539;546
521;549;572;589;597;598
500;511;525;538;548;554
534;519;515;520;525;534
532;551;568;583;589;593
498;523;544;561;572;577
516;505;505;513;520;530
524;535;546;558;566;573
471;512;544;567;582;588
451;462;478;495;510;525
458;467;481;498;512;528
433;475;509;537;556;568
481;474;481;495;509;521
614;554;524;513;509;515
652;633;620;612;601;592
634;631;627;621;610;598
649;624;606;594;581;573
617;634;642;645;639;631
536;588;625;647;655;651
512;528;548;567;581;590
524;533;549;567;582;595
491;534;570;599;621;631
470;487;509;532;554;572
502;493;496;508;523;543
499;523;544;564;580;592
469;493;516;537;553;566
495;482;481;490;500;516
511;519;528;541;549;559
478;509;534;554;567;573
483;479;484;494;504;516
513;507;509;516;523;532
491;522;547;565;576;580
475;485;498;513;523;532
508;495;494;499;504;515
507;528;546;562;570;573
478;500;521;538;549;555
499;487;486;493;499;510
514;523;533;545;551;559
479;511;537;557;569;573
486;482;487;497;506;517
517;511;513;521;526;535
492;524;550;568;579;583
474;484;497;511;524;532
508;495;493;499;506;516
504;526;545;561;570;574
474;496;517;534;546;552
496;483;482;490;497;508
510;519;530;543;550;556
475;506;532;552;564;568
480;476;481;492;502;512
510;505;507;516;522;531
485;517;542;561;572;576
469;478;491;505;516;526
502;490;488;495;500;511
493;518;539;555;564;569
458;483;506;524;537;544
480;470;471;479;488;501
491;503;517;531;540;547
454;488;515;537;551;557
459;457;465;475;487;499
486;485;489;499;507;518
458;493;520;541;554;561
443;453;468;483;496;507
478;467;466;474;481;494
473;497;518;535;545;550
446;467;488;505;518;525
480;463;460;467;473;484
506;510;517;527;532;537
485;507;526;542;549;551
505;491;488;492;495;501
545;532;527;529;529;532
529;553;570;582;586;583
526;524;528;534;538;540
570;548;538;537;535;538
567;583;596;606;608;604
540;556;570;581;586;585
568;550;544;545;546;551
581;590;597;605;607;607
550;577;598;613;620;619
558;550;551;557;562;568
583;579;581;586;590;594
553;586;610;628;637;637
540;546;557;569;578;586
572;560;558;563;568;576
561;586;606;622;630;633
530;551;570;586;598;605
554;541;539;545;552;564
562;575;588;600;608;614
528;558;582;601;613;618
535;529;532;541;550;561
559;557;561;570;576;585
530;563;589;608;619;623
517;523;534;547;559;569
551;538;536;542;549;560
542;566;586;602;611;616
511;531;550;566;578;586
540;525;522;528;535;546
549;561;573;585;592;598
514;543;567;585;597;602
527;519;521;529;537;547
555;551;554;561;567;575
525;557;582;600;610;613
514;520;531;542;552;561
547;536;534;540;545;555
532;559;581;598;607;612
503;524;543;560;572;579
531;518;516;523;530;542
540;554;567;580;588;593
506;535;560;578;590;595
519;511;514;522;530;541
544;543;547;555;561;569
514;547;573;592;603;606
504;509;519;532;543;552
539;527;525;531;537;547
528;553;574;590;599;603
502;519;537;553;564;571
533;517;513;519;525;535
541;554;566;579;584;590
505;534;558;575;586;591
519;510;512;519;528;537
546;544;547;555;560;568
513;546;572;590;600;604
502;507;517;530;540;549
542;528;526;531;537;546
529;554;575;591;599;603
501;519;536;552;562;569
533;518;514;520;525;536
540;554;567;579;586;590
502;532;556;574;585;590
516;508;510;518;526;537
540;540;545;554;560;568
509;543;569;588;599;603
506;508;518;528;539;548
544;531;528;533;538;548
530;556;576;592;600;604
500;518;536;551;562;569
531;516;514;519;525;537
538;553;566;579;587;591
504;531;555;573;584;589
518;509;510;518;525;536
543;543;547;556;561;569
513;545;570;589;599;602
506;508;517;528;538;548
539;528;527;532;537;547
526;552;574;590;599;602
500;516;533;548;559;566
532;517;513;518;524;535
536;552;566;578;585;590
498;527;551;569;581;586
514;505;507;515;522;533
538;539;545;554;560;567
507;540;566;585;596;599
502;504;513;525;534;544
538;527;525;531;537;546
520;548;570;588;597;600
490;508;526;543;555;562
519;507;505;512;519;530
527;543;558;572;580;585
494;521;544;562;574;580
511;501;502;509;517;528
535;536;542;551;557;564
507;538;563;581;592;595
509;507;513;523;532;541
547;533;529;534;538;546
531;557;577;592;600;602
504;519;535;549;558;564
539;523;518;523;528;537
543;558;572;584;591;594
507;533;556;573;584;588
522;512;513;520;527;537
545;547;553;562;568;575
510;543;569;588;599;603
489;496;508;522;533;544
504;504;511;522;531;543
467;509;541;566;581;590
421;452;480;505;525;540
458;451;456;470;486;503
545;537;540;549;556;563
602;581;576;573;572;570
649;604;574;557;544;541
684;662;644;631;614;602
631;656;669;672;664;649
571;587;598;605;605;602
562;576;588;600;605;608
519;568;606;634;650;655
478;509;541;567;588;602
505;501;509;526;543;563
504;528;552;575;593;608
471;500;527;551;572;587
493;482;485;496;510;529
515;518;526;538;549;562
481;514;541;561;575;583
479;480;488;501;511;524
512;504;504;512;518;530
495;525;547;565;576;581
475;488;503;518;529;539
509;494;491;496;502;513
510;529;545;558;566;571
475;502;525;543;554;560
494;484;485;494;500;511
515;520;528;539;545;552
483;516;542;561;572;576
479;480;488;499;509;520
511;504;506;513;519;529
491;522;547;565;576;579
469;483;499;515;527;535
502;488;487;493;500;511
502;522;539;554;563;568
466;493;516;535;548;554
486;476;477;485;493;505
504;510;519;531;538;546
472;504;531;551;563;568
475;473;480;491;501;511
507;498;500;506;512;522
482;513;539;557;568;572
458;473;489;505;517;526
488;476;476;483;491;502
489;510;528;544;554;559
452;479;503;522;535;543
470;461;463;472;481;494
487;495;505;518;527;536
452;486;514;535;548;554
449;451;459;472;484;496
478;474;478;487;495;506
451;486;513;535;547;553
430;446;464;481;494;505
465;454;453;462;470;483
463;485;505;522;532;539
428;455;479;499;513;521
452;441;443;452;461;473
479;483;492;503;510;518
452;481;505;524;534;539
465;458;460;469;477;485
510;496;492;496;498;504
501;523;540;554;559;558
493;495;502;511;516;519
540;516;505;505;504;508
549;560;569;577;578;575
525;540;554;564;568;566
555;535;527;527;526;529
577;577;580;585;584;582
546;573;593;606;611;607
551;544;545;550;554;557
584;574;571;574;575;578
562;590;611;626;632;630
541;550;562;573;581;585
572;559;555;559;562;569
566;588;606;620;627;629
533;557;577;594;605;610
558;545;543;548;555;565
573;580;589;599;605;611
538;569;594;613;623;626
537;534;540;550;558;568
566;561;563;570;576;585
540;572;597;616;626;630
523;533;546;560;571;580
555;542;540;545;551;562
549;573;591;606;615;619
515;538;560;577;589;596
538;525;524;531;539;551
555;562;572;583;590;597
518;549;574;593;605;610
521;518;522;532;541;552
557;549;551;557;562;571
532;562;585;603;613;616
511;521;534;547;558;567
545;531;529;534;540;551
543;564;582;597;605;609
510;531;551;568;579;586
536;522;519;525;532;543
553;560;569;580;586;592
516;547;572;590;600;604
520;516;520;529;538;548
546;543;546;554;560;569
521;553;578;597;608;612
507;515;528;541;552;561
543;529;526;531;537;547
540;562;580;594;602;606
506;528;548;565;575;582
531;518;517;523;529;540
545;555;565;576;583;590
512;542;567;585;596;600
520;514;517;525;535;544
549;544;546;553;558;566
522;553;579;596;606;610
507;515;526;539;550;559
544;529;526;531;537;547
536;559;578;593;601;605
506;526;545;561;573;579
531;517;515;521;527;538
545;555;565;576;583;588
510;540;565;582;593;597
519;512;515;524;532;541
547;543;545;552;558;565
520;552;577;595;606;608
507;514;525;538;548;557
540;528;525;531;536;546
527;553;574;590;599;604
492;516;537;555;567;575
516;505;505;513;521;533
527;540;553;566;576;582
489;521;548;568;581;587
497;493;498;508;518;531
527;524;528;537;544;554
497;531;557;577;588;593
484;492;504;518;529;540
521;508;505;512;519;531
514;539;557;573;583;587
484;504;523;539;551;558
514;499;496;502;509;520
526;537;548;560;566;572
490;520;544;563;573;577
498;491;495;505;512;522
525;523;528;535;542;549
497;529;555;574;585;588
487;492;503;516;526;536
522;509;507;513;518;528
513;538;558;574;582;586
484;503;522;538;549;556
511;498;496;502;508;519
519;533;546;559;566;571
486;516;541;560;571;575
500;492;495;503;511;521
529;526;529;537;543;550
496;529;556;575;585;588
483;489;501;515;526;535
519;507;506;513;519;529
512;537;558;574;583;586
485;503;521;537;548;555
518;502;499;504;509;520
533;543;553;564;570;574
506;530;552;567;577;579
523;510;509;515;520;528
553;548;548;554;557;562
527;556;578;594;601;601
521;522;529;538;545;551
557;542;538;541;544;550
549;572;590;604;610;610
525;540;555;568;577;580
557;540;534;537;541;548
566;578;588;598;603;605
525;554;577;594;604;607
526;522;526;535;543;553
535;543;552;564;572;581
485;529;563;587;603;610
457;475;496;515;533;548
516;503;504;515;525;541
593;587;590;597;601;604
627;604;594;590;587;585
669;628;601;586;573;570
681;679;673;668;655;643
612;642;660;668;665;655
569;581;591;600;603;605
554;578;599;617;627;633
495;550;593;625;647;655
470;491;516;542;566;585
496;497;509;527;547;569
477;512;544;571;593;609
451;472;496;519;542;561
479;468;470;482;497;518
484;501;519;536;550;564
444;476;503;525;542;554
459;452;456;468;480;496
484;486;493;505;515;527
453;487;514;536;549;556
448;451;461;475;487;500
484;474;474;481;488;499
467;497;520;539;549;554
444;461;480;496;508;517
477;463;461;468;475;486
486;501;515;529;538;542
452;480;503;522;533;538
469;460;461;469;477;488
496;497;502;512;518;525
470;501;525;544;554;557
470;470;477;487;496;504
508;495;493;497;501;509
492;519;541;557;565;566
471;485;500;515;524;530
506;489;485;490;494;503
511;526;539;552;558;561
475;502;525;542;553;556
499;487;486;492;498;507
526;525;529;538;542;547
495;525;549;567;576;578
491;491;498;508;517;525
525;514;512;518;523;531
509;537;559;575;584;586
485;499;515;530;540;547
517;502;499;504;510;520
518;536;552;565;572;577
479;508;532;551;563;568
494;486;488;497;505;517
514;519;527;539;546;554
480;514;542;562;575;580
476;479;488;501;512;523
511;502;502;510;517;527
495;524;547;565;575;580
473;487;503;518;530;538
515;497;493;497;503;513
530;541;553;564;569;572
505;525;542;557;564;567
536;517;510;513;515;522
569;563;563;567;567;569
547;570;588;600;605;602
557;547;546;550;552;555
593;576;569;569;568;570
575;600;617;629;632;629
554;563;575;585;590;592
585;568;562;564;566;571
586;602;616;627;631;632
552;576;596;611;620;622
572;559;556;561;566;574
590;593;599;607;611;616
552;585;610;628;638;640
545;546;554;565;574;583
570;565;567;575;581;591
545;578;604;623;635;639
518;534;552;569;582;592
548;537;536;544;552;566
546;567;585;601;611;618
507;535;560;580;593;602
523;514;517;526;536;550
540;548;558;569;578;588
503;538;566;586;600;607
503;503;511;524;535;548
536;528;530;537;545;556
515;545;569;587;599;604
492;505;521;536;548;558
524;511;509;515;522;534
521;541;559;575;584;590
488;513;536;554;567;574
506;495;496;504;512;525
523;530;539;551;559;567
487;520;547;567;580;585
486;487;494;505;516;528
519;512;513;521;528;539
497;528;553;572;582;587
478;490;505;520;532;541
515;501;498;503;509;520
518;536;552;567;574;578
487;511;531;547;558;563
509;497;495;501;507;518
530;535;543;553;558;563
498;528;553;571;581;584
500;497;502;512;521;529
533;525;525;532;537;545
515;544;567;584;594;595
503;510;522;534;544;550
542;524;519;523;525;534
549;563;576;588;593;595
521;540;557;570;578;581
550;532;526;529;532;539
574;575;579;585;587;589
548;573;592;606;613;613
560;549;549;553;557;562
595;582;577;579;579;583
576;602;621;634;638;636
561;566;576;584;590;593
595;579;572;573;574;580
595;613;627;637;642;641
566;585;603;616;624;625
592;576;571;574;577;583
616;619;624;630;633;634
590;615;634;648;655;654
601;591;590;594;598;603
642;628;622;623;623;626
632;654;669;679;683;679
633;629;631;635;637;638
684;656;641;636;631;632
691;700;706;709;707;700
666;678;688;694;694;689
692;670;660;656;653;654
708;710;713;716;713;709
669;695;715;727;732;728
666;660;661;666;670;674
682;679;680;685;688;693
644;680;706;724;734;736
616;630;645;660;672;681
637;630;631;639;648;660
617;647;671;689;702;710
575;604;630;650;667;679
585;580;584;595;608;625
586;604;621;637;651;664
539;578;610;634;653;665
535;538;549;565;580;599
553;557;566;579;592;609
515;557;589;613;631;643
491;508;528;547;565;583
515;511;516;528;541;560
498;530;557;579;597;608
454;486;515;539;559;575
473;468;475;488;502;523
483;500;517;535;549;564
442;479;510;535;554;566
440;443;454;469;485;503
459;464;474;488;501;517
426;466;499;525;543;553
409;422;441;461;479;495
439;432;436;448;460;477
430;459;483;504;519;529
400;424;449;470;486;498
430;419;419;429;439;455
446;457;470;484;494;504
410;442;469;491;504;511
418;414;420;432;442;455
447;445;450;460;468;478
421;455;482;503;515;520
409;417;431;446;458;468
441;431;431;440;447;459
432;459;482;500;511;516
402;426;448;467;481;489
430;418;419;428;436;449
428;447;464;480;490;498
376;417;450;476;492;500
367;375;389;408;423;439
371;385;403;424;439;455
335;381;420;451;473;486
374;371;382;399;415;431
515;460;434;428;427;434
566;547;535;529;520;512
556;546;538;531;520;508
584;553;532;519;504;494
541;562;574;578;571;561
454;507;544;567;575;571
437;452;472;491;504;513
446;461;481;502;518;531
414;457;495;526;549;560
404;415;435;457;478;496
437;429;433;447;461;480
429;456;480;502;518;530
404;424;445;465;481;494
435;421;420;428;439;454
450;461;474;488;496;505
417;446;471;491;502;509
432;424;428;436;444;455
460;458;462;471;477;485
434;466;492;511;521;524
427;431;442;455;464;473
466;453;451;457;461;470
456;481;502;519;527;529
428;447;466;484;494;499
461;446;443;450;456;466
471;484;497;509;516;520
436;465;490;509;520;524
448;441;444;454;462;472
474;473;478;488;494;502
447;480;505;525;536;539
442;445;454;467;477;486
479;465;463;470;475;484
468;493;513;530;539;542
441;459;477;493;504;510
472;457;454;461;467;477
482;495;508;521;528;532
448;476;499;518;529;533
462;453;455;464;471;481
486;486;491;500;506;513
457;490;516;535;546;549
448;453;463;476;487;496
483;473;472;479;485;494
468;496;520;537;547;550
440;460;479;496;508;516
468;456;455;463;471;482
474;491;507;521;530;536
439;469;495;515;528;534
451;445;448;459;469;480
474;476;483;496;503;512
446;480;507;527;540;545
439;443;453;467;479;489
474;464;464;472;478;489
463;489;511;529;540;544
441;457;473;489;501;508
477;460;456;462;468;478
491;502;514;526;532;536
466;488;508;524;533;536
494;478;473;478;482;489
533;524;523;527;527;530
513;537;555;568;572;569
519;512;513;518;521;524
564;544;535;534;532;534
556;576;591;600;602;598
535;544;556;565;569;568
568;549;541;542;542;545
576;588;599;607;610;607
545;569;588;602;608;608
563;550;549;552;555;561
588;586;589;595;598;600
556;586;610;626;634;633
550;550;557;566;573;580
580;570;569;574;578;585
561;590;612;628;637;639
535;551;567;582;593;600
563;549;547;553;559;569
567;584;599;612;620;625
531;557;580;598;610;616
545;536;536;544;552;563
568;569;575;584;591;599
536;567;592;611;622;626
529;530;538;548;559;569
563;553;552;558;564;573
544;573;595;612;622;625
521;535;551;565;576;584
550;536;533;538;544;555
554;571;586;599;606;611
519;545;567;585;596;602
537;526;526;533;540;551
560;562;568;577;583;590
527;560;585;603;613;616
522;523;531;542;551;560
555;546;546;552;558;566
538;567;589;606;616;619
514;528;544;559;570;578
546;531;528;534;540;551
546;564;580;594;602;607
511;538;560;578;590;596
532;521;521;528;535;546
554;556;563;573;578;585
519;552;577;596;607;610
516;515;523;534;544;554
550;540;540;546;552;561
532;560;583;600;610;613
508;522;537;551;562;570
542;527;524;529;535;545
545;562;577;591;598;603
514;537;558;575;586;591
534;521;520;526;532;543
551;555;562;572;577;584
521;552;576;594;605;608
520;518;524;534;542;552
550;542;542;548;553;562
529;559;583;600;610;613
508;522;536;550;561;569
540;526;523;529;535;545
539;559;576;590;598;602
505;530;553;571;582;588
526;514;514;521;529;540
545;550;558;568;574;581
512;544;570;588;599;603
511;510;516;527;536;546
542;535;536;542;548;557
520;551;575;593;603;607
498;512;527;542;553;562
532;518;515;521;528;538
532;552;568;583;591;596
500;524;545;562;574;580
523;510;509;515;522;533
543;547;554;564;570;576
509;540;565;583;594;597
509;507;512;522;531;541
540;533;533;540;545;554
520;550;573;590;600;603
503;513;526;540;550;558
536;521;517;522;528;538
533;553;570;584;592;596
499;523;545;563;574;579
524;511;510;516;523;533
540;547;555;566;573;578
506;538;564;582;593;597
510;507;512;522;531;541
541;534;534;541;546;555
517;548;572;590;600;603
499;510;524;538;548;556
533;519;516;521;527;537
531;552;569;584;591;595
495;520;541;559;571;577
517;506;505;512;520;531
535;541;550;562;568;575
500;532;557;576;589;592
506;502;506;516;525;536
537;530;531;537;542;551
509;541;566;584;594;598
487;499;514;529;540;549
519;507;505;512;519;530
519;541;558;574;583;588
486;509;530;548;560;567
512;498;497;503;510;522
531;537;545;556;562;568
500;529;553;571;581;584
510;503;506;514;521;530
544;536;535;540;543;551
522;551;574;590;597;599
506;514;526;538;546;553
539;525;522;526;530;539
533;555;574;588;595;598
499;522;543;560;571;576
524;511;510;516;523;533
542;550;559;570;576;581
509;539;563;581;592;595
504;502;508;519;528;538
515;519;525;536;544;554
475;516;548;572;587;593
439;460;483;504;522;536
458;457;465;480;494;512
490;507;525;543;557;566
552;537;536;542;548;552
634;580;549;535;526;527
665;646;630;619;605;596
638;650;655;653;643;629
610;606;603;601;594;588
583;599;609;616;616;614
526;578;617;642;655;655
491;517;543;567;585;597
512;513;524;540;556;573
500;532;561;587;606;619
469;496;522;546;567;583
496;486;488;499;513;532
510;521;535;549;561;574
476;507;534;556;570;579
486;480;485;495;506;520
515;511;514;523;529;540
489;522;546;565;577;581
478;485;497;510;521;530
511;499;497;503;508;519
506;529;549;565;573;577
477;497;516;533;544;551
501;488;487;493;500;511
514;525;536;549;555;561
482;511;536;554;566;570
491;484;487;496;505;515
518;514;517;525;531;539
492;523;548;567;577;580
481;487;498;510;521;529
520;505;501;507;511;521
513;535;555;569;576;580
486;504;522;537;548;553
513;498;495;500;505;515
524;535;546;558;563;568
488;518;543;561;572;575
499;493;495;504;512;521
527;525;527;535;540;548
501;533;559;576;586;588
491;497;507;519;529;537
527;513;510;516;521;530
513;540;560;576;585;588
480;502;522;539;551;558
503;492;492;500;507;519
514;527;541;555;563;569
475;507;534;554;567;573
481;477;482;493;503;515
507;506;512;523;530;541
477;511;538;559;572;577
462;470;483;498;510;522
494;484;484;493;501;513
483;510;532;551;562;568
454;474;495;513;526;535
485;471;469;477;485;497
493;507;520;533;542;548
465;492;516;535;547;552
484;473;473;481;489;499
520;513;514;520;524;530
501;527;548;564;572;572
505;502;506;514;520;525
553;532;523;523;523;527
550;569;582;592;594;592
531;542;553;563;567;567
565;545;537;537;536;540
579;587;594;601;602;601
548;572;592;605;610;609
565;552;550;554;556;561
593;588;590;593;594;596
563;593;616;631;638;636
557;558;565;575;581;586
592;577;573;576;580;585
579;603;622;636;643;644
551;566;583;596;606;611
578;563;559;563;568;577
583;597;609;621;627;631
545;574;598;615;626;631
556;548;550;558;566;577
579;579;584;592;599;607
548;580;606;624;636;640
538;541;551;563;574;584
568;558;557;563;569;580
551;579;602;619;629;634
522;541;560;577;588;597
551;538;536;543;550;562
553;570;585;599;608;614
517;547;572;591;604;610
533;524;526;535;544;556
558;559;563;572;579;588
528;560;586;604;615;619
522;525;533;545;554;564
558;546;544;549;555;564
547;573;593;609;617;620
518;535;552;566;577;584
547;534;531;536;542;552
553;568;582;595;602;607
516;544;568;586;598;603
527;519;521;529;538;549
547;550;557;567;574;583
514;548;575;595;607;612
500;506;517;531;543;554
524;519;521;531;540;552
495;531;559;580;594;602
466;487;509;529;546;558
494;484;485;495;506;522
500;518;535;551;563;572
465;494;519;540;554;563
481;473;476;485;495;509
502;506;515;525;533;543
473;506;533;553;566;572
469;471;481;493;504;515
504;494;494;501;507;518
491;519;541;559;568;572
471;485;500;515;526;534
503;489;485;490;495;506
510;526;540;552;559;563
477;503;526;543;553;558
498;486;486;493;499;508
524;524;529;538;542;548
498;527;550;567;576;578
497;496;500;510;517;525
537;523;519;523;526;533
528;551;570;584;590;590
508;518;530;542;549;554
540;522;517;520;522;529
541;557;571;582;587;588
507;532;554;570;580;582
524;513;512;519;525;533
546;548;554;563;569;574
512;544;569;588;598;601
511;510;517;528;537;546
542;533;533;539;544;552
525;554;577;594;603;606
505;518;533;547;557;564
538;523;519;524;529;539
539;557;572;586;592;596
505;531;553;571;582;587
526;514;513;520;527;537
549;551;557;566;572;578
516;548;572;590;601;603
515;514;520;530;539;548
548;538;537;543;548;557
529;558;581;598;607;609
508;520;535;549;559;566
540;525;521;527;532;542
540;558;574;587;595;599
509;533;554;571;583;587
532;519;517;523;529;539
549;553;560;569;575;581
517;548;573;591;601;604
513;513;519;529;539;548
545;537;537;543;549;558
528;557;579;596;606;609
510;520;534;547;558;565
541;526;522;528;532;542
535;557;573;588;595;599
495;524;548;567;579;584
520;509;509;517;525;536
542;547;554;564;571;578
510;541;566;584;595;599
513;511;515;525;535;544
546;537;536;542;547;556
530;558;580;596;605;607
514;523;535;547;557;563
547;531;527;530;534;543
546;565;580;593;599;602
515;538;559;574;584;588
539;525;522;527;533;542
554;560;567;576;581;587
520;551;576;594;604;607
524;520;526;534;542;551
553;546;545;552;556;564
519;554;580;599;609;612
482;501;521;539;553;562
500;496;501;512;522;536
475;509;537;560;575;585
427;464;497;525;545;558
487;469;468;478;490;507
608;574;560;558;558;562
642;627;619;614;607;600
657;624;602;587;573;566
690;665;646;632;614;603
620;657;678;685;679;666
546;579;604;619;624;623
549;557;570;584;593;601
521;562;596;623;641;649
479;516;551;580;604;618
499;495;503;520;538;559
517;529;544;561;577;593
479;514;544;568;587;600
484;483;491;504;519;537
519;512;514;523;532;547
495;526;551;571;583;591
480;489;502;517;529;540
515;500;497;503;510;522
508;530;549;564;573;579
475;499;521;539;551;558
500;487;487;494;501;514
515;523;534;545;553;560
483;514;539;559;570;575
489;484;489;499;508;519
519;513;515;522;528;537
495;526;551;569;580;583
479;489;502;516;526;535
511;498;497;503;509;519
507;530;549;565;574;578
473;498;519;537;549;556
499;487;486;493;501;512
512;522;534;546;553;560
478;510;537;556;568;573
485;481;486;496;506;517
511;508;511;520;526;536
486;519;545;565;576;580
471;480;494;508;520;530
503;492;490;497;504;515
496;520;540;557;567;572
464;487;509;527;541;548
488;476;475;484;492;504
499;510;522;536;544;552
465;496;522;543;556;562
469;466;471;482;492;504
498;494;498;507;514;524
472;505;531;551;562;567
456;465;479;494;505;515
485;474;474;482;489;501
475;501;523;541;552;557
444;468;490;509;523;531
470;459;459;467;476;489
484;496;508;523;530;537
451;482;508;528;541;547
460;455;460;470;480;491
495;490;492;500;506;514
479;508;530;548;557;559
476;478;486;497;505;512
521;502;495;497;499;506
525;542;555;567;571;570
505;519;532;545;550;551
546;523;514;514;514;519
566;569;574;579;579;578
537;560;578;591;596;593
550;538;535;539;542;546
584;574;572;575;575;576
558;586;607;621;626;624
546;549;557;566;572;576
581;565;560;563;565;571
572;594;611;625;631;631
541;560;577;592;601;605
567;552;549;553;558;566
577;588;599;610;615;619
540;569;593;611;622;625
547;540;543;551;560;570
574;571;574;582;588;595
543;576;602;620;631;634
530;537;548;560;571;580
563;551;550;556;562;572
550;576;597;613;623;628
518;539;559;576;589;596
546;532;531;537;545;557
556;568;581;593;601;608
516;547;573;592;605;610
527;520;524;533;543;554
554;552;556;565;572;580
526;559;584;603;615;618
513;518;529;542;553;564
545;534;533;539;545;557
534;560;581;598;608;612
502;523;542;559;571;580
530;517;516;522;529;542
543;555;568;580;588;594
508;536;560;579;592;596
519;511;513;522;530;541
543;542;546;555;561;570
518;549;575;593;604;607
