Diff Between Pulses ;  ACC
0.7350122499999999;0.7350122499999999;0
0.8650144166666666;1.6000266666666665;1
0.8150135833333332;2.4150402499999997;2
0.7700128333333334;3.185053083333333;3
0.7450124166666665;3.9300654999999995;4
0.7300121666666666;4.660077666666666;5
0.6900114999999998;5.350089166666666;6
0.7200120000000005;6.070101166666666;7
0.7600126666666664;6.830113833333333;8
0.850014166666667;7.680128;9
0.8850147499999999;8.56514275;10
0.9550159166666656;9.520158666666665;11
0.9600160000000013;10.480174666666667;12
0.9300154999999997;11.410190166666666;13
0.890014833333332;12.300204999999998;14
0.8650144166666678;13.165219416666666;15
0.8100135000000002;13.975232916666666;16
0.7650127499999986;14.740245666666665;17
0.7350122500000005;15.475257916666665;18
0.7400123333333344;16.21527025;19
0.7400123333333326;16.955282583333332;20
0.7450124166666647;17.700294999999997;21
0.7600126666666682;18.460307666666665;22
0.7950132500000002;19.255320916666665;23
0.8250137500000001;20.080334666666666;24
0.8450140833333322;20.925348749999998;25
0.8600143333333357;21.785363083333333;26
0.875014583333332;22.660377666666665;27
0.875014583333332;23.535392249999997;28
0.8650144166666678;24.400406666666665;29
0.8600143333333321;25.260420999999997;30
0.840014;26.100434999999997;31
0.8350139166666679;26.935448916666665;32
0.8350139166666644;27.77046283333333;33
0.8500141666666678;28.620476999999998;34
0.840014;29.460490999999998;35
0.8450140833333322;30.30550508333333;36
0.8300138333333358;31.135518916666665;37
0.8200136666666644;31.95553258333333;38
0.7950132500000038;32.750545833333334;39
0.7950132499999967;33.54555908333333;40
0.8100135000000037;34.355572583333334;41
0.8300138333333322;35.185586416666666;42
0.8650144166666607;36.05060083333333;43
0.8850147500000034;36.93561558333333;44
0.890014833333332;37.82563041666666;45
0.8950149166666677;38.72064533333333;46
0.8850147500000034;39.60566008333333;47
0.8600143333333321;40.465674416666666;48
0.8300138333333322;41.29568825;49
0.820013666666668;42.115701916666666;50
0.8150135833333323;42.9307155;51
0.8150135833333323;43.74572908333333;52
0.8000133333333324;44.54574241666666;53
0.8100135000000037;45.355755916666666;54
0.8100134999999966;46.16576941666666;55
0.8250137499999965;46.99078316666666;56
0.8350139166666679;47.82579708333333;57
0.805013416666668;48.630810499999995;58
0.8250137500000037;49.45582425;59
0.8300138333333322;50.28583808333333;60
0.8650144166666678;51.1508525;61
0.9050150833333319;52.05586758333333;62
0.9200153333333319;52.97588291666666;63
0.9200153333333319;53.895898249999995;64
0.9150152500000033;54.8109135;65
0.8850147499999963;55.695928249999994;66
0.8650144166666678;56.56094266666666;67
0.8450140833333322;57.405956749999994;68
0.8100135000000037;58.21597025;69
0.7650127499999968;58.980982999999995;70
0.7750129166666682;59.75599591666666;71
0.7600126666666682;60.51600858333333;72
0.7750129166666611;61.29102149999999;73
0.7900131666666681;62.08103466666666;74
0.8150135833333323;62.89604824999999;75
0.8250137500000037;63.721061999999996;76
0.8300138333333322;64.55107583333333;77
0.8450140833333393;65.39608991666667;78
0.8450140833333251;66.24110399999999;79
0.8350139166666679;67.07611791666666;80
0.8300138333333393;67.90613175;81
0.8150135833333252;68.72114533333333;82
0.8150135833333394;69.53615891666666;83
0.8100134999999966;70.34617241666666;84
0.8100134999999966;71.15618591666666;85
0.7750129166666682;71.93119883333333;86
0.7750129166666682;72.70621175;87
0.7650127499999968;73.47122449999999;88
0.7700128333333396;74.24123733333333;89
0.7850130833333253;75.02625041666666;90
0.765012750000011;75.79126316666667;91
0.7550125833333254;76.54627574999999;92
0.7450124166666683;77.29128816666666;93
0.7450124166666683;78.03630058333333;94
0.7400123333333255;78.77631291666665;95
0.7450124166666683;79.52132533333332;96
0.7350122500000111;80.25633758333333;97
0.7300121666666541;80.98634974999999;98
0.7200120000000112;81.70636175;99
0.6850114166666543;82.39137316666665;100
0.7000116666666685;83.09138483333332;101
0.6950115833333399;83.78639641666666;102
0.6650110833333258;84.45140749999999;103
0.6850114166666685;85.13641891666666;104
0.68001133333334;85.81643025;105
0.6450107499999973;86.461441;106
0.6700111666666686;87.13145216666666;107
0.6600109999999972;87.79146316666666;108
0.6350105833333402;88.42647375;109
0.6450107499999973;89.0714845;110
0.6400106666666687;89.71149516666667;111
0.6350105833333259;90.34650574999999;112
0.6450107499999973;90.99151649999999;113
0.6400106666666687;91.63152716666666;114
0.6450107499999973;92.27653791666665;115
0.6350105833333402;92.9115485;116
0.6400106666666687;93.55155916666666;117
0.6300104999999974;94.18156966666666;118
0.6400106666666687;94.82158033333333;119
0.6450107499999973;95.46659108333333;120
0.6550109166666687;96.121602;121
0.6400106666666687;96.76161266666666;122
0.6550109166666545;97.41662358333332;123
0.6350105833333402;98.05163416666666;124
0.6550109166666687;98.70664508333333;125
0.6350105833333259;99.34165566666665;126
0.6500108333333401;99.9916665;127
0.6400106666666687;100.63167716666666;128
0.6550109166666687;101.28668808333333;129
0.6600109999999972;101.94669908333333;130
0.6450107499999973;102.59170983333333;131
0.6500108333333259;103.24172066666665;132
0.6450107500000115;103.88673141666666;133
0.6350105833333259;104.52174199999999;134
0.6150102499999974;105.13675224999999;135
0.6300105000000116;105.76676275;136
0.6150102499999974;106.381773;137
0.620010333333326;107.00178333333332;138
0.6200103333333402;107.62179366666666;139
0.620010333333326;108.24180399999999;140
0.5950099166666689;108.83681391666666;141
0.6100101666666689;109.44682408333333;142
0.5900098333333261;110.03683391666665;143
0.6100101666666689;110.64684408333332;144
0.5950099166666689;111.24185399999999;145
0.6100101666666689;111.85186416666666;146
0.620010333333326;112.47187449999998;147
0.6200103333333402;113.09188483333332;148
0.6200103333333402;113.71189516666666;149
0.6150102499999974;114.32690541666666;150
0.6350105833333259;114.96191599999999;151
0.6450107499999973;115.60692674999999;152
0.6250104166666688;116.23193716666665;153
0.6500108333333401;116.881948;154
0.620010333333326;117.50195833333332;155
0.6500108333333401;118.15196916666666;156
0.6400106666666687;118.79197983333333;157
0.6150102499999974;119.40699008333333;158
0.6250104166666688;120.0320005;159
0.6250104166666688;120.65701091666666;160
0.5950099166666547;121.25202083333332;161
0.6100101666666689;121.86203099999999;162
0.5900098333333403;122.45204083333333;163
0.5950099166666689;123.04705075;164
0.5850097499999976;123.6320605;165
0.580009666666669;124.21207016666666;166
0.5850097499999976;124.79707991666666;167
0.5900098333333261;125.38708974999999;168
0.5900098333333403;125.97709958333333;169
0.5900098333333261;126.56710941666665;170
0.6150102499999974;127.18211966666665;171
0.6050100833333403;127.78712974999999;172
0.6050100833333261;128.39213983333332;173
0.6200103333333402;129.01215016666666;174
0.6000099999999975;129.61216016666665;175
0.6100101666666546;130.2221703333333;176
0.6150102500000116;130.83718058333332;177
0.5950099166666689;131.4321905;178
0.6050100833333261;132.03720058333332;179
0.6100101666666831;132.64721075;180
0.5900098333333119;133.2372205833333;181
0.6000099999999975;133.8372305833333;182
0.5950099166666689;134.43224049999998;183
0.6000100000000259;135.0322505;184
0.6050100833333261;135.63726058333333;185
0.6000099999999975;136.23727058333333;186
0.6000099999999975;136.83728058333332;187
0.5800096666666548;137.41729024999998;188
0.5950099166666689;138.01230016666665;189
0.5950099166666689;138.60731008333332;190
0.5750095833333262;139.18231966666664;191
0.5550092500000119;139.73732891666666;192
0.5850097500000118;140.32233866666667;193
0.5850097499999833;140.90734841666665;194
0.565009416666669;141.47235783333332;195
0.565009416666669;142.03736725;196
0.5750095833333262;142.61237683333331;197
0.5800096666666832;143.1923865;198
0.5900098333333119;143.7823963333333;199
0.5900098333333403;144.37240616666665;200
0.6000099999999975;144.97241616666665;201
0.5500091666666833;145.52242533333333;202
0.6050100833333261;146.12743541666666;203
0.6000099999999975;146.72744541666665;204
0.5950099166666689;147.32245533333332;205
0.5950099166666689;147.91746525;206
0.5450090833333263;148.46247433333332;207
0.6000099999999975;149.06248433333332;208
0.5900098333333403;149.65249416666666;209
0.5900098333333403;150.242504;210
0.5900098333333119;150.8325138333333;211
0.5750095833333546;151.40752341666666;212
0.565009416666669;151.97253283333333;213
0.5700094999999976;152.54254233333333;214
0.5700094999999976;153.11255183333333;215
0.5350089166666692;153.64756075;216
0.560009333333312;154.2075700833333;217
0.5550092500000119;154.76257933333332;218
0.5450090833333263;155.30758841666665;219
0.5300088333333406;155.83759725;220
0.565009416666669;156.40260666666666;221
0.565009416666669;156.96761608333333;222
0.5700094999999976;157.53762558333332;223
0.5700094999999976;158.10763508333332;224
0.5550092500000119;158.66264433333333;225
0.5850097499999833;159.24765408333332;226
0.5900098333333403;159.83766391666666;227
0.5600093333333405;160.39767325;228
0.5550092499999835;160.95268249999998;229
0.5400089999999977;161.49269149999998;230
0.5850097500000118;162.07770125;231
0.5850097499999833;162.66271099999997;232
0.5850097500000118;163.24772074999998;233
0.5800096666666548;163.82773041666664;234
0.5550092500000119;164.38273966666665;235
0.5850097500000118;164.96774941666666;236
0.5750095833333262;165.542759;237
0.5750095833333262;166.11776858333332;238
0.5450090833333263;166.66277766666664;239
0.5450090833333547;167.20778675;240
0.5500091666666549;167.75779591666665;241
0.520008666666655;168.2778045833333;242
0.5450090833333547;168.82281366666666;243
0.5400089999999977;169.36282266666666;244
0.5350089166666692;169.89783158333333;245
0.5050084166666693;170.40284;246
0.5350089166666692;170.93784891666667;247
0.5250087499999836;171.46285766666665;248
0.5300088333333406;171.9928665;249
0.5100084999999979;172.502875;250
0.5000083333333407;173.00288333333333;251
0.5100084999999979;173.51289183333333;252
0.5300088333333122;174.04290066666664;253
0.5100085000000263;174.55290916666667;254
0.5050084166666409;175.0579175833333;255
0.5400090000000262;175.59792658333333;256
0.5400089999999977;176.13793558333333;257
0.5150085833333264;176.65294416666666;258
0.5250087499999836;177.17795291666664;259
0.5600093333333405;177.73796224999998;260
0.5300088333333406;178.26797108333332;261
0.5350089166666692;178.80298;262
0.565009416666669;179.36798941666666;263
0.565009416666669;179.93299883333333;264
0.565009416666669;180.49800825;265
0.5250087499999836;181.02301699999998;266
0.5350089166666692;181.55802591666665;267
0.520008666666655;182.0780345833333;268
0.5550092500000119;182.63304383333332;269
0.5550092500000119;183.18805308333333;270
0.5350089166666692;183.723062;271
0.5250087499999836;184.24807074999998;272
0.5550092500000119;184.80308;273
0.5450090833333263;185.34808908333332;274
0.525008750000012;185.87309783333333;275
0.560009333333312;186.43310716666664;276
0.5450090833333547;186.97811625;277
0.5300088333333122;187.5081250833333;278
0.5600093333333405;188.06813441666665;279
0.5400089999999977;188.60814341666665;280
0.5350089166666692;189.14315233333332;281
0.5600093333333405;189.70316166666666;282
0.5150085833333264;190.21817025;283
0.5600093333333405;190.77817958333333;284
0.5150085833333264;191.29318816666665;285
0.5600093333333405;191.8531975;286
0.520008666666655;192.37320616666665;287
0.5600093333333405;192.9332155;288
0.5500091666666549;193.48322466666664;289
0.5200086666666834;194.00323333333333;290
0.5550092499999835;194.5582425833333;291
0.5350089166666692;195.09325149999998;292
0.5200086666666834;195.61326016666666;293
0.5500091666666549;196.16326933333332;294
0.525008750000012;196.68827808333333;295
0.520008666666655;197.20828674999998;296
0.5400089999999977;197.74829574999998;297
0.525008750000012;198.2733045;298
0.5050084166666693;198.77831291666666;299
0.5100084999999979;199.28832141666666;300
0.5250087499999836;199.81333016666665;301
0.5000083333333407;200.3133385;302
0.5050084166666693;200.81834691666666;303
0.5250087499999836;201.34335566666664;304
0.49500825000001214;201.83836391666665;305
0.49500825000001214;202.33337216666666;306
0.5050084166666409;202.8383805833333;307
0.5000083333333407;203.33838891666664;308
0.49500825000001214;203.83339716666666;309
0.4950082499999837;204.32840541666664;310
0.5000083333333407;204.82841374999998;311
0.49000816666665514;205.31842191666664;312
0.4800080000000264;205.79842991666666;313
0.4950082499999837;206.29343816666665;314
0.48500808333332657;206.77844624999997;315
0.485008083333355;207.26345433333333;316
0.4950082499999837;207.7584625833333;317
0.49500825000001214;208.25347083333332;318
0.48500808333332657;208.73847891666665;319
0.49500825000001214;209.23348716666666;320
0.4950082499999837;209.72849541666665;321
0.480007999999998;210.20850341666664;322
0.49000816666668356;210.69851158333333;323
0.4950082499999837;211.1935198333333;324
0.49000816666668356;211.683528;325
0.48500808333332657;212.16853608333332;326
0.49000816666665514;212.65854424999998;327
0.49000816666668356;213.14855241666666;328
0.48500808333332657;213.6335605;329
0.48500808333332657;214.1185685833333;330
0.48500808333332657;214.60357666666664;331
0.4750079166666694;215.0785845833333;332
0.4750079166666694;215.55359249999998;333
0.48500808333332657;216.0386005833333;334
0.4750079166666694;216.51360849999998;335
0.47000783333334084;216.98361633333332;336
0.4750079166666694;217.45862424999999;337
0.46500774999998384;217.92363199999997;338
0.4750079166666694;218.39863991666664;339
0.46500775000001227;218.86364766666665;340
0.46000766666665527;219.3236553333333;341
0.9250154166666675;220.24867074999997;342
0.4550075833333551;220.70367833333333;343
0.4550075833333267;221.15868591666666;344
0.46500774999998384;221.62369366666664;345
0.44500741666666954;222.0687010833333;346
0.4550075833333267;222.52370866666664;347
0.44000733333334097;222.96371599999998;348
0.4500074999999981;223.41372349999997;349
0.9050150833333532;224.31873858333333;350
0.44000733333331254;224.75874591666664;351
0.44500741666666954;225.2037533333333;352
0.44000733333334097;225.64376066666665;353
0.5150085833333264;226.15876924999998;354
0.37500625000001264;226.5337755;355
0.44000733333331254;226.9737828333333;356
0.8700145000000248;227.84379733333333;357
0.43500724999998397;228.2788045833333;358
0.4350072500000124;228.71381183333332;359
0.4300071666666554;229.14381899999998;360
0.4300071666666554;229.57382616666663;361
0.49500825000001214;230.06883441666665;362
0.36500608333332707;230.43384049999997;363
0.8550142500000106;231.28885474999998;364
0.4250070833333268;231.7138618333333;365
0.4250070833333268;232.13886891666664;366
0.42000699999999824;232.55887591666664;367
0.4300071666666838;232.98888308333332;368
0.41500691666666967;233.40389;369
0.42000699999999824;233.823897;370
0.4250070833333268;234.24890408333331;371
0.42000699999999824;234.6689110833333;372
0.41500691666666967;235.08391799999998;373
0.42000699999999824;235.50392499999998;374
0.4250070833333268;235.9289320833333;375
0.41500691666666967;236.34393899999998;376
0.4100068333333411;236.75394583333332;377
0.8350139166666679;237.58895975;378
0.4250070833333268;238.0139668333333;379
0.4100068333333411;238.42397366666665;380
0.8300138333333393;239.2539875;381
0.8350139166666679;240.08900141666666;382
0.8200136666666538;240.90901508333332;383
0.4100068333333411;241.31902191666666;384
0.41500691666666967;241.73402883333333;385
1.2250204166666663;242.95904925;386
0.41000683333331267;243.3690560833333;387
0.8150135833333536;244.18406966666666;388
0.4050067499999841;244.58907641666664;389
0.4100068333333411;244.99908324999998;390
0.4050067499999841;245.40408999999997;391
0.4050067500000125;245.80909674999998;392
0.4100068333333411;246.21910358333332;393
0.41000683333331267;246.62911041666663;394
0.4100068333333411;247.03911724999998;395
0.4050067500000125;247.444124;396
0.41500691666666967;247.85913091666666;397
0.41000683333331267;248.26913774999997;398
0.41500691666666967;248.68414466666664;399
0.41500691666666967;249.0991515833333;400
0.4100068333333411;249.50915841666665;401
0.42000699999999824;249.92916541666665;402
0.42000699999999824;250.34917241666665;403
0.41500691666666967;250.76417933333332;404
0.42000699999999824;251.18418633333332;405
0.4300071666666554;251.61419349999997;406
0.42000699999999824;252.03420049999997;407
0.42000699999999824;252.45420749999997;408
0.4350072500000124;252.88921474999998;409
0.4250070833333268;253.3142218333333;410
0.4350072500000124;253.74922908333332;411
0.44000733333334097;254.18923641666666;412
0.4300071666666554;254.61924358333331;413
0.8650144166666678;255.48425799999998;414
0.44000733333334097;255.92426533333332;415
0.44500741666666954;256.36927275;416
0.4500074999999697;256.81928024999996;417
0.44500741666666954;257.26428766666663;418
0.45000750000002654;257.71429516666666;419
0.44500741666666954;258.15930258333333;420
0.44500741666666954;258.60431;421
0.44500741666666954;259.04931741666667;422
0.4500074999999697;259.49932491666664;423
0.44500741666666954;259.9443323333333;424
0.44000733333331254;260.3843396666666;425
0.4600076666666837;260.8443473333333;426
0.45000750000002654;261.29435483333333;427
0.4500074999999697;261.7443623333333;428
0.4650077500000407;262.20937008333334;429
0.4550075833333267;262.66437766666667;430
0.4550075833333267;263.11938525;431
0.46500774999998384;263.584393;432
0.47000783333334084;264.0544008333333;433
0.4550075833333267;264.50940841666664;434
0.46500774999998384;264.97441616666663;435
0.47000783333334084;265.44442399999997;436
0.47500791666669784;265.91943191666667;437
0.470007833333284;266.38943974999995;438
0.485008083333355;266.8744478333333;439
0.485008083333355;267.35945591666666;440
0.48500808333329815;267.84446399999996;441
0.49500825000001214;268.33947225;442
0.5000083333333123;268.8394805833333;443
0.5050084166666693;269.34448899999995;444
0.5000083333333691;269.8444973333333;445
0.5150085833333264;270.35950591666665;446
0.5150085833333264;270.8745145;447
0.5750095833333262;271.4495240833333;448
0.45000750000002654;271.8995315833333;449
0.5300088333333406;272.42954041666667;450
0.5150085833333264;272.944549;451
0.5300088333333406;273.47455783333334;452
0.5300088333332837;274.0045666666666;453
0.5250087500000404;274.52957541666666;454
0.5250087499999836;275.05458416666664;455
0.5300088333333406;275.584593;456
0.5400089999999977;276.124602;457
0.5300088333333406;276.6546108333333;458
0.5400089999999977;277.1946198333333;459
0.5400089999999977;277.7346288333333;460
0.5400089999999977;278.2746378333333;461
0.5250087499999836;278.7996465833333;462
0.5250087500000404;279.32465533333334;463
0.5400089999999977;279.86466433333334;464
0.5400089999999977;280.40467333333333;465
0.5450090833332979;280.94968241666663;466
0.5600093333333689;281.50969175;467
0.5750095833333262;282.0847013333333;468
0.565009416666669;282.64971075;469
0.5800096666666263;283.2297204166666;470
0.6000099999999975;283.8297304166666;471
0.5850097500000402;284.41474016666666;472
0.6000099999999975;285.01475016666666;473
0.6250104166666688;285.6397605833333;474
0.5950099166666405;286.23477049999997;475
0.6250104166666688;286.85978091666664;476
0.6250104166666688;287.4847913333333;477
0.6250104166666688;288.10980175;478
0.6350105833333259;288.7448123333333;479
0.6500108333333401;289.39482316666664;480
0.6800113333333115;290.07483449999995;481
0.6250104166666688;290.6998449166666;482
0.725012083333354;291.424857;483
0.7100118333333398;292.1348688333333;484
0.6800113333333115;292.8148801666666;485
0.6700111666667112;293.48489133333334;486
0.6950115833333257;294.17990291666666;487
0.6650110833332974;294.84491399999996;488
0.6600109999999972;295.50492499999996;489
0.6800113333333684;296.1849363333333;490
0.6700111666666544;296.8549475;491
0.6900114999999687;297.54495899999995;492
0.7550125833333823;298.29997158333333;493
0.800013333333311;299.09998491666664;494
