ExG_CH1;ExG_CH2;ExG_CH3;ExG_CH4;ExG_CH5;ExG_CH6
490;546;614;653;627;591
482;540;612;670;682;664
442;487;546;603;635;638
462;460;482;519;551;570
479;492;517;550;579;599
443;481;519;554;584;601
445;445;458;480;503;527
479;474;480;496;510;530
462;494;523;548;565;575
447;457;473;492;507;520
492;474;471;478;485;498
504;521;537;552;559;563
482;499;518;534;543;547
517;496;490;493;496;503
554;551;553;560;560;560
536;557;575;589;592;588
547;533;531;535;535;537
582;569;564;566;563;564
563;590;611;625;629;624
545;551;562;573;577;578
576;560;555;559;560;565
573;595;613;628;632;631
540;562;583;600;610;612
560;546;545;551;557;565
577;586;596;607;613;616
538;572;601;620;631;633
540;536;543;553;562;572
573;567;569;577;582;591
547;580;607;627;637;640
524;535;550;565;576;585
557;544;542;549;556;567
556;579;599;615;624;628
526;547;568;586;598;605
557;539;536;541;547;558
570;578;588;599;604;610
527;562;589;609;620;624
522;521;528;540;550;561
552;549;553;563;570;580
526;560;589;609;622;626
510;518;532;547;560;570
545;530;529;534;541;553
540;564;584;600;610;615
509;530;552;569;581;588
532;518;516;523;529;541
549;558;569;581;587;594
513;544;571;591;602;606
517;511;515;525;534;545
545;541;544;553;558;567
516;551;579;599;611;614
499;508;522;537;549;559
537;523;521;527;533;544
537;560;579;595;604;607
498;522;543;561;572;578
521;509;508;515;522;534
531;544;558;572;580;586
499;531;558;579;591;596
519;508;509;518;526;537
553;545;545;552;555;563
523;555;581;599;608;610
506;514;525;538;547;555
543;528;525;531;535;545
532;558;579;596;604;607
495;518;540;558;570;577
524;510;508;515;522;534
544;553;564;576;583;588
513;541;565;583;594;597
521;511;513;522;529;538
537;537;542;551;557;565
503;541;570;592;604;607
486;495;510;526;538;549
523;511;510;518;526;538
523;546;567;584;594;599
496;514;533;550;561;568
519;504;502;508;514;526
532;545;557;570;576;582
492;525;552;572;584;588
506;497;500;510;518;529
547;540;541;548;552;559
530;557;580;596;604;605
519;520;527;537;544;551
548;535;531;535;538;546
530;560;583;600;607;609
495;518;540;558;570;576
521;509;508;516;523;536
540;551;564;578;585;591
502;532;559;577;589;594
504;498;502;512;522;534
527;528;534;545;553;562
495;532;561;583;596;600
483;489;501;516;529;540
520;508;506;514;521;533
514;539;561;579;589;593
488;505;523;539;551;558
514;499;496;502;508;520
515;532;548;562;570;576
469;505;534;556;570;575
489;481;484;494;504;516
532;526;528;536;542;550
519;544;566;582;591;592
508;507;513;523;530;537
535;523;520;525;528;536
522;551;573;590;597;599
495;513;532;548;559;564
525;510;508;513;518;528
538;552;565;577;583;588
502;531;556;574;585;588
510;502;504;513;520;531
530;533;540;551;556;564
507;539;566;587;598;601
509;507;514;525;534;544
553;535;529;532;536;544
537;563;583;598;605;606
495;516;535;552;562;568
501;496;499;509;517;530
482;513;538;559;572;581
414;463;503;534;555;568
415;421;436;457;478;498
508;494;495;506;517;531
591;576;574;578;580;579
633;590;565;553;543;540
678;639;610;591;573;565
652;669;676;675;662;646
567;597;616;626;625;617
541;553;565;576;580;585
526;564;595;620;633;638
482;525;563;593;615;624
501;496;506;522;540;558
526;530;541;556;571;586
492;528;559;583;601;611
483;487;498;513;528;545
518;508;509;518;526;542
501;533;557;577;589;597
472;490;509;527;541;552
503;489;487;495;502;517
507;525;542;558;567;574
466;497;524;545;559;565
482;473;475;485;495;508
514;515;520;531;538;547
491;522;546;565;576;579
493;489;494;504;513;522
529;515;512;516;520;528
512;541;563;579;587;588
482;498;515;531;541;548
512;498;495;501;507;517
516;535;552;567;574;578
479;509;533;553;565;570
494;484;486;495;503;515
514;519;528;539;548;555
480;516;545;566;579;583
472;475;485;498;510;522
509;500;500;508;515;526
495;525;549;569;580;583
475;488;503;519;531;539
511;494;489;494;500;511
512;531;547;561;568;572
477;504;528;547;558;563
491;480;481;490;497;509
509;515;524;536;543;550
477;512;540;562;574;578
477;476;483;495;506;517
508;498;499;507;513;525
487;519;545;564;576;579
453;471;491;508;522;531
473;465;467;477;486;500
466;493;516;536;548;557
440;468;494;516;532;541
478;460;457;465;474;487
505;504;509;518;524;532
469;502;527;546;556;559
462;463;470;481;490;500
488;483;486;494;500;510
470;503;530;550;561;565
458;469;484;499;511;519
500;481;475;480;485;495
506;523;538;551;557;560
487;506;524;539;548;550
526;502;494;496;498;504
546;546;549;554;555;557
514;544;567;582;588;586
527;518;519;524;528;533
579;559;551;551;549;552
570;591;607;618;620;615
546;552;561;570;574;574
575;558;551;552;552;556
568;589;606;619;623;622
531;557;580;596;607;608
562;545;541;546;551;559
587;588;593;601;605;609
547;579;604;621;631;632
548;544;548;557;564;572
576;568;568;574;578;586
554;586;610;628;638;640
526;540;555;570;581;589
549;539;539;546;553;564
544;570;591;608;618;623
514;540;563;583;596;603
544;527;525;532;539;552
565;569;577;587;593;600
529;561;586;605;616;619
526;523;529;539;548;558
549;545;548;556;562;572
513;552;582;604;616;621
488;504;523;541;555;566
538;520;517;524;531;544
550;565;579;593;602;606
520;539;557;572;582;588
536;521;518;523;528;539
549;558;568;578;584;589
513;546;573;593;604;607
522;515;519;528;537;547
561;550;548;553;558;565
533;565;589;607;616;618
504;517;532;546;557;565
533;521;521;528;534;545
531;555;575;592;602;606
504;526;547;565;577;584
532;516;512;518;525;536
547;555;564;575;581;587
513;545;571;590;600;603
517;512;516;525;533;543
547;541;542;549;554;563
518;553;580;599;609;612
495;507;522;537;549;558
529;517;515;522;528;540
526;550;571;587;597;601
491;517;538;557;570;577
519;504;502;509;517;529
541;548;557;568;575;581
513;541;564;582;592;595
518;510;512;520;527;536
547;541;541;547;551;559
518;552;578;597;606;608
495;506;520;534;545;554
525;513;513;520;527;538
521;546;567;584;594;599
505;522;540;556;567;574
538;517;511;515;519;530
551;558;567;576;580;585
506;540;566;585;595;597
509;505;509;519;527;537
533;532;536;545;552;560
502;540;569;590;602;606
486;496;510;526;539;550
528;513;510;517;523;535
527;549;568;584;593;597
494;515;535;552;563;570
515;502;500;506;513;524
529;541;553;566;573;579
492;525;552;572;584;588
502;495;499;508;517;528
540;533;534;541;546;554
517;548;572;591;600;602
494;502;513;527;537;546
521;510;510;517;523;534
505;535;559;578;589;594
474;498;520;540;554;562
507;491;489;496;505;517
526;535;546;558;566;572
497;524;547;565;577;580
510;499;499;507;513;523
543;535;535;541;545;552
518;549;572;590;598;599
501;506;516;528;537;544
536;522;520;524;528;537
525;552;573;589;597;600
494;515;535;553;564;570
521;506;504;511;516;528
533;546;559;572;578;584
495;527;553;573;585;589
493;490;496;506;516;528
507;512;521;533;542;554
463;507;542;567;583;590
428;447;469;490;508;524
453;452;460;475;489;507
502;515;531;549;560;568
575;551;543;545;546;548
650;593;559;542;529;527
677;662;648;637;621;608
626;645;655;656;647;632
579;584;588;591;588;584
563;583;598;611;615;616
511;564;605;634;650;652
479;500;525;549;571;584
509;506;515;532;549;567
497;529;559;584;604;616
465;488;513;535;556;572
499;484;483;493;505;524
513;526;540;555;566;577
478;508;533;553;567;575
487;479;482;491;501;514
512;513;518;527;534;545
480;516;545;566;578;583
470;475;487;500;512;523
501;491;491;499;506;518
484;515;541;560;572;577
460;479;499;517;531;540
502;483;478;484;490;503
522;531;542;554;558;563
488;514;536;553;562;565
498;488;488;495;501;510
522;522;526;534;539;545
491;526;553;572;583;584
479;483;493;506;517;526
512;501;501;508;514;524
502;530;552;571;581;584
474;492;510;527;539;546
501;486;484;491;498;509
505;524;539;553;562;567
467;498;525;545;558;565
483;473;477;485;494;506
517;514;518;527;533;542
488;520;546;566;576;579
481;482;490;502;511;521
514;503;502;507;512;521
498;528;551;569;578;581
467;487;506;524;535;542
495;482;481;488;495;507
502;520;536;552;560;566
465;496;522;542;555;561
476;468;471;481;490;503
498;501;509;521;529;538
462;500;530;552;565;570
451;456;468;483;496;508
483;475;477;487;495;507
469;499;525;546;558;564
448;463;481;499;512;522
482;465;462;468;475;488
489;506;520;535;543;548
459;485;508;527;538;543
487;471;468;474;480;490
520;515;517;524;527;532
497;525;547;563;570;570
498;493;496;505;509;515
536;520;515;518;519;524
528;552;571;585;590;588
512;521;532;544;550;552
551;529;521;521;522;527
569;579;588;596;597;595
544;563;580;592;597;595
569;550;544;544;544;548
599;594;594;597;596;596
566;596;618;632;637;633
557;556;560;568;573;577
587;577;575;579;581;586
566;597;622;638;645;645
537;553;570;585;596;602
564;550;548;554;560;571
565;585;602;618;626;630
525;554;578;598;611;617
536;527;529;538;547;560
560;563;571;582;590;599
531;563;590;609;622;626
531;528;533;543;553;564
567;554;552;558;561;571
545;575;598;615;624;627
516;532;548;562;573;581
545;531;528;534;540;552
546;566;584;599;607;612
510;537;561;580;593;599
528;517;516;524;532;544
554;557;563;573;580;587
521;555;581;600;611;614
513;514;521;532;542;552
541;535;536;544;550;560
526;558;582;601;612;615
510;521;536;550;561;569
545;528;522;527;531;542
543;563;580;594;601;605
508;534;557;575;586;591
527;515;514;521;528;539
548;553;560;571;577;584
514;548;575;594;606;608
509;508;515;526;536;546
542;533;534;541;547;557
518;551;576;596;607;610
497;510;525;541;553;562
533;517;513;518;525;536
539;557;573;587;594;599
507;530;551;568;579;584
524;511;509;515;522;533
539;546;555;565;571;579
504;538;566;586;598;601
505;502;508;520;529;540
533;527;528;536;541;551
508;542;569;589;601;604
497;507;521;535;548;555
547;525;517;520;524;534
550;566;580;592;597;599
509;534;555;571;580;584
525;514;513;519;525;534
543;551;560;571;577;582
508;542;569;589;601;603
506;504;511;522;532;542
537;531;532;540;546;556
514;547;574;593;605;609
495;506;521;536;548;557
529;513;510;516;523;534
528;549;567;583;591;596
493;517;539;558;570;576
514;501;499;507;514;526
531;539;548;560;567;574
494;528;556;576;588;592
497;493;499;509;519;530
532;524;524;531;537;547
509;541;566;585;595;598
488;498;513;527;538;546
525;509;505;511;517;527
518;541;560;576;585;589
480;506;530;549;562;568
508;494;493;499;507;519
535;540;547;557;563;570
507;536;559;576;586;589
511;504;506;514;521;530
541;534;534;540;543;550
516;549;574;592;601;602
497;507;521;534;544;551
529;516;513;519;524;534
532;554;572;587;595;598
499;521;542;560;571;576
515;503;502;509;516;528
517;531;545;560;568;576
473;512;543;566;582;588
472;473;481;495;508;522
476;483;493;508;520;534
434;480;517;545;564;574
465;465;476;491;506;519
615;554;523;513;509;516
670;646;631;622;610;600
645;639;632;625;613;600
659;632;612;599;584;576
618;639;651;655;649;639
522;581;622;647;657;654
495;515;537;559;574;586
512;525;543;564;581;596
485;528;566;596;620;631
468;482;502;524;546;565
503;492;494;505;520;540
495;522;546;566;582;594
462;486;510;531;548;561
489;476;475;484;494;512
511;520;530;543;552;561
485;513;537;555;567;573
491;483;485;494;501;513
519;515;517;524;528;537
490;524;551;571;581;584
472;481;494;509;520;529
509;495;493;499;505;516
505;529;549;566;575;579
471;493;514;532;544;551
501;485;482;490;496;508
517;527;537;549;556;562
479;511;536;556;568;572
484;478;482;492;501;512
513;510;513;522;528;537
483;518;546;566;578;581
468;476;489;503;515;525
504;491;490;497;502;514
499;524;545;562;571;576
467;489;509;527;539;546
499;483;480;486;492;504
515;525;536;548;555;560
476;508;534;553;565;568
479;474;479;489;498;508
506;505;510;521;526;535
480;515;543;563;575;578
468;474;487;500;512;522
501;489;487;494;500;512
489;518;540;558;568;573
456;479;500;519;533;540
484;470;469;477;485;497
494;508;522;536;545;552
454;488;515;537;550;556
462;456;462;472;482;495
486;487;493;504;511;522
457;493;522;544;557;562
447;453;466;480;492;504
486;472;470;477;483;495
479;504;525;543;552;557
449;468;488;505;517;524
481;464;461;467;473;485
499;510;521;533;539;543
473;499;521;539;548;550
494;480;478;483;488;496
536;526;524;528;529;533
519;544;564;578;583;581
515;512;516;523;527;531
558;538;530;531;529;533
557;578;592;603;606;602
531;545;558;569;575;575
561;542;536;536;537;543
575;585;594;603;605;605
549;573;593;607;614;612
564;549;546;550;553;559
587;584;585;590;592;595
557;589;613;630;638;637
543;546;555;566;574;581
575;562;560;565;569;578
562;589;611;627;636;638
530;549;567;583;594;601
557;542;539;545;551;562
563;578;592;606;613;619
525;555;580;600;612;617
539;528;530;537;546;558
564;563;568;576;582;592
534;568;594;613;624;627
521;525;535;547;558;568
553;542;541;547;553;564
540;569;592;610;619;623
513;531;549;565;577;585
544;528;524;530;536;548
551;566;580;593;601;606
512;542;567;586;598;603
524;515;517;525;533;545
549;550;556;565;571;580
518;552;580;600;611;615
509;512;521;534;545;555
545;532;530;536;543;554
533;560;582;599;609;613
510;524;541;555;566;573
542;524;519;524;529;540
551;565;578;590;596;600
511;540;564;582;593;596
526;515;515;522;530;540
553;553;557;566;571;578
521;554;580;599;610;612
509;512;521;532;543;553
542;532;531;537;543;553
529;558;581;599;608;612
503;519;536;552;563;571
535;519;516;521;527;538
541;558;572;586;593;598
502;532;557;575;587;592
518;509;509;516;524;537
544;546;552;561;567;575
513;547;574;593;604;607
505;506;515;527;536;547
539;529;528;534;540;550
523;553;577;596;605;608
494;511;529;545;557;565
526;511;509;515;521;533
533;549;565;579;587;592
496;523;547;566;579;584
511;499;500;508;516;528
533;536;542;552;559;567
503;536;563;582;594;598
500;499;506;517;527;537
530;520;520;526;532;542
511;542;567;585;595;599
485;500;518;534;546;554
517;502;499;506;512;524
525;542;557;571;579;584
488;515;539;557;570;575
508;496;495;502;509;521
536;537;543;551;557;564
508;539;565;582;592;594
505;503;509;519;527;536
539;528;527;532;536;544
519;550;574;592;601;602
497;511;526;541;552;558
528;513;510;515;520;531
532;551;567;581;589;592
499;525;548;566;577;582
520;506;505;512;520;529
536;541;549;560;565;572
488;527;557;579;593;597
471;478;490;506;519;532
482;485;494;507;519;533
446;490;525;552;571;580
440;455;476;495;514;528
561;515;495;493;496;507
639;614;601;596;589;585
622;618;614;610;602;592
649;616;594;581;567;561
649;649;646;643;632;623
561;610;642;659;663;655
514;536;557;574;585;592
524;536;552;570;583;595
493;540;578;609;629;639
466;488;514;539;561;578
500;490;493;507;522;542
500;524;545;566;582;594
465;494;519;541;560;572
485;475;476;485;497;514
509;515;524;536;545;557
474;508;536;558;570;577
477;475;481;492;502;515
512;503;503;510;516;527
495;526;550;569;578;581
467;481;496;512;523;532
500;486;485;491;497;509
506;525;543;558;566;571
475;498;521;538;549;555
498;483;481;488;494;505
522;526;533;543;548;554
484;517;543;563;574;576
486;482;488;498;507;517
522;513;512;519;523;532
502;533;557;575;584;586
480;491;505;519;530;538
514;499;496;501;506;517
508;532;551;567;575;579
476;501;524;543;555;561
494;483;483;491;498;510
515;523;532;544;552;558
479;513;540;561;573;577
478;476;483;495;505;516
509;504;506;514;521;531
487;520;547;567;578;582
465;478;493;508;520;530
497;484;483;490;497;509
498;520;540;556;565;570
464;489;512;531;543;550
483;471;471;479;487;500
498;508;519;532;540;548
460;495;524;545;559;564
462;459;466;479;489;502
490;486;489;498;506;517
465;500;528;549;561;566
447;458;473;489;502;512
482;468;466;474;481;493
480;502;522;540;549;554
450;473;495;514;526;533
478;462;459;467;473;485
501;507;515;526;531;537
475;503;527;545;555;556
487;478;478;486;492;500
530;517;514;517;519;524
520;545;565;578;583;581
513;513;520;528;532;535
552;531;522;522;521;526
554;572;586;596;598;596
530;547;562;574;580;579
559;539;532;534;534;540
578;583;589;596;597;598
545;573;596;611;618;616
549;542;543;549;554;560
582;573;572;577;579;584
555;586;610;627;635;635
534;541;553;566;575;582
566;552;548;553;558;567
557;582;601;617;626;629
523;546;567;584;596;603
552;536;532;538;544;556
571;578;587;597;603;609
532;563;588;606;617;620
537;531;534;542;550;560
566;561;562;569;575;582
540;573;598;617;627;630
519;528;541;554;565;574
552;540;537;543;549;561
543;569;590;607;616;621
510;533;555;572;585;592
536;522;520;527;534;546
551;562;574;586;593;599
516;547;573;592;604;608
519;514;518;527;536;547
549;545;548;556;562;571
519;554;581;601;613;616
504;512;524;538;549;559
541;527;524;530;536;547
531;556;577;594;604;608
502;523;542;559;572;579
534;517;512;517;523;535
550;559;569;579;585;590
512;542;567;585;596;599
517;510;513;522;530;540
546;542;545;553;558;566
519;553;579;598;609;611
503;509;521;534;546;554
538;525;522;528;534;544
530;555;576;593;602;606
496;517;538;555;567;574
525;510;507;514;520;532
538;550;562;576;582;587
499;531;557;577;589;593
509;502;505;514;522;534
538;535;538;546;552;561
508;543;570;590;601;605
494;500;512;525;536;546
530;517;515;521;527;538
522;548;569;586;595;599
494;513;532;549;560;567
521;505;502;508;514;526
529;543;557;570;577;582
488;521;547;568;581;585
500;492;495;505;514;526
533;528;531;540;546;555
506;538;563;583;593;596
497;499;508;520;530;539
537;522;516;521;525;535
529;554;573;588;595;598
501;519;536;551;561;567
529;513;508;514;518;528
540;553;565;577;583;587
503;533;558;576;587;590
515;506;507;515;522;532
548;544;546;554;558;565
518;552;577;596;605;607
504;509;519;531;541;549
532;522;522;529;535;545
514;545;570;589;599;604
470;496;521;541;556;565
485;478;483;494;505;521
475;502;525;546;560;571
447;481;511;537;555;565
528;497;487;491;498;510
629;589;568;561;556;557
617;624;627;627;622;612
613;599;590;584;577;572
642;621;608;600;590;585
586;624;647;660;661;653
516;553;582;603;614;616
521;524;534;549;561;573
517;546;573;596;612;622
475;513;548;576;598;611
486;482;490;506;523;542
510;513;523;537;551;567
481;517;546;569;586;597
473;476;487;503;516;532
510;498;497;504;512;527
494;524;549;567;578;584
466;485;504;522;535;545
499;484;481;488;495;508
510;525;540;553;561;567
479;506;530;548;560;565
496;485;484;491;498;509
522;522;526;534;539;546
490;525;552;571;581;583
483;485;494;507;515;525
520;508;506;512;517;526
507;535;559;575;584;587
479;496;514;530;541;548
510;494;491;497;503;514
514;531;547;561;569;573
478;506;531;551;564;568
493;483;484;492;500;512
513;516;523;533;540;548
480;516;544;565;577;581
472;474;484;497;509;520
512;500;498;505;511;522
500;528;550;568;577;581
472;488;505;521;532;540
502;488;484;490;496;507
509;526;541;556;563;568
474;502;527;545;557;562
491;480;481;488;496;507
513;516;522;532;538;546
473;511;541;562;573;577
463;468;479;493;504;515
498;490;491;501;507;518
481;512;538;558;570;574
454;472;490;508;522;530
486;471;470;478;485;498
490;509;526;542;551;557
449;480;506;527;541;547
465;456;459;469;479;491
492;494;502;514;521;530
461;495;522;543;556;560
458;458;465;478;490;499
504;490;487;493;497;507
498;523;542;558;565;567
483;491;502;514;522;527
525;502;494;494;496;503
542;552;561;570;572;571
518;536;552;564;570;569
550;528;519;520;520;524
584;577;575;577;575;575
551;579;599;612;616;612
547;543;546;552;555;558
580;569;565;568;568;571
560;590;612;628;634;632
534;548;563;576;585;589
567;551;546;551;555;563
570;589;604;617;623;625
535;561;583;600;611;614
552;540;539;545;551;561
575;578;584;593;599;605
541;574;600;619;630;631
533;533;540;550;560;570
564;556;556;563;569;578
542;574;599;618;629;632
516;530;547;563;575;584
546;532;529;536;543;555
545;566;584;600;609;615
510;537;560;579;592;599
532;519;518;525;533;545
555;558;565;575;581;589
521;555;579;598;609;614
517;515;521;531;541;551
549;541;541;547;552;562
530;561;585;603;613;616
507;520;535;549;560;568
538;524;521;526;532;543
538;559;577;592;600;605
502;530;552;570;583;589
522;510;510;517;524;536
546;551;559;569;575;582
511;545;572;591;602;605
512;509;515;525;534;544
550;540;539;545;549;558
528;559;583;601;610;612
501;515;530;545;556;563
530;517;515;522;528;539
529;552;571;587;596;601
496;521;544;564;576;582
522;507;505;512;520;531
547;550;557;567;573;579
512;544;569;587;598;601
509;506;511;521;530;540
539;532;533;540;545;554
517;549;575;594;604;607
497;508;523;537;548;557
529;515;511;517;523;534
526;549;567;583;592;596
492;517;540;558;570;576
519;504;502;508;515;527
540;546;553;563;569;576
496;532;560;580;591;595
490;491;499;511;521;532
522;518;521;530;537;547
503;536;562;582;594;598
486;496;510;525;537;546
520;505;502;508;514;526
524;544;563;576;584;589
497;517;537;553;564;570
526;508;504;508;512;523
546;551;558;567;570;575
509;541;566;584;593;595
506;503;508;518;526;535
540;533;534;541;546;554
517;549;574;593;603;605
500;508;521;535;546;554
534;518;514;519;525;536
532;554;572;587;595;599
490;516;539;557;569;575
499;492;493;503;512;525
500;517;533;550;561;570
442;488;524;551;569;578
432;439;454;473;491;509
502;489;490;500;510;524
578;571;574;581;584;584
620;586;568;560;553;550
662;622;593;576;561;555
651;663;666;663;652;638
572;604;624;634;634;625
542;552;562;572;576;581
528;560;587;608;621;627
480;529;570;601;622;631
485;488;502;521;541;559
518;517;524;539;553;570
493;528;558;582;600;610
472;484;499;517;533;549
510;496;494;502;512;528
506;530;550;568;579;587
473;496;517;536;549;559
499;485;483;490;497;511
520;527;537;550;556;564
483;515;540;559;571;576
486;481;485;495;503;515
519;514;515;523;529;538
497;529;554;573;583;586
479;487;499;512;523;532
514;500;497;503;508;519
512;536;555;571;579;582
482;503;523;540;551;556
505;491;489;495;501;512
516;529;541;554;560;566
477;512;539;560;572;576
483;478;483;494;504;515
514;511;514;524;530;539
490;524;550;570;581;585
480;485;496;510;520;530
518;503;499;504;509;519
510;535;555;571;579;582
477;498;519;537;548;554
502;488;487;493;500;511
514;526;539;552;559;565
483;513;539;558;570;574
495;485;487;496;504;515
520;517;519;527;533;541
484;521;549;570;581;585
467;476;490;505;517;527
501;489;489;496;503;515
493;519;542;560;571;576
462;483;504;523;536;544
488;474;473;480;488;501
498;511;525;539;547;555
461;494;521;542;555;560
474;466;469;479;489;500
507;503;505;513;520;529
476;511;537;557;568;572
461;469;481;494;505;515
499;486;485;490;496;507
494;520;541;558;566;570
471;488;506;522;533;539
511;491;484;488;492;501
534;540;547;556;560;562
507;531;551;566;573;573
527;511;508;511;514;520
562;553;551;554;554;557
538;566;587;602;607;604
528;529;535;543;548;552
567;549;543;545;546;551
563;584;602;615;619;619
533;549;564;578;586;588
564;546;540;542;545;552
573;585;596;606;610;612
533;564;587;605;615;616
546;536;537;544;550;559
578;574;575;582;586;592
545;578;604;622;632;633
530;535;545;557;566;575
566;553;550;556;561;570
554;581;603;619;628;631
524;542;561;577;589;595
548;534;531;537;544;556
555;571;585;599;607;612
514;546;573;593;606;611
524;517;520;529;539;552
557;555;559;567;574;583
528;561;587;606;617;621
516;519;529;541;551;561
550;538;536;542;547;558
536;565;588;605;614;618
506;524;544;560;572;580
533;518;516;522;529;541
540;555;570;584;592;598
501;532;558;577;590;596
516;506;508;516;525;537
549;546;550;558;563;572
520;552;577;596;606;609
510;512;520;531;541;550
545;532;529;534;539;549
531;559;581;598;607;610
502;519;537;553;564;571
531;516;513;519;524;536
540;556;570;583;590;595
503;533;558;576;589;592
517;507;508;516;524;535
543;544;549;558;563;572
514;547;574;593;604;607
507;509;517;529;538;548
542;530;528;534;539;548
525;555;578;596;605;608
496;514;532;549;561;568
524;510;508;514;521;533
530;547;563;578;586;591
495;524;549;568;581;586
506;497;498;507;516;529
529;531;538;548;555;565
496;531;559;580;592;596
490;492;501;513;524;535
525;513;512;519;525;536
503;535;559;578;589;593
481;496;514;530;543;551
521;502;497;502;507;519
536;547;559;571;577;581
502;527;548;564;574;577
523;508;505;510;515;524
552;551;553;559;562;567
521;553;577;594;603;603
512;513;520;529;537;545
541;532;531;537;541;550
523;555;579;597;606;608
497;514;531;547;559;566
535;518;514;519;524;535
539;557;571;585;592;596
487;521;547;568;581;586
486;484;492;502;514;527
494;507;522;538;550;561
442;489;526;554;573;583
433;442;459;478;496;514
525;499;492;498;505;519
611;596;591;593;592;590
630;603;588;580;572;566
669;628;599;582;566;560
654;664;667;664;652;639
561;603;630;645;646;638
533;545;558;571;578;584
532;555;577;598;611;619
483;533;573;605;627;637
476;485;502;524;545;564
512;506;512;526;541;560
494;527;554;578;595;607
468;485;503;522;539;555
501;487;486;494;504;521
503;524;541;558;569;578
471;499;522;542;555;564
496;482;481;488;496;509
520;523;529;539;546;553
486;520;546;566;577;580
480;480;488;500;510;520
515;506;506;514;519;529
498;529;554;573;583;586
471;486;503;519;531;539
503;489;487;494;500;512
508;527;544;560;568;573
475;500;523;542;554;560
492;480;480;487;495;506
514;518;527;537;544;551
480;514;541;561;573;576
480;478;484;495;505;516
515;505;505;512;517;526
493;525;550;569;579;582
471;484;499;514;526;534
506;490;487;493;498;509
509;529;545;560;568;572
476;501;523;541;553;558
493;481;481;488;495;506
512;519;528;540;546;553
478;513;540;561;573;576
476;476;483;494;504;515
510;503;504;512;517;527
489;521;548;567;578;581
461;476;493;510;522;531
489;478;478;486;494;506
490;513;533;550;560;566
457;484;507;528;542;549
480;467;467;475;484;496
498;505;515;527;535;543
460;495;524;545;558;563
457;457;465;478;489;501
492;485;487;495;502;513
473;505;531;551;562;566
454;464;479;495;506;516
490;475;471;477;483;494
496;514;531;546;554;558
470;491;510;527;537;542
503;483;477;481;486;495
529;530;535;542;545;548
507;532;553;568;575;574
527;513;510;513;516;521
571;553;546;545;543;545
553;578;597;608;611;606
532;538;549;557;561;562
569;551;544;545;545;549
571;589;604;615;619;617
540;561;580;594;601;602
563;547;542;546;549;556
578;586;593;602;606;608
536;571;597;616;626;627
537;534;540;549;558;567
568;561;562;570;576;584
543;576;602;621;632;634
523;532;547;560;572;581
558;542;538;544;550;561
557;578;596;610;619;623
525;546;567;583;595;601
544;530;527;533;540;552
560;568;578;589;595;602
522;555;581;601;613;616
522;519;524;534;544;555
556;549;550;557;563;573
531;564;589;608;619;622
511;520;533;547;559;568
544;530;527;532;538;550
539;564;582;598;607;612
506;530;552;569;581;588
534;519;516;522;528;540
549;558;568;579;585;592
510;544;570;590;601;605
518;513;516;526;534;545
550;544;545;552;557;566
525;558;584;602;612;615
507;515;528;542;552;561
540;527;524;529;535;546
534;559;579;595;604;608
499;523;545;563;575;582
524;509;508;515;523;534
543;551;562;573;580;587
508;538;564;583;595;599
513;507;510;519;528;539
543;537;539;546;552;561
518;551;576;595;606;608
502;509;521;534;545;554
537;522;519;524;529;540
530;554;574;590;598;602
494;517;539;556;568;575
517;504;502;509;517;528
531;542;554;567;575;582
497;529;555;576;587;592
504;498;502;511;520;531
530;527;530;539;545;554
501;537;565;585;596;600
489;497;509;523;534;544
527;513;511;515;521;532
523;547;567;582;591;594
492;513;533;549;560;567
517;503;500;506;512;523
533;544;555;567;573;578
499;530;555;574;585;588
509;501;503;511;519;529
543;536;538;544;549;556
515;547;572;591;601;602
497;504;515;528;538;547
532;519;516;521;527;537
531;554;573;589;597;600
503;522;539;555;566;571
529;513;509;513;519;530
540;552;564;575;581;585
488;524;553;574;587;591
480;482;490;504;515;528
491;499;510;525;536;549
443;491;528;556;575;584
430;444;463;484;503;519
538;504;492;494;500;513
626;606;598;596;593;590
627;611;601;595;586;579
661;624;598;582;566;560
649;657;659;657;646;634
550;600;632;649;653;646
515;534;551;567;577;585
525;542;561;581;595;606
485;533;574;605;627;637
472;485;505;527;549;567
509;499;503;516;531;550
499;527;552;574;590;602
468;489;511;531;548;562
494;480;479;488;498;516
504;519;533;548;558;568
469;500;527;547;561;569
485;476;477;486;495;509
516;512;515;523;529;539
487;520;546;565;576;580
480;482;491;503;513;523
516;502;498;504;509;519
504;531;552;569;578;581
474;493;512;529;540;547
503;489;486;492;498;509
514;528;542;556;562;567
476;507;533;553;565;569
489;481;483;492;500;511
517;516;520;530;535;543
488;522;549;569;580;583
478;482;492;505;515;525
512;500;499;505;511;521
501;529;552;569;579;582
473;491;511;527;539;546
504;488;485;491;497;509
513;528;542;555;562;568
471;502;529;550;561;566
483;475;478;487;496;508
513;511;516;526;533;541
486;518;545;564;576;579
477;479;488;500;511;520
509;498;497;503;508;519
492;522;546;565;575;578
461;481;501;519;532;540
490;476;474;482;490;502
496;513;529;545;553;560
456;488;514;536;550;556
467;460;463;473;484;497
492;494;501;512;520;530
462;497;526;547;560;565
452;456;467;481;493;504
487;477;477;485;491;503
472;503;527;546;557;561
446;464;484;501;514;522
482;466;463;469;476;488
501;513;526;538;544;549
480;501;521;537;546;549
507;489;484;487;490;498
546;538;536;539;539;542
523;550;569;584;587;584
523;517;519;525;529;532
563;545;538;539;538;541
558;580;596;608;611;608
534;545;557;567;573;573
565;546;539;540;541;546
572;586;599;608;611;611
539;564;585;602;609;609
557;543;540;545;550;557
581;580;583;590;593;598
547;580;605;623;632;633
538;538;546;556;565;573
572;560;558;563;568;577
553;583;606;624;633;635
522;540;557;573;585;592
553;538;535;541;547;559
555;574;591;604;612;618
520;548;572;591;603;609
537;526;526;533;541;553
555;559;566;576;583;591
525;560;587;606;618;621
524;523;530;541;551;561
561;549;546;552;556;566
543;572;595;612;621;624
516;531;547;562;573;580
545;529;527;532;538;549
547;566;582;596;604;609
507;536;560;580;593;598
524;514;514;522;530;542
548;550;557;567;575;582
517;550;576;596;608;611
511;510;518;529;539;550
545;535;534;540;546;556
530;559;582;600;610;613
504;518;534;549;560;568
536;520;517;522;528;539
540;558;574;588;597;600
505;532;555;573;584;589
525;513;512;518;525;536
546;550;557;567;572;579
509;544;572;592;603;606
506;506;513;525;535;545
544;534;533;539;544;554
528;558;581;598;609;610
503;516;532;546;557;565
536;520;517;522;527;538
535;556;573;587;595;599
496;525;549;568;580;586
515;504;505;514;520;532
544;545;552;562;568;576
513;544;569;588;599;602
507;505;511;522;531;541
532;526;527;534;540;550
505;540;568;588;600;604
482;497;515;532;545;555
521;504;501;508;515;528
529;546;562;576;584;589
495;519;540;558;569;575
517;503;500;506;512;523
542;545;550;559;564;570
511;542;567;584;594;596
513;509;513;521;529;538
546;536;535;541;543;552
523;555;579;597;605;607
500;513;528;543;553;560
537;520;516;522;527;537
540;559;576;590;597;600
503;528;552;569;580;585
521;509;508;515;522;533
530;540;551;564;571;578
480;522;554;577;592;597
465;472;485;502;516;530
476;482;492;507;520;536
450;491;524;551;570;580
482;480;490;503;517;530
612;554;525;516;512;519
656;638;626;619;608;601
633;632;629;625;616;604
644;620;603;592;580;573
617;634;641;645;640;632
536;590;627;649;659;655
509;525;546;564;579;589
524;533;548;565;580;594
493;537;574;603;624;636
472;489;511;534;557;573
503;493;495;507;522;542
501;527;548;568;583;595
465;492;517;539;556;569
484;474;475;485;497;513
505;514;525;538;547;558
474;507;534;555;569;575
482;476;481;491;501;513
512;505;506;514;519;530
484;519;546;566;576;580
469;479;494;509;520;529
508;492;488;494;499;510
510;530;548;563;570;574
475;497;519;537;549;554
498;484;482;488;495;506
517;524;533;544;551;557
483;515;541;560;571;575
484;480;485;495;503;514
511;507;509;518;523;532
489;522;548;568;579;582
475;483;496;510;521;530
510;494;491;496;502;513
504;528;547;563;572;576
472;495;517;535;547;553
498;484;482;488;495;506
519;526;535;546;552;558
481;514;540;560;571;574
482;479;484;494;503;513
509;506;509;518;524;533
484;519;546;567;578;582
464;475;490;506;518;528
502;488;486;493;499;511
498;522;542;559;568;573
464;488;510;528;541;548
488;475;474;481;489;501
500;512;524;537;545;552
460;496;524;546;559;564
462;459;466;478;489;501
490;488;492;502;510;521
467;501;528;550;563;567
449;458;472;488;501;512
484;470;468;476;483;496
481;505;525;542;552;557
452;473;494;512;524;531
487;469;465;470;476;487
515;518;525;534;539;543
493;516;536;551;559;560
509;494;491;496;499;506
544;533;529;532;532;535
524;552;574;587;592;589
520;521;526;534;539;542
563;542;533;533;532;536
566;584;597;607;610;607
539;555;570;581;586;586
568;549;541;542;543;548
583;591;598;606;608;608
545;575;599;615;623;622
550;543;545;552;558;564
577;573;575;581;585;591
544;580;607;626;636;637
529;537;549;562;573;581
564;550;547;553;558;569
556;581;601;617;626;630
521;542;563;579;592;599
545;532;529;535;542;555
558;569;581;593;601;607
521;552;578;597;609;614
524;518;522;531;540;552
551;549;553;561;567;577
527;560;586;605;617;620
516;520;530;543;554;563
550;535;531;537;542;554
541;566;586;602;611;615
507;529;549;565;577;584
536;521;518;524;530;542
547;560;572;585;591;597
508;541;567;586;598;602
517;510;513;522;531;542
549;545;548;556;562;571
524;556;582;601;611;613
511;516;526;538;548;557
544;531;528;534;539;549
536;562;583;600;608;611
504;524;544;561;573;579
532;517;514;520;527;538
546;557;569;581;588;594
509;539;564;582;594;598
518;509;511;519;527;539
544;542;545;554;559;568
511;546;574;594;605;608
498;504;515;529;541;550
541;525;522;527;533;544
533;558;577;593;602;605
502;520;538;554;565;572
533;516;512;517;522;533
538;552;565;579;585;590
495;528;555;575;587;592
506;499;502;512;521;532
539;537;540;549;555;563
514;546;571;590;601;604
499;504;514;526;536;546
527;517;517;523;529;540
510;541;566;586;595;600
482;502;523;541;554;563
517;500;497;504;512;524
530;542;555;568;575;581
496;524;548;567;578;583
512;500;500;507;515;525
542;539;541;548;554;560
513;545;570;588;598;600
503;505;514;525;534;542
536;523;521;527;531;540
526;553;574;591;600;603
504;518;535;550;561;566
534;516;511;515;521;531
542;556;568;580;586;590
504;534;558;576;587;590
511;503;505;514;522;532
523;528;537;548;556;565
478;520;553;577;592;597
456;468;485;503;519;532
473;474;481;495;507;523
460;496;526;550;567;576
501;498;507;520;531;541
625;565;533;521;515;520
670;647;631;622;609;599
643;648;648;644;634;620
627;613;604;597;587;580
592;611;623;630;628;624
516;576;618;645;658;657
485;508;534;558;577;590
513;515;527;544;561;578
501;537;568;594;614;626
471;492;515;538;559;575
496;485;486;497;511;531
505;522;540;557;570;583
470;499;525;546;562;573
486;476;477;486;497;512
509;511;517;528;536;547
478;512;540;561;573;579
472;474;483;495;506;518
510;498;496;503;509;520
494;524;547;565;576;579
470;486;503;519;530;538
506;488;484;489;495;507
512;528;543;556;563;567
478;506;530;548;559;563
496;484;484;491;498;509
524;524;529;538;543;549
490;524;551;570;581;583
483;485;493;505;514;524
514;505;505;512;518;528
495;527;553;572;582;585
468;486;504;521;534;542
502;488;485;491;498;510
509;526;542;557;565;570
474;502;526;545;558;563
491;479;479;487;495;507
511;514;521;532;539;547
477;512;540;561;573;577
467;470;480;493;504;515
500;491;492;501;508;519
485;516;541;560;571;576
464;478;494;510;523;531
498;482;478;483;489;501
500;519;535;549;557;562
460;489;514;533;546;552
475;465;467;475;484;496
493;499;508;520;528;537
460;496;525;547;560;564
460;460;468;481;492;503
495;486;485;493;499;510
477;508;533;552;563;566
449;466;483;500;512;521
482;468;466;473;480;492
489;508;525;540;548;553
461;486;508;527;538;543
491;474;470;476;483;492
525;523;525;532;535;539
502;529;550;565;573;572
507;499;501;507;512;517
553;535;528;529;529;533
543;566;584;597;600;597
524;531;541;551;556;557
561;540;532;532;532;537
567;581;593;603;606;604
532;555;574;589;596;596
556;539;534;538;541;548
585;584;587;593;595;597
551;581;604;621;627;626
543;541;546;554;561;568
573;564;563;569;572;580
552;583;608;625;634;635
528;541;556;570;581;588
563;547;543;547;553;563
565;584;600;614;621;624
528;554;576;594;605;610
545;533;532;539;546;557
563;569;578;588;595;602
524;560;588;608;620;624
519;519;527;539;550;561
552;544;545;553;561;571
535;565;590;609;620;624
515;525;540;554;565;574
549;532;528;533;539;550
545;566;583;598;606;611
507;533;556;575;587;593
532;518;516;522;530;542
555;559;566;576;582;589
519;551;577;596;607;611
513;512;518;528;538;549
546;539;539;546;551;561
526;558;583;601;611;614
508;518;531;546;556;564
543;526;522;527;532;543
540;561;579;593;601;605
505;530;553;570;581;587
529;515;513;519;526;537
548;555;563;573;579;586
512;546;572;591;602;605
513;511;516;526;535;545
546;539;539;546;552;560
523;556;581;600;610;613
499;512;526;541;553;561
530;517;515;522;528;540
528;551;570;587;596;601
499;522;544;562;574;581
523;508;506;512;519;531
538;546;556;567;574;580
501;535;561;581;593;597
499;497;503;514;524;535
531;525;526;534;541;551
514;544;569;588;599;602
493;502;515;530;541;550
523;509;507;513;519;530
517;541;561;578;588;592
485;509;532;550;563;570
508;494;493;500;508;520
525;534;544;556;563;570
494;525;551;570;582;586
504;497;499;508;516;527
542;532;531;536;540;547
522;552;575;592;600;600
507;513;524;535;544;550
540;524;520;524;527;536
535;558;576;591;598;600
496;521;544;561;573;577
520;507;506;513;519;531
539;548;558;570;576;582
508;539;564;583;594;597
509;504;508;518;526;537
524;524;529;539;546;555
483;526;558;581;595;600
454;471;491;511;527;540
474;470;476;488;501;518
471;500;525;548;563;573
509;510;520;533;544;552
630;568;536;524;517;521
680;651;631;618;604;595
650;658;661;657;646;631
624;615;609;604;595;588
589;605;614;621;619;617
516;576;620;648;661;661
479;507;537;564;584;597
504;504;515;534;551;570
498;530;559;586;606;619
466;492;519;544;566;581
491;480;481;492;506;527
508;520;533;548;560;574
475;507;534;555;570;579
485;478;481;491;502;517
516;511;513;522;527;539
490;524;550;569;580;584
471;480;493;507;518;528
510;496;494;499;505;516
506;530;551;567;575;579
476;496;517;534;545;552
503;487;484;490;496;508
514;526;538;550;557;563
472;506;533;554;567;571
477;473;478;489;499;510
515;509;512;520;527;536
495;526;551;569;579;582
481;485;496;508;518;527
514;500;497;502;507;518
502;529;551;567;576;580
470;492;513;531;543;550
501;485;482;488;495;507
522;530;541;552;558;563
484;515;539;558;569;572
487;482;486;495;503;513
516;514;518;527;532;541
488;523;550;571;582;585
472;480;492;506;518;527
506;495;494;501;507;518
497;524;547;565;575;579
469;491;510;528;540;547
498;482;481;487;494;505
508;522;535;548;556;561
468;501;528;549;561;566
474;469;474;484;494;506
502;500;505;516;523;533
470;506;535;556;569;573
455;462;475;490;503;515
492;479;479;486;493;506
483;510;532;550;561;566
455;475;494;511;524;532
483;468;465;472;479;492
494;508;521;535;542;548
461;491;516;536;548;553
480;469;469;477;485;495
520;512;512;518;522;528
508;533;553;568;575;574
508;504;507;514;519;525
551;531;522;522;521;526
548;569;584;595;597;595
523;537;550;561;566;567
556;536;528;529;529;535
573;582;591;599;600;599
540;565;586;601;608;606
549;538;537;542;546;552
577;574;576;582;584;588
548;581;605;623;631;630
534;538;547;558;566;573
567;555;553;558;562;570
555;581;603;620;629;631
526;543;561;577;589;594
558;540;535;540;546;557
569;581;593;604;612;615
527;557;581;599;611;615
535;527;529;538;545;556
561;560;565;574;580;588
531;565;592;611;623;626
519;522;532;544;555;565
552;540;539;545;551;562
535;564;588;606;616;621
504;523;543;560;573;581
538;522;519;525;531;544
548;562;576;589;596;602
512;541;565;583;595;599
522;514;515;523;531;542
547;548;553;562;568;576
520;553;580;599;610;613
513;514;522;534;544;554
549;536;534;539;544;554
535;563;585;602;611;614
505;523;542;557;568;575
532;518;515;521;528;539
536;554;570;584;592;598
501;530;556;575;587;593
518;506;507;515;524;536
546;545;549;558;564;572
515;548;574;593;604;607
508;508;516;527;537;547
542;530;528;534;539;548
525;554;577;595;604;607
494;512;531;547;559;566
523;509;507;513;520;532
533;549;564;579;586;591
497;525;549;568;580;585
511;501;501;509;517;529
540;541;545;554;560;569
511;544;569;588;599;601
500;502;510;522;531;542
533;524;523;529;534;544
520;549;572;590;600;603
492;508;526;542;553;561
519;505;503;510;516;528
521;541;558;573;582;587
485;514;540;559;573;579
501;491;492;501;510;522
530;531;537;547;553;561
501;534;560;579;590;593
498;496;503;514;523;533
537;523;520;525;530;539
524;551;572;588;597;599
498;511;526;540;551;557
528;511;507;512;517;527
534;551;566;579;586;589
499;526;549;566;577;581
519;505;504;511;517;528
544;546;550;559;564;570
512;546;570;589;599;601
504;504;511;522;531;541
527;521;522;530;536;546
493;532;561;583;596;600
452;478;502;523;539;550
468;465;471;484;497;514
473;498;521;543;557;568
501;509;524;540;552;559
617;560;531;520;516;520
680;644;619;605;591;584
657;665;667;663;651;636
624;619;614;610;601;593
594;604;610;614;611;609
528;585;626;653;664;663
477;514;548;576;597;608
498;498;510;529;549;567
501;528;555;580;601;616
466;496;526;553;575;591
485;475;478;491;506;527
509;513;523;537;548;563
476;510;538;560;575;584
477;475;481;493;505;520
516;504;502;509;516;528
499;528;551;569;579;583
476;488;503;518;528;538
509;493;490;494;500;511
511;530;547;562;569;574
475;502;525;545;555;561
497;484;484;491;497;509
519;523;531;542;549;555
485;519;547;566;577;580
483;482;489;500;509;519
517;509;509;517;522;531
495;528;553;573;583;586
469;484;501;517;529;537
501;488;486;493;500;512
505;526;544;560;569;574
473;498;521;539;552;558
495;482;481;488;495;507
516;521;529;540;546;553
482;515;542;561;573;576
483;480;486;496;505;516
519;509;509;516;521;530
500;530;554;573;582;584
475;488;501;517;528;535
506;492;489;495;502;513
502;525;545;560;570;574
463;491;515;535;549;555
485;473;474;482;491;503
507;513;522;534;542;550
471;505;532;553;565;570
468;467;474;486;496;508
496;492;495;503;510;521
475;509;536;556;568;573
456;468;484;500;512;522
490;476;474;482;487;500
487;510;530;547;556;561
450;477;501;521;534;541
471;461;461;469;478;490
496;502;512;524;532;539
467;498;525;543;555;559
478;470;473;482;490;500
525;511;507;511;513;520
513;537;558;571;577;577
505;507;514;523;529;532
544;522;513;513;513;519
548;564;577;587;590;588
524;540;558;569;575;575
552;532;525;526;527;533
575;577;581;587;588;589
548;574;595;609;615;613
554;544;544;549;553;558
581;574;571;574;576;580
555;586;610;627;634;633
534;544;556;568;578;583
568;553;549;553;557;566
562;586;605;619;627;629
529;553;574;591;602;607
553;539;536;542;548;559
562;573;584;597;603;609
526;560;587;607;620;623
530;525;530;540;550;561
563;556;557;564;570;579
539;571;596;615;626;628
521;530;542;555;566;575
554;540;536;541;547;558
546;571;591;606;615;619
510;534;556;574;587;594
533;520;518;526;533;545
548;558;569;581;588;595
511;544;571;591;603;608
515;510;514;524;534;546
546;541;543;550;556;566
528;558;584;601;611;614
514;519;530;542;552;561
547;531;527;532;536;546
536;562;581;597;605;608
501;525;546;564;576;582
530;515;512;518;525;536
547;556;566;577;584;590
509;542;568;587;598;602
511;507;511;521;530;541
539;536;540;548;554;563
516;550;576;595;606;610
501;508;521;534;545;555
538;523;521;525;530;542
531;556;576;592;600;604
500;521;542;559;570;576
525;511;508;514;521;532
539;550;561;573;580;586
500;534;560;580;592;595
507;500;504;514;523;534
534;531;535;543;549;558
503;538;566;587;599;602
489;497;509;524;536;546
531;515;511;517;523;534
523;547;567;583;592;596
483;506;528;546;559;566
507;494;493;500;508;521
524;535;547;560;568;575
493;522;547;566;578;583
505;495;497;505;513;524
536;530;531;538;543;551
512;544;568;586;595;597
501;505;515;526;535;543
541;525;520;523;527;535
532;557;577;591;598;600
501;521;540;556;566;572
532;515;512;516;521;531
546;557;569;579;584;588
508;539;564;583;593;596
513;507;510;519;527;537
540;538;542;551;557;565
506;543;571;592;603;607
482;493;508;523;536;547
502;497;500;510;520;534
474;511;541;565;580;589
427;459;488;514;534;548
473;459;459;470;483;501
583;561;554;557;561;565
639;617;607;602;596;589
671;626;596;577;562;555
701;677;657;641;622;609
624;662;682;689;684;667
543;573;595;610;615;614
535;551;567;583;594;602
503;552;592;623;644;652
465;499;533;563;589;605
491;485;492;509;528;551
501;520;539;560;578;594
467;500;529;554;574;588
481;473;477;489;502;521
511;509;514;524;533;547
482;516;543;564;578;584
471;476;487;500;512;524
506;494;493;499;506;518
499;526;548;565;575;579
472;490;509;525;537;544
498;484;482;488;494;506
507;522;536;550;557;563
470;501;527;547;560;564
484;475;477;486;495;506
514;512;516;525;531;539
486;519;546;565;576;578
477;480;489;501;511;521
513;500;497;504;508;518
500;528;550;568;576;579
469;488;507;524;536;543
497;483;481;488;494;506
508;523;537;551;559;564
471;500;526;546;558;563
485;476;478;487;495;506
513;512;517;526;532;541
480;515;543;563;575;578
472;476;486;498;509;519
514;501;497;503;508;518
503;530;551;568;577;580
472;490;508;524;536;542
496;484;482;489;495;507
497;517;534;549;558;565
460;492;520;541;555;560
478;468;471;480;490;502
503;504;510;521;528;537
470;505;533;554;567;571
458;462;473;487;499;510
490;481;481;489;497;509
473;504;530;550;561;566
446;464;484;502;516;525
477;462;461;468;477;489
483;500;516;531;540;547
450;479;504;524;537;542
471;458;458;467;475;486
504;501;504;512;518;525
483;511;535;552;561;562
486;481;485;493;500;507
533;515;507;508;509;515
530;551;568;580;584;581
512;521;532;542;547;548
554;530;521;520;519;523
565;575;584;592;593;591
533;556;575;589;595;592
557;540;535;537;539;543
585;581;582;587;587;588
552;584;607;624;629;626
544;544;550;559;565;570
580;567;564;568;571;577
566;593;615;630;637;637
537;551;567;582;591;596
562;548;544;549;554;564
562;581;597;611;619;623
521;551;577;596;609;614
537;526;527;536;545;557
562;564;570;579;587;595
529;562;589;608;620;624
521;522;530;541;551;562
554;543;543;549;555;566
539;568;591;609;619;623
514;528;544;559;570;578
549;532;527;531;537;548
552;570;586;598;605;609
513;542;566;584;595;600
531;520;520;527;534;545
552;556;564;573;579;586
522;555;581;601;612;615
520;518;525;536;545;555
554;543;542;547;553;562
534;565;590;606;617;619
508;523;539;554;566;574
539;524;521;527;533;545
543;562;578;592;600;605
502;531;556;575;587;593
519;508;509;517;525;537
545;548;555;565;571;579
516;548;573;592;604;607
513;510;516;527;536;546
544;534;533;540;545;554
527;557;581;598;608;611
503;516;531;546;557;565
537;520;516;521;527;538
541;559;575;588;595;599
500;528;552;570;582;587
518;507;507;514;522;533
540;545;552;563;569;577
506;541;567;587;599;603
505;504;510;521;531;542
543;532;531;537;542;551
523;554;578;596;605;607
500;513;528;543;553;560
531;517;513;519;524;534
529;550;568;583;592;596
485;515;541;561;575;581
502;493;495;504;513;526
522;530;540;552;561;569
493;526;553;574;587;592
496;492;498;509;519;530
534;522;521;527;532;542
519;547;569;586;595;598
502;510;523;535;544;551
537;519;513;516;520;529
538;557;572;585;591;593
501;526;548;565;575;579
518;506;505;511;518;528
537;543;552;563;569;575
505;538;564;584;595;598
504;501;507;518;527;537
536;528;528;535;540;550
508;543;569;588;599;602
472;490;509;527;540;550
492;486;489;499;509;523
474;507;533;555;569;578
427;464;496;522;542;553
477;460;460;470;482;499
585;558;548;549;550;555
623;612;607;606;601;594
641;607;585;573;561;555
674;649;630;616;601;591
617;652;671;678;673;659
543;573;596;610;615;614
539;547;559;573;581;589
517;558;591;618;635;643
467;507;543;574;597;611
485;481;490;507;526;547
510;520;534;553;569;585
479;511;540;564;583;595
478;475;482;495;509;527
513;506;507;516;524;539
491;523;549;569;581;587
471;481;495;510;523;534
501;488;486;493;500;513
502;525;543;560;569;574
469;493;516;534;546;553
493;479;478;485;492;504
509;518;528;540;547;554
474;508;535;555;567;571
478;474;480;490;500;511
515;507;507;514;520;529
491;524;549;569;578;581
473;483;496;510;521;529
508;493;490;496;502;512
502;526;546;562;571;575
466;492;515;533;546;552
492;479;478;485;493;504
514;521;531;542;549;556
485;514;539;557;568;572
487;481;485;494;502;512
513;508;510;518;523;532
488;522;549;569;579;582
472;480;494;508;520;528
505;491;489;495;501;512
502;525;545;561;570;574
464;489;512;530;543;551
487;474;474;482;490;502
506;515;526;539;547;554
470;503;529;550;562;567
475;471;474;485;494;506
504;500;502;511;517;527
473;510;538;559;571;574
452;464;480;495;508;519
485;474;474;482;489;502
477;505;527;546;557;562
445;470;493;513;527;535
471;458;457;466;474;488
492;501;513;525;533;540
460;491;516;536;548;552
470;462;465;474;483;494
508;500;500;506;510;518
490;520;543;560;568;569
483;485;493;504;511;518
529;508;500;502;503;510
535;551;565;576;580;579
510;525;539;551;557;558
542;521;512;513;514;520
565;569;574;580;581;581
536;561;581;595;601;598
546;534;533;537;540;544
579;570;568;571;572;574
553;583;606;622;629;626
538;542;551;561;569;574
570;555;551;554;557;565
563;587;607;621;628;629
529;551;571;586;597;601
557;542;538;543;548;558
567;579;590;602;608;613
527;560;586;605;617;621
534;528;531;540;550;560
567;562;564;571;577;585
540;573;598;618;627;630
520;527;539;552;563;572
552;540;538;544;550;561
545;571;592;608;618;622
513;534;554;572;584;591
537;522;520;527;534;546
552;563;575;587;594;600
516;546;571;590;602;606
524;516;518;527;535;546
556;551;553;560;565;574
527;560;586;605;615;618
515;519;529;541;551;560
551;536;532;537;542;552
536;563;584;601;610;613
506;526;546;563;575;581
536;520;516;522;528;540
546;559;572;584;591;596
512;542;567;585;597;601
522;514;516;524;532;542
554;550;552;559;564;572
523;557;583;602;612;615
506;512;524;537;547;557
541;529;527;533;539;550
532;559;581;597;607;611
499;520;540;557;569;577
528;513;510;516;523;535
544;556;568;580;587;592
507;537;562;580;592;596
516;508;510;518;526;538
545;542;545;553;559;567
515;549;576;595;606;608
499;504;516;529;540;549
536;523;521;527;533;544
527;553;574;591;601;605
495;514;533;550;562;569
521;506;504;510;517;529
532;546;560;573;580;586
496;526;551;570;582;587
506;498;500;509;517;528
537;534;538;546;552;560
509;542;568;587;597;600
497;501;511;523;533;542
531;519;517;523;528;539
528;553;574;590;598;602
504;519;536;550;560;566
531;514;511;515;520;530
539;554;567;580;586;590
509;537;560;578;588;591
523;512;512;519;526;535
546;546;550;558;563;569
515;550;577;596;607;609
499;505;516;529;540;549
525;517;519;527;534;545
498;533;561;582;595;601
457;483;508;530;547;558
469;464;470;483;497;513
484;503;523;542;555;566
513;522;535;550;561;567
606;556;531;523;519;524
663;629;607;595;582;577
641;653;658;658;648;634
620;614;610;607;599;592
606;606;606;608;604;601
551;600;634;655;664;661
501;537;568;592;609;617
514;514;524;540;556;572
514;541;566;589;607;620
472;509;542;569;591;605
489;483;489;502;518;538
515;518;526;539;551;567
484;520;549;571;587;596
479;481;491;504;517;531
511;501;501;508;516;530
499;528;552;570;581;587
472;489;507;524;536;545
503;489;485;492;498;511
511;528;543;557;565;571
477;504;529;548;560;565
490;480;481;490;497;509
517;518;524;533;539;547
487;521;547;567;578;581
481;482;490;501;511;521
514;504;503;509;514;524
503;531;554;572;581;584
476;492;509;524;535;543
508;492;488;494;500;512
513;530;546;560;567;572
477;505;529;548;560;565
489;480;481;489;498;510
515;518;524;534;541;549
483;518;545;565;578;580
479;481;488;500;510;520
510;501;501;508;514;524
493;525;550;568;578;582
468;484;502;519;531;539
497;484;482;489;495;508
501;521;538;553;562;567
467;495;520;540;553;558
481;472;473;482;491;503
499;505;514;526;534;542
467;503;532;554;567;571
460;461;471;485;497;509
492;483;485;494;501;513
477;507;532;552;564;569
449;465;483;500;513;523
480;466;464;472;479;492
484;504;521;537;546;552
450;477;501;521;535;541
471;458;458;466;474;487
497;499;505;515;522;530
469;501;526;545;556;559
470;467;472;482;491;501
513;499;495;501;503;511
509;532;551;566;572;572
495;502;512;523;529;533
535;513;504;505;505;512
546;559;570;579;581;580
520;540;557;570;576;575
544;526;521;523;524;529
570;569;573;577;578;579
536;568;591;607;614;611
539;534;537;544;550;555
568;558;556;560;562;568
553;582;604;620;628;626
530;542;556;568;577;582
560;544;540;544;548;557
561;580;596;610;617;620
524;549;572;590;601;606
540;528;527;534;542;553
560;565;572;583;589;596
530;562;587;606;617;621
527;524;531;540;549;559
557;549;549;555;560;570
535;568;592;610;620;623
514;526;541;556;567;575
546;530;527;532;539;549
542;564;582;597;605;610
510;536;558;576;588;594
530;517;516;523;531;542
550;556;564;574;580;587
519;552;577;597;607;610
516;514;520;530;540;549
546;539;540;547;552;562
528;560;584;602;612;615
505;517;532;547;558;566
538;523;520;525;531;542
536;558;576;591;599;604
503;528;551;569;581;586
522;510;509;516;524;535
538;545;555;567;574;581
510;541;567;586;598;602
515;509;513;522;531;542
548;538;537;543;548;557
525;556;580;598;607;609
504;514;528;542;553;560
531;518;515;521;527;538
529;552;571;587;595;599
497;521;543;562;574;580
519;506;504;511;519;530
541;546;554;565;572;578
511;541;566;584;595;598
508;505;510;519;528;538
537;532;533;540;545;554
519;550;575;594;604;606
498;509;522;537;549;556
527;514;512;518;524;535
526;549;568;584;593;597
490;515;538;557;570;576
513;500;499;507;515;527
530;538;548;560;567;575
494;528;555;575;587;592
494;492;497;508;518;530
529;522;523;531;537;547
511;541;565;584;594;597
489;499;512;526;537;546
517;504;502;509;515;527
515;538;558;574;583;588
486;508;529;547;559;566
514;498;494;500;507;519
535;541;548;558;564;569
503;533;557;575;585;588
511;504;505;513;520;529
541;533;533;539;543;550
527;555;577;594;602;602
512;517;527;539;547;553
537;524;521;525;529;538
524;552;573;589;597;600
481;510;535;555;568;575
489;485;489;500;510;525
492;511;529;547;559;569
437;483;519;546;565;575
432;438;452;470;488;506
509;494;493;502;512;525
585;576;578;583;585;584
617;585;568;560;553;550
657;619;592;576;561;556
650;661;664;663;652;638
573;603;622;632;632;624
547;554;563;572;576;581
536;565;591;611;622;628
487;533;573;602;624;631
482;487;502;522;541;560
509;511;521;537;553;570
483;520;551;576;596;607
471;479;494;511;529;545
504;491;490;499;508;525
498;523;544;562;574;583
469;490;511;529;544;553
493;480;478;485;493;507
508;519;531;544;552;559
480;510;535;553;565;570
485;479;482;491;499;511
514;511;513;521;526;535
491;523;549;569;579;581
478;485;496;509;519;528
513;499;496;502;507;517
501;528;549;567;576;579
470;493;514;532;544;551
497;483;482;489;496;508
510;522;534;548;555;561
477;508;534;554;566;570
486;478;481;491;500;511
516;512;514;522;528;537
496;527;551;570;580;583
485;489;499;510;520;528
514;501;498;504;509;519
500;528;550;567;577;580
464;488;510;529;542;549
490;477;477;485;493;506
506;519;531;544;553;560
472;502;528;549;561;566
475;470;474;484;494;506
501;500;505;515;522;532
476;510;538;558;570;574
463;470;482;496;507;518
496;484;483;490;496;508
487;515;537;555;564;569
454;476;498;516;529;537
478;466;466;474;482;495
490;505;519;533;542;549
455;487;514;535;548;554
464;458;462;472;482;494
489;489;494;505;512;522
465;499;526;547;559;563
456;460;471;485;496;506
494;479;477;483;489;499
492;515;535;551;559;562
476;488;503;518;527;532
514;492;484;486;488;497
534;540;547;555;557;559
510;532;551;564;570;569
525;510;507;510;513;518
563;554;551;554;554;556
545;570;590;603;608;604
538;536;540;547;551;554
571;555;548;549;549;554
562;586;604;617;622;620
538;553;568;582;588;590
564;548;543;545;548;555
575;588;599;609;613;615
541;569;592;609;618;619
547;539;540;547;554;562
569;570;575;583;588;594
542;575;602;621;631;633
534;536;545;557;567;576
568;555;552;557;562;572
555;582;604;620;629;632
523;542;561;576;588;595
547;534;532;538;545;557
554;569;584;597;606;612
521;549;574;593;605;611
532;522;523;531;541;552
556;556;560;569;575;584
527;560;586;606;616;620
520;521;529;541;551;561
549;538;536;542;547;558
538;565;587;604;614;617
510;527;545;561;572;580
541;525;521;526;532;544
550;564;577;590;597;602
513;542;567;584;596;600
527;517;518;525;533;544
552;553;557;565;571;579
522;555;583;601;612;614
510;514;523;535;545;556
544;533;532;538;544;555
533;561;583;601;610;614
508;523;540;556;568;575
536;520;517;523;529;540
540;557;572;586;593;598
505;534;559;578;590;595
521;510;511;519;527;538
546;547;552;561;567;575
517;549;576;594;605;609
508;509;518;529;539;550
540;529;528;534;539;550
527;556;578;596;606;609
503;518;534;549;561;568
528;514;511;517;523;535
537;553;568;581;589;594
504;531;554;572;584;588
517;506;507;514;522;533
543;544;549;558;564;571
515;547;572;591;602;604
502;504;513;525;536;545
531;523;523;530;536;547
520;549;573;591;601;605
501;514;530;545;556;563
528;513;509;515;521;532
529;548;564;579;586;591
492;522;547;566;578;583
506;497;500;507;516;527
527;532;539;550;557;567
501;534;561;581;593;596
494;495;503;515;526;536
528;518;517;524;530;540
516;544;567;585;595;598
495;507;523;537;549;555
530;512;507;511;516;527
538;553;566;579;585;589
507;531;552;569;578;582
523;510;508;514;519;529
541;545;551;560;565;571
511;544;570;589;599;601
504;504;512;523;534;542
534;525;525;532;538;547
502;538;566;586;598;602
461;484;507;527;543;553
474;471;477;489;501;517
460;492;519;542;558;569
430;463;494;519;539;551
523;488;477;480;488;500
634;593;571;564;557;558
632;630;628;625;617;606
632;611;596;586;575;568
648;632;620;612;600;593
578;623;651;666;666;657
513;548;577;597;609;611
522;526;538;553;566;578
512;546;575;600;618;628
473;509;542;569;592;606
492;484;490;504;521;541
514;521;532;548;560;576
481;515;544;568;584;594
479;478;486;499;513;529
509;501;502;511;519;533
492;524;548;568;580;586
475;486;501;516;528;538
507;492;489;493;499;512
513;531;547;561;568;573
478;504;526;545;555;561
497;484;484;491;497;509
516;522;530;541;547;554
482;516;543;564;575;578
480;480;487;498;508;519
515;507;508;514;520;529
496;528;553;571;582;585
476;488;503;518;529;538
505;492;490;496;502;513
510;530;547;563;570;575
477;502;525;543;555;560
494;483;482;490;498;509
518;523;532;542;548;555
486;518;544;564;575;578
483;482;488;499;508;519
515;507;508;516;521;531
496;527;552;571;581;584
476;487;501;517;528;536
507;492;489;495;502;513
505;526;545;561;569;574
472;497;520;539;551;557
488;477;477;485;493;506
500;510;522;535;543;551
467;502;530;552;565;570
469;466;473;485;496;508
502;494;496;504;510;521
481;513;538;558;569;573
456;470;485;501;513;522
487;475;474;482;489;500
488;510;530;547;556;561
453;479;503;522;535;542
468;458;460;469;478;491
487;496;508;521;530;538
460;492;519;539;552;557
468;463;467;477;486;497
509;498;496;502;506;515
501;526;548;562;570;570
490;494;503;513;520;525
534;512;503;504;505;511
544;557;569;579;581;580
519;535;550;562;568;567
550;528;520;521;521;526
570;572;576;582;582;582
541;567;588;603;609;606
545;537;537;543;547;552
575;566;564;569;570;574
557;586;608;624;630;629
541;547;557;568;577;580
572;557;551;554;557;564
567;589;607;620;627;628
535;557;578;593;604;607
554;541;539;544;550;560
570;580;589;599;605;611
535;567;593;612;623;626
536;532;536;546;555;565
568;562;563;570;575;584
542;575;601;619;630;632
520;530;544;558;570;578
549;537;536;542;548;560
545;570;590;606;616;620
514;537;558;576;589;596
536;523;521;528;535;547
553;562;572;584;591;598
515;547;573;593;605;610
516;512;519;527;537;549
547;542;544;552;558;568
525;557;582;601;612;617
509;516;528;541;552;561
541;527;524;529;534;546
539;561;580;595;603;608
509;529;549;565;577;583
530;516;514;519;525;537
545;555;566;577;583;589
511;542;568;586;597;601
514;509;513;522;530;541
543;539;542;550;555;564
521;553;579;599;608;611
504;511;523;537;548;557
541;526;523;528;533;544
533;558;577;593;602;605
500;522;543;560;572;578
523;510;508;515;521;533
540;551;562;574;580;586
507;537;562;581;593;597
514;507;510;519;527;538
545;540;542;549;554;562
519;552;578;596;606;609
503;509;521;534;545;553
536;523;520;526;531;542
527;552;573;589;599;603
498;518;538;555;567;573
524;509;506;512;519;530
539;549;560;572;579;584
509;537;561;579;590;594
511;504;507;516;524;534
539;535;538;546;552;560
509;544;570;590;601;604
497;502;514;528;538;548
531;518;515;521;527;538
527;551;571;587;596;599
494;515;535;551;563;570
513;501;501;507;515;526
525;539;553;566;574;580
493;524;550;569;582;586
505;496;499;508;517;528
533;529;532;540;547;555
502;537;564;584;595;598
486;494;506;520;531;541
520;509;507;514;521;532
513;539;561;578;588;592
485;505;524;541;553;561
512;497;494;500;506;519
526;538;550;562;570;575
495;523;547;566;576;580
509;498;499;506;513;523
539;534;536;543;547;554
517;547;571;588;597;598
502;506;515;526;535;543
536;523;520;525;529;538
531;555;575;591;598;600
501;519;537;553;563;569
526;511;508;513;519;529
535;549;562;575;582;587
489;524;551;571;584;589
480;481;490;502;513;526
486;497;511;526;537;550
437;486;524;553;572;581
420;435;455;477;497;514
507;483;477;484;493;508
603;585;580;581;582;581
623;600;587;580;572;566
649;612;586;571;555;549
648;653;653;650;638;626
569;608;633;646;648;638
533;546;559;571;578;582
533;552;570;588;600;608
494;541;580;610;630;638
479;490;510;531;552;569
509;503;508;522;536;555
500;529;555;577;595;606
474;493;513;532;549;563
504;489;486;494;504;521
511;527;542;556;566;575
476;506;531;551;565;572
490;481;483;491;500;513
518;517;522;530;537;547
488;522;549;568;579;583
480;483;493;505;515;525
516;504;502;508;513;524
505;533;555;572;581;584
477;495;513;529;541;547
505;491;488;494;500;512
512;529;544;558;565;571
476;505;531;551;563;568
490;481;483;492;500;511
518;517;523;532;539;547
488;522;549;569;580;582
480;482;491;504;515;524
515;503;502;509;514;524
502;530;553;571;580;584
476;492;510;526;537;545
504;489;487;493;499;510
512;528;543;558;565;570
478;506;530;549;561;566
493;482;483;491;499;510
519;519;524;533;539;547
489;522;548;568;579;582
481;482;491;502;513;523
509;500;500;507;513;524
489;521;547;566;576;582
461;479;499;517;530;539
488;476;475;483;491;504
494;513;530;546;555;562
459;488;514;534;548;554
473;464;466;476;485;498
495;498;506;517;525;535
463;498;527;549;561;566
456;459;468;482;493;505
487;479;480;489;495;507
476;506;530;549;560;564
457;471;487;504;515;523
489;473;469;475;481;492
499;515;529;543;549;554
472;495;517;534;544;548
499;482;478;483;488;497
535;530;530;536;538;542
514;540;560;574;581;579
517;510;511;517;521;526
555;539;534;534;534;538
549;571;589;601;605;602
528;537;548;558;564;565
564;544;535;536;536;541
571;585;596;606;609;607
537;561;580;595;603;603
551;538;536;541;545;552
575;577;582;589;593;596
543;576;601;618;628;627
539;538;544;553;561;570
569;560;559;564;569;577
552;581;605;622;632;633
524;540;556;570;581;588
557;541;538;544;549;559
558;577;593;608;615;620
525;551;573;591;603;608
541;529;529;535;543;554
558;563;571;581;588;595
523;558;585;605;617;621
519;518;526;537;548;559
556;545;544;551;556;566
542;570;592;609;619;622
513;526;542;556;567;575
538;525;523;529;536;547
540;560;578;593;602;607
503;530;554;573;586;593
527;513;512;519;527;539
548;552;559;568;574;582
516;548;574;593;604;608
512;510;516;527;536;547
544;535;535;542;547;557
527;557;581;599;609;612
506;518;532;546;557;565
539;524;520;524;529;540
546;564;579;593;599;603
512;536;558;574;585;589
521;512;512;520;527;537
533;543;554;566;574;581
500;536;564;585;599;603
503;501;508;519;530;542
537;528;529;536;542;552
520;550;574;592;602;606
498;509;524;539;549;558
527;512;509;515;521;533
526;547;565;581;589;594
494;518;541;559;571;577
514;501;500;507;514;526
535;540;548;559;565;572
502;534;560;579;591;594
504;500;505;515;524;534
534;526;526;533;538;547
512;544;569;587;597;600
495;505;519;533;544;552
528;513;509;514;519;530
529;549;566;581;588;592
488;515;538;557;569;574
507;496;496;504;512;524
529;537;545;557;564;571
498;530;556;576;587;591
500;496;501;511;520;531
530;524;524;531;537;546
508;540;566;584;595;598
488;499;514;528;540;548
525;509;505;511;516;527
519;542;561;577;585;589
485;510;533;551;563;569
507;495;494;501;508;520
525;532;542;554;560;568
488;522;549;569;581;585
488;485;491;502;512;524
521;514;516;524;530;540
504;534;558;577;588;591
490;496;508;522;532;541
519;504;500;506;511;522
511;535;555;571;579;583
476;501;524;543;555;562
499;486;486;494;502;513
524;529;538;550;556;563
493;522;547;566;577;580
493;489;493;502;511;521
520;516;518;526;531;540
501;533;559;578;588;590
486;495;507;521;531;539
524;508;504;509;513;523
523;544;562;577;584;587
493;514;534;550;561;566
517;502;499;504;511;520
537;544;553;563;568;573
506;536;560;578;588;590
513;506;508;516;523;532
540;535;536;543;546;554
508;543;569;589;600;602
469;487;505;522;536;546
481;479;485;498;510;524
455;493;524;549;566;577
408;444;477;505;526;542
458;443;444;456;470;489
577;548;539;541;542;548
620;603;595;592;587;580
637;600;576;561;548;542
663;641;624;612;596;586
596;634;656;665;660;648
530;558;579;593;599;600
535;541;552;565;574;582
513;554;587;613;630;637
474;507;539;566;587;600
496;489;495;509;525;545
513;526;542;560;575;588
482;514;542;565;582;592
491;484;488;499;512;528
517;514;517;526;535;547
494;527;553;573;585;591
474;484;497;511;523;535
505;494;493;500;507;520
502;527;548;566;576;581
473;493;514;532;544;552
499;484;482;488;495;508
518;527;537;549;556;562
485;514;539;557;568;572
490;483;486;495;503;513
518;514;517;525;531;539
493;525;552;571;582;584
482;487;498;511;521;530
520;504;500;505;510;520
512;536;556;572;580;583
476;498;518;536;547;554
496;484;484;491;498;510
508;522;536;550;558;564
477;508;534;555;567;572
488;481;483;492;501;512
516;513;516;525;530;539
491;524;550;570;580;583
479;484;495;508;519;528
511;499;497;503;508;519
503;530;551;568;577;581
475;495;515;532;543;550
498;485;483;490;497;509
503;519;534;548;556;563
469;501;529;549;562;568
476;469;474;484;495;507
501;500;506;516;523;533
475;509;537;558;570;574
466;470;481;495;507;517
496;484;483;491;497;508
481;510;534;552;563;568
450;471;493;513;526;534
477;464;463;471;480;493
491;504;518;533;540;547
459;488;513;533;546;551
469;460;463;472;481;492
498;496;499;508;514;523
480;510;535;553;563;565
477;477;484;495;504;511
521;503;496;499;502;510
524;544;560;572;576;576
505;517;530;541;547;549
539;518;510;511;511;517
561;567;574;581;582;581
536;558;576;589;594;591
552;537;533;535;537;541
581;575;574;578;578;579
555;585;607;622;627;625
542;544;552;561;567;571
577;563;558;562;565;570
567;592;612;627;633;634
539;555;572;586;595;599
564;549;544;549;554;563
573;587;599;611;617;621
533;563;588;606;618;621
545;535;537;544;552;563
571;569;573;581;587;595
540;573;599;618;629;632
527;531;540;552;563;573
559;547;545;552;557;568
544;573;595;613;623;627
516;534;553;569;581;589
546;531;528;533;540;552
556;570;583;596;603;609
519;548;573;591;602;607
529;520;522;530;538;549
555;555;560;569;575;583
525;558;585;604;616;619
514;517;527;539;550;560
548;537;536;542;547;558
536;564;586;604;613;617
510;526;544;560;571;578
537;523;520;525;531;543
546;561;575;589;596;601
510;538;562;581;593;597
526;514;514;522;530;541
555;553;556;565;570;578
529;559;583;601;611;613
520;520;527;538;546;555
544;535;534;540;545;555
528;559;583;601;610;614
503;520;538;554;566;574
537;521;517;522;528;540
543;559;573;586;593;598
507;535;559;577;589;593
519;510;511;518;526;537
545;547;553;562;567;575
517;550;576;595;606;608
510;512;519;530;540;550
544;533;531;537;542;552
529;558;581;598;608;610
505;520;536;551;563;569
532;518;515;520;526;537
542;558;572;586;593;597
508;535;558;576;587;592
521;512;511;518;526;536
545;547;553;562;568;575
511;545;572;592;603;606
505;505;514;526;536;546
539;528;527;534;539;550
524;553;576;594;604;607
500;514;530;545;557;564
529;514;510;516;522;533
537;553;568;581;589;593
503;529;552;570;581;586
518;507;506;513;520;531
540;543;549;559;564;572
512;544;570;589;599;602
506;507;513;524;533;543
539;529;528;534;540;549
521;552;576;593;603;606
497;512;528;543;555;562
529;514;511;516;522;534
537;554;569;583;590;594
504;530;552;570;581;585
518;507;507;514;521;532
538;543;550;560;566;574
505;539;566;586;599;601
502;502;509;521;531;541
535;526;526;532;538;548
520;550;574;592;601;604
497;509;525;540;551;559
527;512;508;514;520;531
531;549;565;579;587;591
498;523;546;564;575;580
510;499;500;507;515;526
527;534;543;554;561;569
499;531;558;578;590;594
498;496;503;514;524;535
532;522;521;528;532;542
515;545;568;586;595;598
495;506;521;535;545;553
529;512;508;512;517;528
533;552;567;580;587;591
502;527;548;565;575;579
523;509;507;513;518;528
547;550;556;565;569;574
516;548;572;590;600;601
512;511;516;526;534;543
546;537;536;542;546;555
528;558;582;599;608;611
504;516;532;546;556;563
518;509;510;518;525;537
495;528;553;573;585;592
444;483;516;542;560;571
445;446;456;474;490;509
465;478;495;514;529;545
506;517;533;550;563;569
602;553;530;522;520;524
667;621;591;575;560;556
650;659;661;658;646;631
607;613;616;616;610;601
585;586;587;589;586;587
549;591;620;640;648;647
498;539;574;601;619;625
503;504;515;531;548;565
516;531;550;569;586;600
488;524;556;582;601;612
488;487;496;511;527;544
518;512;515;525;535;551
500;533;558;579;592;600
480;491;506;522;535;547
513;499;496;503;511;523
513;535;553;569;578;584
480;505;528;546;558;565
505;491;490;496;503;515
524;530;539;550;556;563
486;520;547;568;579;583
486;484;491;502;511;522
520;513;513;521;527;537
500;532;557;576;586;589
481;491;505;519;531;539
514;499;496;502;508;519
513;534;553;568;576;581
479;504;525;543;555;561
500;487;486;493;500;512
521;527;537;548;554;561
487;519;545;564;576;579
489;485;490;500;509;519
519;512;514;521;527;536
497;529;555;575;584;587
479;489;503;517;528;537
513;499;496;502;507;518
509;533;552;568;576;580
476;501;523;541;553;559
496;484;484;491;499;511
513;523;534;546;553;560
480;512;539;560;572;576
482;478;484;495;504;515
506;503;507;516;523;533
483;517;545;565;577;581
465;476;490;505;518;528
494;483;483;490;497;509
487;512;534;552;564;569
454;479;502;522;536;544
477;465;464;473;482;495
494;504;515;528;537;545
461;493;519;540;553;558
466;461;466;476;486;498
495;490;492;501;507;517
477;508;533;552;563;566
466;472;483;496;506;515
507;489;484;488;492;501
511;530;545;559;565;567
492;507;523;536;544;547
527;506;497;499;500;507
553;555;559;565;566;566
528;552;571;585;590;587
539;527;525;529;531;535
575;564;561;563;562;564
558;584;605;618;623;619
546;548;555;564;569;571
580;563;556;558;558;563
576;597;614;626;631;629
544;564;582;596;605;607
568;553;548;553;556;564
580;591;601;611;615;619
547;576;601;618;628;630
552;544;546;554;562;571
575;571;574;581;586;594
548;582;608;626;637;640
531;538;550;563;574;584
565;551;548;553;559;571
559;582;602;617;626;630
523;546;566;582;594;601
545;531;530;536;543;555
556;569;580;593;601;608
524;554;579;598;611;616
529;523;526;534;543;555
557;554;557;564;570;580
534;567;592;611;621;624
516;523;535;548;558;568
547;535;533;539;545;556
538;565;586;603;613;617
508;530;550;567;580;587
533;519;518;523;530;543
543;557;569;582;589;596
510;541;567;586;598;603
517;511;514;523;532;543
545;542;545;554;560;569
518;552;579;598;609;612
507;511;522;535;546;556
539;526;523;529;535;547
530;556;577;593;603;608
500;520;540;557;569;576
529;513;510;516;522;534
544;555;566;578;584;589
509;538;562;580;591;595
516;508;510;518;526;537
542;539;543;551;556;565
516;549;575;594;605;607
504;508;519;531;542;551
538;525;522;528;533;543
530;556;576;593;602;605
500;520;539;555;567;573
529;513;510;516;523;533
538;552;565;577;584;590
503;533;559;578;589;593
511;504;506;515;524;535
539;537;541;549;555;564
514;547;573;592;602;605
501;505;516;528;539;548
532;521;520;526;531;542
523;550;572;589;599;602
495;514;533;550;562;569
522;507;504;510;517;529
533;546;559;572;579;585
499;528;552;572;583;587
510;501;502;510;518;529
538;535;539;547;552;560
510;543;569;588;598;601
498;502;511;524;534;543
533;520;518;524;529;539
524;550;571;588;596;600
494;512;531;548;558;566
525;508;505;510;516;527
536;549;562;574;581;585
496;528;552;571;583;586
508;500;502;510;519;529
538;537;541;549;555;562
510;543;569;588;599;601
499;502;512;524;534;543
533;522;520;526;531;541
520;548;571;589;598;601
491;510;528;545;557;564
522;507;503;509;516;527
533;547;563;574;581;586
497;526;550;569;580;585
502;496;498;508;515;527
527;528;534;544;551;560
501;534;561;581;593;596
493;495;503;516;527;538
525;514;512;519;524;535
510;539;562;580;590;594
481;499;518;535;547;555
510;495;494;500;507;519
521;536;551;565;572;578
490;516;540;559;570;575
507;494;494;501;508;519
531;531;535;543;548;556
505;537;562;580;590;592
503;502;509;519;527;535
541;527;523;527;531;539
528;555;576;591;599;600
503;518;534;548;558;563
532;517;512;517;521;531
538;555;569;582;588;591
502;531;555;573;584;588
516;506;507;515;522;532
540;541;547;557;563;570
500;537;566;587;599;602
473;484;498;514;527;539
487;489;497;509;520;535
452;495;529;556;573;583
413;441;470;496;517;532
484;462;457;467;478;496
598;572;562;563;564;566
629;609;600;593;587;580
648;610;584;567;553;547
662;651;641;631;617;607
583;626;652;664;662;650
529;551;570;585;591;593
535;545;559;574;584;593
505;550;586;615;634;641
475;500;527;552;574;588
500;493;497;511;527;546
506;528;548;568;584;597
475;503;530;552;569;581
492;482;483;494;505;521
513;517;525;536;545;557
486;519;546;566;579;585
484;483;490;502;512;525
513;505;505;511;517;529
499;529;553;571;581;585
475;490;507;522;534;542
505;491;488;494;500;512
510;529;546;560;568;573
478;504;528;546;558;563
495;483;484;491;498;510
517;520;527;537;544;551
488;520;546;566;577;580
484;483;490;501;511;521
517;507;507;513;519;528
499;529;553;571;581;584
476;490;507;521;532;540
504;490;488;494;500;511
508;528;545;560;568;572
476;502;525;544;556;561
492;481;481;489;497;508
514;519;526;537;544;551
480;516;542;563;574;578
478;478;485;497;507;518
509;502;502;510;516;526
492;524;548;567;577;581
467;482;499;515;527;535
495;483;482;489;495;507
496;518;537;553;562;567
462;489;514;535;547;554
478;468;469;478;487;500
498;504;513;526;534;542
465;500;528;549;562;567
459;459;468;481;492;505
492;484;486;495;502;513
473;504;530;550;562;567
450;463;480;497;509;519
482;468;466;473;480;492
485;505;523;539;548;553
454;479;501;520;533;540
473;461;460;468;476;487
497;501;509;520;526;533
473;502;527;546;556;559
482;474;477;485;493;501
527;511;506;509;512;518
517;541;560;574;579;577
505;510;519;528;534;536
544;523;514;515;514;519
553;567;579;589;591;589
528;546;563;576;581;580
551;533;528;529;531;536
574;576;580;586;588;588
544;573;596;611;618;616
547;540;542;549;555;560
577;568;566;569;572;577
559;588;610;626;633;633
539;548;560;573;581;586
569;553;548;552;556;565
568;588;605;618;626;627
533;557;578;595;606;610
553;540;538;543;550;560
570;577;585;595;601;607
532;566;592;611;623;626
531;528;534;545;554;565
561;554;555;562;568;578
540;571;596;615;625;629
521;530;544;558;569;578
551;536;533;538;544;557
548;570;588;603;612;617
511;537;559;577;590;596
529;519;518;525;534;545
549;557;567;578;585;592
516;549;575;595;606;610
518;514;519;529;538;549
550;543;544;550;556;565
528;560;585;603;613;616
506;517;531;545;556;565
538;525;522;529;534;545
537;560;579;594;603;607
505;528;550;568;580;586
527;514;512;519;526;537
544;551;561;572;579;586
511;542;568;587;599;602
510;506;511;521;530;541
541;535;536;544;550;559
524;553;577;596;606;609
502;511;524;538;548;557
535;522;517;523;528;539
532;555;574;589;597;601
504;525;545;562;573;579
526;511;509;515;521;532
539;548;559;570;576;582
510;540;565;584;595;598
510;506;510;519;528;538
538;534;536;544;549;558
518;550;575;594;604;607
502;510;522;536;547;555
534;520;517;523;528;539
528;553;573;588;597;601
498;520;541;559;571;576
522;508;507;512;519;530
537;546;557;569;575;581
502;534;560;580;591;595
507;502;505;515;525;535
533;530;533;541;547;556
510;543;569;589;600;604
493;501;514;528;539;549
528;513;511;517;522;534
525;547;566;583;591;596
496;516;535;552;564;571
519;505;502;507;514;525
535;544;555;566;572;578
503;533;558;577;587;590
507;501;504;513;521;531
536;531;533;541;547;555
514;546;570;589;599;602
497;504;516;529;539;548
528;516;513;519;525;535
523;548;568;585;593;596
493;514;535;552;563;569
517;503;501;508;514;525
533;543;554;566;573;579
499;530;555;574;586;589
504;498;501;510;519;530
536;531;533;541;546;555
512;544;569;588;598;601
497;503;515;527;538;546
528;516;514;519;525;535
519;545;567;583;592;596
489;510;530;548;561;567
519;503;499;505;512;524
530;541;552;565;571;578
490;522;548;569;581;585
498;491;494;504;514;526
530;526;528;536;543;551
507;538;563;581;592;595
485;493;505;519;530;539
516;505;504;511;517;528
511;537;558;575;585;590
486;505;523;540;552;559
510;495;493;498;505;517
524;536;548;560;567;572
488;520;545;564;575;579
500;492;494;502;510;521
533;528;531;538;542;550
510;541;565;583;592;594
501;504;513;526;533;541
536;521;517;522;525;534
531;555;574;589;596;598
504;521;539;554;563;568
527;513;510;514;519;529
539;552;564;576;582;586
505;535;560;578;589;592
497;495;500;511;520;531
503;512;522;536;545;556
460;504;539;566;583;590
425;444;466;488;507;523
445;446;455;471;487;506
490;505;523;542;555;564
569;542;535;537;540;543
647;589;554;537;524;523
663;651;638;628;614;602
620;638;647;648;639;625
579;582;584;585;581;578
560;580;596;607;610;612
512;564;604;631;646;648
487;505;528;551;569;582
514;511;519;535;550;567
499;533;562;587;606;617
469;492;516;538;558;573
502;489;488;497;509;528
512;527;542;557;568;579
478;508;534;554;568;577
491;482;484;493;503;517
519;518;522;531;538;548
493;525;551;571;582;586
478;483;493;506;517;528
512;500;499;506;512;523
506;533;553;570;580;583
479;495;513;529;541;548
505;490;487;494;500;511
517;531;544;557;564;569
483;511;535;553;566;569
494;484;486;494;502;512
520;520;525;533;539;547
492;525;551;570;581;584
487;488;496;508;517;527
518;507;505;511;515;526
504;533;556;573;583;586
476;494;513;529;541;548
503;490;488;494;501;513
511;528;543;557;565;571
478;507;532;551;563;568
489;480;482;491;500;511
513;515;521;531;538;546
485;519;546;566;578;581
477;480;489;502;512;523
509;499;498;505;511;522
495;525;548;567;577;580
468;486;505;521;533;541
495;482;480;487;494;506
499;517;533;549;557;563
459;490;517;538;552;558
472;464;467;477;488;500
497;499;506;518;526;535
470;503;530;551;563;568
462;464;473;486;497;508
489;481;482;490;497;508
475;506;531;550;561;567
450;467;486;503;516;524
481;466;464;471;478;491
490;507;521;536;544;550
459;486;509;528;540;545
483;469;469;475;481;492
518;514;517;524;527;533
500;527;548;563;571;570
503;497;500;507;512;517
544;527;521;523;522;527
537;561;578;591;594;592
521;529;540;551;556;557
555;535;527;527;528;533
567;579;589;598;600;599
536;559;578;592;599;598
555;540;536;540;543;548
580;579;582;588;590;593
549;579;603;620;627;626
542;541;546;556;563;569
574;562;561;565;569;576
560;588;609;625;633;634
536;548;563;576;586;592
564;548;544;548;553;563
563;582;598;611;619;622
529;556;579;597;608;613
544;532;532;539;547;558
564;568;574;584;590;598
531;565;591;610;622;626
526;526;534;544;554;565
555;547;547;554;560;570
535;567;592;610;621;625
510;526;542;558;570;579
540;526;524;530;537;549
545;563;580;594;603;608
510;537;561;579;591;596
525;514;515;522;530;542
547;551;559;569;576;583
521;552;577;596;608;611
519;516;522;532;541;552
546;538;538;544;549;559
530;561;585;602;613;615
505;518;534;549;561;568
538;523;519;524;530;541
545;562;578;591;598;602
510;535;557;574;585;590
527;514;513;521;527;538
549;553;560;570;575;582
515;548;574;593;604;607
510;509;516;527;537;547
547;536;535;542;547;556
530;559;582;599;609;612
503;516;531;546;557;565
535;520;517;522;528;540
538;558;574;588;596;601
504;530;552;570;582;587
520;509;509;517;523;535
541;546;555;566;572;579
511;544;570;588;600;603
510;508;514;524;533;543
538;531;532;539;544;554
518;550;576;594;604;608
497;509;525;540;551;560
529;514;511;517;523;535
533;552;569;584;592;596
501;525;547;564;576;581
518;505;504;511;518;529
536;542;551;562;568;575
504;536;563;582;594;597
505;502;508;518;527;537
538;530;529;535;541;550
521;551;574;592;602;604
500;510;524;537;548;556
530;516;512;517;523;533
528;550;568;583;591;595
495;520;542;560;572;578
518;504;502;509;516;527
536;543;551;562;568;575
504;537;562;581;593;596
504;501;506;516;526;536
533;527;528;535;541;550
513;545;571;589;600;603
491;503;518;532;544;552
524;510;508;514;520;531
527;547;565;580;589;593
492;517;539;556;568;574
513;500;499;506;513;524
535;541;550;561;567;574
503;534;560;579;590;593
502;499;504;514;523;533
532;525;526;534;539;548
508;541;567;586;597;600
491;500;514;528;540;548
523;509;505;511;517;528
521;544;561;577;585;590
486;511;533;551;563;569
509;495;494;501;508;520
527;535;544;556;562;569
493;525;551;571;582;586
490;488;494;505;515;525
520;515;517;526;532;542
500;532;558;577;588;593
484;493;506;520;531;540
518;503;500;506;511;523
515;538;557;572;580;584
486;508;529;546;557;563
512;497;494;500;507;516
534;540;548;559;564;569
504;533;557;575;585;587
508;502;505;513;520;529
540;532;532;539;543;550
519;550;574;592;600;601
499;508;520;533;543;550
530;516;514;520;524;534
527;550;569;585;593;596
483;509;533;552;565;572
488;482;486;497;507;521
486;506;525;543;556;566
429;475;512;541;560;571
427;432;446;465;483;501
510;492;489;497;507;520
591;579;578;582;583;581
625;590;570;560;552;548
657;620;593;577;561;555
640;655;660;659;649;636
563;596;617;628;628;621
543;550;559;568;573;578
533;562;588;608;620;625
484;531;570;599;620;628
483;488;502;521;540;557
511;512;522;537;552;569
490;525;555;579;597;607
474;483;498;515;531;546
510;497;495;503;512;528
503;528;549;567;579;586
472;495;516;534;548;557
496;483;482;489;497;510
511;522;535;547;555;563
478;509;535;555;567;573
486;479;483;492;500;512
515;510;513;521;527;536
489;522;549;568;579;582
478;483;494;508;518;527
511;497;494;500;505;516
506;530;550;566;576;578
476;496;516;533;545;551
499;485;483;491;496;508
515;526;538;550;557;562
482;512;537;557;568;572
486;481;483;493;502;512
515;512;515;524;530;538
491;524;551;570;581;583
481;486;497;509;520;528
511;498;497;503;508;518
505;530;551;568;577;581
474;495;517;533;545;551
499;485;484;490;497;509
513;525;538;551;558;564
478;509;536;555;567;571
485;479;483;492;501;512
514;511;515;524;530;539
484;519;547;567;579;582
470;476;488;503;514;525
502;490;489;496;503;515
494;520;542;560;570;575
459;481;502;521;534;542
482;470;469;478;486;499
494;508;522;538;546;553
458;490;516;537;552;557
466;460;464;474;484;497
495;493;497;507;514;524
467;501;528;549;561;565
455;461;474;486;497;508
493;480;478;484;490;501
485;511;533;550;559;563
465;481;499;515;525;532
501;482;476;480;484;495
524;531;539;550;552;555
501;524;543;557;564;564
521;505;502;504;507;513
559;549;546;549;548;550
541;567;586;599;603;600
536;533;538;543;547;549
574;556;548;549;548;552
566;589;606;619;622;619
540;555;570;582;589;590
569;550;544;546;549;555
582;592;602;612;615;616
545;573;595;611;620;621
556;545;545;551;557;565
581;579;581;588;592;598
551;584;609;627;637;639
539;542;551;562;571;580
569;558;555;561;566;576
555;583;605;623;632;635
524;543;562;578;590;598
550;536;533;539;547;558
557;573;587;600;608;615
522;552;577;595;608;613
529;522;524;533;542;554
555;555;560;570;577;586
524;559;586;606;618;622
515;518;528;540;551;562
550;538;536;542;548;559
536;565;587;605;614;618
508;526;544;560;572;581
535;520;518;524;530;542
545;560;574;587;595;601
509;538;562;582;593;598
522;513;514;521;529;541
549;548;553;561;567;575
518;552;578;597;608;611
507;510;519;531;541;551
542;530;529;535;540;551
529;557;579;597;606;610
503;519;536;552;563;571
534;517;513;518;524;536
541;556;570;583;590;595
506;534;557;576;587;592
520;509;509;517;524;535
543;544;549;558;564;571
514;547;573;593;605;607
508;509;518;528;538;548
544;532;530;535;540;550
528;558;580;597;606;609
501;518;535;551;562;570
532;517;513;518;524;535
538;555;570;583;591;595
503;531;555;574;585;590
515;506;507;515;522;534
540;542;548;558;564;572
511;545;571;591;602;605
504;505;513;525;535;546
540;528;527;533;538;548
524;553;577;593;603;606
498;513;531;545;557;564
527;511;508;514;520;532
532;549;565;579;587;592
497;524;548;567;579;584
513;502;502;509;517;529
539;540;545;554;560;568
506;540;566;585;596;599
500;500;508;519;529;539
534;524;522;528;533;544
519;548;571;589;599;601
494;508;525;540;551;559
525;509;506;511;517;528
528;547;563;577;585;589
496;523;546;564;576;580
510;500;500;508;515;526
532;536;543;553;559;567
503;536;563;583;594;597
499;498;505;517;527;537
532;523;522;528;534;543
517;547;570;588;598;601
493;507;523;538;549;557
525;509;505;511;516;527
529;547;563;577;585;589
494;520;543;561;573;578
511;499;498;506;513;524
533;536;543;553;559;566
501;535;561;580;592;595
496;495;502;513;523;534
526;518;518;526;531;541
508;539;564;583;593;596
486;500;516;531;543;551
521;504;500;506;512;523
523;542;558;572;580;585
484;511;535;554;566;572
497;488;489;497;505;518
521;526;534;545;552;560
492;525;552;571;583;587
490;488;495;506;515;526
526;516;515;522;527;536
508;539;562;580;590;592
488;500;514;529;539;547
525;508;503;507;512;522
531;548;564;576;583;587
499;523;544;560;571;574
517;504;502;508;514;524
539;543;550;560;564;570
507;540;566;584;594;596
508;504;509;519;528;536
537;528;528;535;539;549
506;541;569;588;599;601
467;487;508;526;540;551
482;477;482;494;504;520
459;494;522;546;562;573
410;449;483;511;533;547
457;443;444;457;471;489
586;551;537;537;538;544
633;615;606;602;595;588
643;608;585;570;557;550
672;647;627;613;596;585
608;645;666;674;668;654
529;564;589;605;611;610
531;539;551;565;574;583
514;553;586;612;629;636
475;511;545;574;596;608
494;488;495;509;527;547
511;522;536;553;568;584
478;514;544;568;586;597
480;478;486;499;513;530
513;506;508;517;525;540
494;526;551;571;583;589
473;485;499;515;527;538
509;493;490;496;502;515
507;528;547;562;571;577
473;497;520;538;551;558
497;483;481;488;495;507
515;522;531;542;550;556
479;513;540;560;572;575
483;479;484;494;504;515
516;508;509;515;521;531
491;524;550;569;579;583
474;484;498;512;523;532
508;492;489;495;501;512
506;528;547;562;571;575
473;497;520;538;549;555
497;483;483;489;495;506
516;524;533;544;550;557
481;514;541;561;572;575
482;479;485;495;504;515
514;509;510;518;524;532
493;526;551;571;582;584
477;487;499;513;524;532
508;494;492;498;504;514
505;528;548;564;574;577
469;494;517;536;548;555
489;478;478;486;494;506
507;516;527;540;547;555
471;504;532;553;566;570
475;470;476;487;497;509
503;498;501;510;516;527
479;512;540;560;571;575
457;468;483;499;511;521
488;475;475;483;490;502
485;509;530;548;558;563
450;474;497;517;531;538
473;460;460;469;477;490
490;500;511;524;532;540
458;490;516;537;549;554
462;458;462;473;482;494
498;492;493;500;506;515
480;510;535;553;563;565
471;476;486;498;507;514
515;495;488;491;494;502
521;538;553;565;570;570
499;514;530;543;549;551
537;515;505;506;506;512
563;564;568;573;574;573
533;558;578;591;597;593
546;533;531;534;537;540
581;570;567;570;568;570
560;587;608;622;627;624
544;547;556;565;571;575
579;561;555;557;559;565
573;595;612;626;631;631
539;560;578;593;603;606
566;549;545;549;554;563
579;588;597;607;613;617
541;572;597;615;626;628
544;538;541;549;558;567
572;568;570;577;582;590
544;577;604;622;633;636
528;535;547;560;571;580
561;548;546;550;556;567
552;578;599;615;624;628
519;541;562;579;591;598
543;529;527;534;541;553
557;568;580;592;600;606
520;552;578;597;610;614
525;519;523;532;541;553
553;550;553;561;568;577
525;559;586;606;617;621
509;517;529;542;553;564
545;531;529;535;541;552
536;562;583;600;609;613
503;524;544;562;574;582
529;514;512;518;526;538
544;555;566;578;586;592
507;538;564;583;595;599
516;507;510;519;528;539
543;540;543;551;557;565
516;549;575;595;606;609
503;508;519;532;543;553
541;526;522;527;532;543
535;559;579;594;602;606
502;522;541;557;568;574
527;513;511;516;522;533
541;553;565;578;584;589
504;535;561;580;592;595
512;505;508;516;525;536
541;539;542;550;556;565
512;547;573;592;603;607
499;505;516;529;540;549
535;522;519;525;531;541
525;552;573;590;599;603
495;515;534;551;563;570
526;510;507;512;518;530
538;550;562;575;581;587
499;530;556;575;586;591
511;502;504;512;520;531
538;535;539;548;553;561
507;541;568;588;599;602
495;500;511;524;534;545
534;520;516;522;528;538
525;550;571;588;596;600
496;513;532;548;559;566
524;508;504;510;516;527
535;548;560;573;579;584
501;530;554;573;583;587
512;502;503;511;518;529
539;537;541;549;554;561
508;543;570;589;600;602
498;502;512;524;535;544
535;522;519;525;530;540
523;551;573;589;598;601
494;512;531;547;559;565
522;507;504;510;516;528
532;547;560;573;580;585
494;525;550;569;581;586
504;496;498;507;516;527
531;531;536;545;552;560
505;538;564;584;595;598
497;500;508;520;530;540
533;519;516;522;527;537
521;548;569;586;595;598
493;510;527;543;554;561
518;504;502;507;513;524
526;542;556;570;577;582
490;520;545;564;576;581
503;493;495;503;511;523
529;529;534;543;549;558
497;531;558;578;590;593
485;489;499;512;523;533
520;509;508;515;521;532
509;537;561;577;588;592
483;500;518;533;545;553
513;499;495;500;506;518
526;540;553;566;573;577
494;521;544;562;573;576
509;499;497;504;511;520
537;536;540;549;552;560
514;544;569;586;595;596
513;510;516;525;533;540
549;534;530;534;536;544
535;563;584;599;606;606
504;521;538;553;563;568
533;518;515;520;525;535
534;552;568;582;590;594
483;517;546;567;581;587
478;477;485;498;511;525
487;499;514;530;543;556
435;483;520;549;569;579
412;427;447;469;490;509
487;470;468;478;489;506
588;572;569;573;575;576
639;602;582;571;562;557
679;631;597;576;558;549
677;678;673;665;649;634
583;622;645;655;652;640
539;555;569;580;585;588
534;560;583;603;615;621
486;538;581;613;635;643
477;488;509;531;552;571
511;506;512;527;543;562
494;527;556;580;599;611
467;485;505;526;544;559
500;486;485;493;504;522
506;524;541;557;567;577
472;500;525;544;558;566
492;480;480;488;496;510
517;519;525;535;541;549
483;517;544;564;576;579
478;478;486;498;508;519
515;503;502;509;515;525
499;528;552;570;580;583
474;488;504;520;531;539
507;491;487;493;500;510
512;529;545;559;567;571
476;504;527;545;557;562
498;485;485;491;498;509
522;524;530;540;545;552
491;524;549;569;579;581
486;485;492;503;512;522
516;508;508;515;520;529
496;529;554;573;583;586
472;487;504;521;533;541
506;491;488;495;501;512
511;530;547;561;569;574
478;504;528;546;558;563
493;482;482;490;498;509
512;518;526;537;544;552
478;513;541;562;574;578
475;475;483;495;506;517
510;501;501;508;515;525
492;523;548;567;577;581
464;479;496;512;524;533
494;481;479;486;493;505
495;516;534;551;560;565
457;485;511;531;544;551
474;463;465;474;483;496
494;500;510;522;530;539
459;494;523;545;558;563
457;457;465;478;489;501
489;482;483;491;498;509
472;503;528;548;560;564
452;464;480;495;507;516
485;469;466;473;479;491
489;509;526;541;549;554
461;485;507;524;535;540
489;474;470;476;481;491
524;522;526;533;536;541
503;529;550;564;571;570
513;503;503;508;512;517
556;540;533;534;533;536
544;569;587;599;603;599
530;535;544;552;557;558
567;547;538;538;537;542
574;589;601;611;613;610
539;561;580;594;601;600
562;545;541;544;547;553
583;586;591;598;601;604
546;578;602;619;628;628
544;540;545;553;561;569
577;567;566;572;576;583
556;586;610;627;636;637
533;544;557;570;581;588
565;550;545;550;555;565
562;583;601;615;623;627
526;551;573;591;603;609
545;532;531;537;544;556
563;570;579;590;596;603
527;561;588;607;619;623
526;524;529;540;550;560
556;550;551;558;564;574
535;567;593;611;623;625
514;525;539;553;565;574
548;533;530;536;541;552
546;567;586;601;609;614
508;534;557;576;587;593
530;517;516;523;531;543
549;557;566;577;584;591
511;545;572;592;604;608
515;511;516;527;536;547
549;541;541;548;554;563
529;560;584;602;612;615
509;518;530;544;555;563
542;526;522;528;533;544
544;564;581;595;603;607
510;533;553;570;581;586
530;516;514;520;526;537
548;556;565;576;582;588
512;544;571;590;601;604
511;507;513;523;532;543
543;536;538;546;551;560
522;554;579;598;608;611
500;511;524;538;550;558
535;521;518;523;529;540
530;554;573;589;598;602
499;522;544;561;573;579
525;510;507;513;520;531
543;551;560;571;577;584
507;540;565;584;595;599
509;505;510;519;528;538
540;534;536;544;549;558
516;549;575;594;605;608
502;509;522;535;546;554
536;521;517;522;528;538
529;552;572;589;596;600
493;517;539;557;569;576
513;500;500;507;515;527
528;539;551;563;571;578
499;529;555;574;587;591
513;503;505;513;521;532
547;537;536;542;546;554
521;553;577;594;603;604
500;508;521;533;543;551
532;519;516;522;527;537
526;551;571;587;596;599
498;519;539;556;568;574
517;504;502;509;516;528
527;540;553;565;573;580
492;525;553;573;586;590
497;493;498;508;518;529
531;526;528;536;542;552
513;544;568;587;597;600
506;509;518;529;538;546
542;525;520;523;526;535
529;555;574;590;597;599
495;518;540;558;568;573
525;509;506;512;518;529
540;550;561;572;578;584
495;529;557;577;589;593
494;491;497;509;519;531
519;518;524;534;542;553
500;533;560;581;593;597
490;494;505;519;530;541
527;511;507;512;518;529
519;543;563;579;587;591
491;510;530;546;557;563
523;505;501;505;510;521
540;548;558;568;574;578
502;532;557;575;585;588
511;502;504;512;520;530
540;536;539;545;550;557
514;547;573;592;602;603
499;506;516;529;539;547
534;521;518;523;528;538
528;553;573;590;598;601
493;515;535;553;564;570
508;498;498;506;514;526
508;528;545;561;571;578
455;497;530;555;572;580
448;453;465;481;496;513
478;482;491;506;519;534
520;533;549;565;575;580
598;559;541;536;535;537
658;610;580;565;551;548
651;657;658;655;644;630
611;622;630;631;626;616
591;587;586;587;584;583
558;592;617;634;640;640
495;545;587;615;633;638
490;497;513;533;552;568
515;521;535;553;569;586
485;524;557;584;605;617
471;479;494;513;532;549
508;496;496;506;517;535
499;527;550;569;582;591
470;490;510;528;543;554
499;485;482;489;497;511
510;525;538;552;560;567
472;504;530;550;563;569
483;476;479;488;497;510
514;512;516;525;531;540
489;522;548;567;578;581
480;483;492;504;514;524
518;505;501;506;510;520
506;533;554;571;579;582
474;494;513;530;542;548
501;486;484;491;497;509
511;526;540;554;561;567
475;505;532;551;563;568
487;479;480;489;498;509
519;516;519;528;534;542
492;524;550;569;580;582
481;484;493;505;515;524
516;503;501;506;511;521
501;529;552;571;579;582
469;489;510;526;539;546
500;485;483;489;496;508
511;525;539;553;561;566
473;503;529;549;561;566
483;476;478;487;496;508
511;511;517;526;532;541
483;517;545;565;576;579
472;476;486;499;510;520
504;494;493;500;507;518
490;520;544;563;573;577
458;479;499;517;530;538
487;474;472;480;488;500
494;512;528;543;552;559
454;486;514;535;549;554
467;459;463;473;483;496
491;492;499;511;519;529
459;495;524;546;559;563
452;455;465;479;491;502
492;479;477;484;491;502
484;510;532;549;559;563
461;475;492;506;517;525
499;479;473;477;481;492
516;527;538;548;553;555
491;513;532;547;555;556
514;497;492;495;498;505
550;543;542;546;546;549
528;555;575;589;594;591
528;523;526;532;535;539
569;552;545;545;544;547
557;582;600;613;617;614
534;546;560;571;577;579
567;548;541;543;545;550
577;591;602;612;616;615
539;566;588;604;613;613
554;542;541;546;551;559
577;577;582;590;594;599
544;578;604;622;632;633
536;537;544;555;564;573
571;559;557;562;567;576
554;582;605;622;632;634
523;539;558;572;584;591
553;537;535;539;546;557
556;574;589;603;611;617
516;545;570;590;601;607
530;520;521;529;537;550
554;556;562;572;579;588
523;557;583;603;615;618
518;517;525;536;546;557
554;542;540;545;551;561
539;567;590;607;616;619
511;526;542;557;568;576
542;527;523;528;533;544
544;565;580;594;601;606
507;536;560;579;591;596
523;513;513;521;529;540
549;551;558;567;574;581
518;551;578;597;608;611
510;510;518;529;539;549
545;535;534;540;545;555
529;559;583;601;610;613
504;518;534;549;560;568
536;520;516;521;527;538
541;559;575;589;596;600
504;531;554;573;584;589
522;510;509;516;523;534
547;549;555;564;570;577
515;548;574;593;604;606
509;508;515;526;535;545
544;534;532;538;543;553
528;557;581;598;608;610
502;516;531;546;557;565
535;519;515;520;525;537
540;558;574;588;595;599
501;528;552;570;582;587
519;507;507;514;521;533
544;547;554;564;569;578
510;544;571;590;601;604
506;505;512;523;532;542
542;532;532;538;543;552
523;554;578;596;606;608
499;512;528;543;555;561
530;515;512;518;523;535
533;553;570;585;593;597
498;524;547;565;579;583
517;505;504;511;518;530
539;544;551;561;568;575
505;540;566;586;597;600
503;501;507;518;527;538
538;528;528;535;539;549
517;548;573;591;601;604
491;504;520;535;547;556
526;510;506;512;518;529
523;545;563;578;587;591
483;511;536;555;569;575
507;494;494;501;509;521
533;536;544;554;560;567
498;531;557;577;588;591
495;493;499;510;519;529
527;520;520;527;532;542
504;538;563;583;593;596
478;493;511;525;538;546
518;502;499;505;511;522
524;543;560;575;582;586
492;515;537;554;565;570
517;501;498;504;510;520
540;544;550;560;564;570
507;539;564;582;592;594
507;503;509;517;525;534
544;534;533;538;542;550
523;554;578;595;604;605
500;511;525;539;549;556
535;518;514;520;525;535
535;555;572;587;595;598
495;521;543;562;574;579
509;499;499;507;516;527
515;528;541;555;564;573
464;506;540;564;581;588
450;456;470;487;503;519
472;474;483;498;511;527
486;511;535;555;569;576
564;535;526;528;531;536
656;598;563;547;535;535
661;658;652;644;631;619
626;636;641;640;631;619
603;597;593;591;585;582
569;599;619;632;636;634
502;559;600;629;645;648
485;499;520;541;561;576
510;516;529;547;564;582
488;526;560;588;609;621
472;484;502;522;542;559
507;494;492;501;514;532
506;529;549;567;580;590
470;495;518;537;553;563
493;480;480;487;496;512
512;520;530;543;551;560
476;509;536;557;569;574
479;474;480;491;500;512
515;506;508;516;521;531
490;522;548;568;579;582
471;481;494;508;519;528
508;493;489;495;501;512
504;527;547;563;571;575
470;494;515;533;545;552
496;482;480;486;493;504
515;523;533;544;550;557
479;512;537;557;568;572
484;479;483;493;501;512
516;511;512;520;525;534
492;525;551;570;581;583
473;483;496;510;521;530
510;496;493;499;504;515
506;530;550;568;575;579
473;495;517;536;547;553
499;485;483;489;496;507
516;525;536;548;555;560
478;511;538;558;570;574
481;477;482;492;501;512
513;508;511;519;525;535
487;520;547;567;578;582
467;476;490;505;516;526
503;489;487;493;500;511
495;521;542;559;569;574
460;484;506;525;538;545
484;471;470;478;486;499
498;509;522;536;544;551
460;494;521;542;556;561
465;460;465;477;486;499
498;494;497;506;512;522
473;506;533;553;564;568
455;463;476;491;502;512
491;478;476;483;489;500
488;513;534;550;560;563
459;480;500;517;529;536
490;474;470;477;481;493
513;520;529;540;545;550
487;513;535;552;561;563
507;493;490;495;500;507
548;537;533;536;536;540
531;557;578;590;596;592
524;523;529;536;541;544
565;545;536;537;535;540
562;582;598;610;612;610
535;550;565;578;585;585
564;545;538;540;542;548
579;587;595;604;607;608
541;570;594;609;618;618
548;539;540;546;553;560
578;573;574;580;584;590
550;582;607;625;634;635
534;539;549;561;570;578
568;555;550;556;560;569
557;583;604;620;629;631
524;544;564;580;592;599
551;535;532;538;544;556
561;574;587;599;606;612
523;555;581;600;612;616
531;524;526;535;544;555
559;558;560;569;575;583
528;563;590;610;621;624
515;521;532;545;556;566
550;537;535;541;546;557
542;568;589;606;615;619
511;530;549;566;578;585
539;524;520;526;532;544
550;563;576;589;595;601
513;544;569;588;600;604
522;513;515;524;532;544
550;548;551;560;566;574
523;556;582;600;612;615
509;513;524;536;546;556
545;531;528;534;539;550
535;562;583;599;608;612
504;523;542;558;569;576
534;518;514;519;526;537
545;558;570;583;590;595
508;538;562;581;593;598
521;510;512;519;527;538
548;546;549;557;562;570
517;551;578;597;608;610
504;509;519;531;542;551
541;528;526;532;538;547
530;558;580;597;606;608
500;519;538;554;565;572
530;514;512;517;523;534
540;554;568;581;588;593
504;535;559;577;589;593
517;507;508;516;524;535
545;544;548;556;561;569
515;548;575;595;605;607
503;507;517;529;539;549
539;526;524;530;536;546
526;554;576;593;603;607
497;515;533;549;561;568
525;510;507;513;520;531
534;549;563;577;585;590
497;527;551;570;583;587
511;501;502;510;518;530
539;538;542;551;557;565
507;541;567;587;598;601
495;499;508;520;531;542
530;519;517;524;529;540
518;547;569;587;597;600
491;509;526;542;554;561
523;507;504;509;515;526
528;544;560;573;581;585
488;519;545;564;577;581
502;493;495;504;512;524
531;531;537;546;552;561
501;535;561;581;592;595
494;495;504;517;526;536
533;520;517;523;528;538
520;548;571;587;597;598
498;512;528;542;552;559
530;513;508;512;517;527
539;554;567;579;585;588
503;530;553;571;581;585
520;508;507;514;520;529
544;545;549;558;563;569
513;546;572;591;602;603
502;504;513;524;534;544
529;521;522;529;535;545
494;532;561;582;595;600
452;478;503;524;541;552
466;462;468;482;495;512
460;488;513;535;551;563
450;476;501;524;541;552
566;518;497;494;496;506
677;627;598;583;571;567
666;664;659;652;639;623
660;640;625;613;599;587
645;640;633;628;616;608
564;619;655;674;679;671
498;540;575;601;617;623
503;511;527;547;564;580
498;531;563;591;613;627
461;498;533;562;587;603
480;473;479;494;513;535
506;511;520;535;550;567
474;508;537;560;578;588
469;469;478;492;506;522
504;495;494;502;510;525
488;519;543;562;573;580
462;477;494;511;523;533
494;479;477;483;490;503
501;519;535;550;558;564
466;493;516;535;548;554
483;472;471;479;487;499
509;512;518;528;534;542
477;510;537;557;568;571
474;473;480;491;500;511
511;501;500;507;511;520
491;523;547;566;575;578
465;481;497;513;524;532
500;485;482;488;494;506
501;522;539;554;563;566
463;492;517;536;549;555
485;473;473;481;489;501
510;513;521;532;538;546
478;511;538;558;569;572
474;473;481;492;502;512
507;498;498;506;512;521
489;521;545;564;575;578
466;479;495;510;522;530
498;483;480;486;493;504
500;520;537;553;562;566
465;492;515;534;546;552
484;472;471;479;487;499
506;511;519;530;537;544
468;503;531;552;564;568
463;463;471;484;495;506
494;487;489;498;505;516
474;507;533;554;565;569
448;462;480;497;510;519
481;467;466;473;481;493
480;502;522;539;549;554
443;471;496;516;531;537
465;454;454;462;472;485
489;495;503;515;523;531
457;490;517;537;550;554
462;458;463;474;483;494
506;493;491;496;500;509
496;522;543;559;566;567
486;491;500;510;517;523
532;509;500;499;500;506
542;555;566;576;577;576
518;535;551;563;568;567
548;526;518;518;519;523
575;574;576;580;580;579
547;573;593;607;612;608
547;540;540;545;549;553
580;569;565;568;569;573
561;590;611;626;634;631
540;548;560;571;579;583
575;557;551;554;557;564
573;592;608;622;628;629
535;559;580;598;607;611
554;541;538;544;550;560
571;579;587;597;604;609
536;569;595;614;625;628
535;532;537;547;556;566
564;558;559;566;572;581
538;573;599;618;630;632
516;528;543;558;569;579
550;536;533;539;546;557
550;572;590;605;614;619
513;538;560;578;590;597
534;521;520;526;534;547
553;561;571;582;589;596
517;550;577;596;608;612
517;514;519;529;539;550
551;543;544;551;557;567
526;559;584;603;614;617
505;515;528;543;554;563
541;525;522;527;533;545
540;561;580;594;603;607
506;529;550;567;579;585
530;515;512;518;525;536
546;554;564;575;581;587
510;542;569;588;599;603
513;508;512;522;531;541
546;539;539;546;552;560
524;555;581;598;609;611
505;513;526;539;550;558
541;526;522;526;531;542
537;560;579;594;602;605
501;525;547;564;576;582
527;513;510;516;523;534
544;553;563;575;581;587
508;540;567;586;597;601
511;506;510;520;529;540
542;537;539;546;552;560
519;551;577;596;607;610
500;508;521;535;546;555
535;521;518;523;529;539
533;555;574;590;598;602
499;521;541;558;571;576
522;508;505;511;518;529
537;547;558;570;576;583
502;534;560;579;591;595
508;502;505;514;523;534
538;533;535;542;547;556
510;544;571;590;601;604
491;499;513;527;539;548
526;512;510;516;522;534
524;547;567;584;592;596
489;511;532;550;562;568
512;499;497;504;511;523
525;537;549;562;570;576
489;522;548;569;581;586
498;492;495;504;514;525
531;525;527;535;540;549
503;537;563;583;593;596
489;496;508;521;531;540
531;515;510;515;520;530
530;552;570;585;592;594
501;520;538;553;563;568
527;511;506;511;515;526
541;552;562;573;578;583
506;536;561;579;590;592
516;507;509;517;524;533
547;541;542;549;554;561
520;553;578;596;606;607
499;507;519;532;542;551
521;512;513;521;528;539
496;531;557;578;591;597
449;480;508;532;549;560
458;455;462;476;490;508
466;487;507;528;543;556
492;506;524;542;555;563
602;548;523;514;512;517
672;629;601;585;571;565
658;665;666;662;649;633
633;627;622;617;607;597
611;611;610;609;603;599
553;603;637;658;666;663
492;535;572;599;617;624
503;505;518;536;555;571
508;533;558;581;600;615
473;509;543;571;594;607
481;477;484;499;517;537
510;510;516;529;542;558
481;517;546;568;584;593
469;475;487;502;516;530
505;492;491;498;506;521
496;523;545;563;574;580
464;485;505;523;536;545
495;479;477;483;490;503
510;522;534;547;555;561
474;503;528;548;559;564
484;475;477;486;494;505
514;511;514;523;528;537
485;519;545;565;576;578
474;478;488;501;511;520
510;497;495;500;506;516
499;528;549;566;575;578
470;490;509;526;537;544
497;483;481;487;493;505
509;524;538;551;559;563
474;504;530;549;561;565
487;478;480;488;497;507
515;514;518;526;532;540
486;520;547;567;578;580
476;479;489;503;512;522
511;499;497;503;508;519
498;527;549;567;576;580
465;486;506;523;536;543
495;480;478;485;492;504
504;519;534;549;557;563
466;496;522;543;556;561
476;468;471;481;490;502
503;503;508;519;526;535
470;506;534;556;568;572
458;463;474;488;500;511
494;483;482;490;497;508
481;510;534;552;563;568
450;470;489;507;520;529
478;464;463;470;478;491
486;503;519;534;543;549
451;482;507;528;541;547
467;457;459;468;477;489
497;496;501;510;516;525
468;501;528;548;559;562
465;465;473;485;494;504
512;495;491;494;498;507
510;532;550;564;570;571
493;503;516;527;534;537
537;513;503;503;503;509
555;563;570;577;578;577
526;548;565;578;583;581
546;530;524;526;527;532
578;572;572;575;575;576
553;580;602;616;621;618
546;543;547;554;559;563
580;566;561;564;564;569
566;592;613;628;634;632
536;551;567;581;591;594
567;550;545;549;553;561
573;589;603;615;621;624
535;562;586;603;614;617
548;537;537;544;551;561
572;573;578;587;592;599
539;573;599;618;629;632
530;531;540;551;562;571
563;553;552;557;563;573
546;576;600;618;627;630
515;532;551;567;579;587
544;530;528;534;541;553
551;569;585;600;607;613
514;543;567;586;598;604
529;519;519;527;535;547
555;556;562;572;578;586
522;556;583;602;614;618
516;516;524;536;545;556
551;540;539;545;550;560
532;561;586;604;614;618
504;520;537;553;564;573
537;521;517;523;529;541
542;560;575;589;597;602
504;532;556;574;586;592
521;509;510;517;524;536
548;549;556;564;570;578
516;549;575;594;605;608
512;511;517;528;537;547
546;535;534;540;545;554
531;560;582;600;609;612
504;519;534;549;560;567
537;521;517;523;528;538
541;560;575;589;596;600
504;532;555;573;585;589
525;512;511;518;525;536
546;550;556;566;572;579
512;547;574;593;604;607
507;507;514;525;535;545
543;533;532;539;545;554
524;555;579;597;607;610
501;514;530;545;556;564
533;517;515;519;525;536
535;555;572;586;594;598
498;526;549;567;579;585
516;504;504;511;519;531
537;542;549;560;567;575
499;535;562;583;595;599
497;496;503;515;526;537
535;524;523;530;536;546
515;545;569;588;598;601
488;502;518;533;545;553
519;505;502;508;515;526
521;542;559;574;584;588
486;512;536;554;567;573
507;494;494;500;508;520
531;535;542;552;559;566
503;534;560;578;588;591
504;500;504;513;522;531
542;531;529;534;537;545
523;553;576;593;601;602
500;511;526;539;549;555
535;519;514;518;523;532
535;556;573;587;594;596
498;525;547;565;577;581
520;506;505;513;519;530
540;546;554;564;570;577
504;539;565;585;596;599
490;492;501;513;524;536
508;508;514;525;533;545
472;513;546;570;586;593
432;456;480;503;521;535
467;458;462;474;487;505
531;533;542;554;563;569
595;574;567;568;567;566
655;602;570;553;540;536
683;664;648;636;620;608
634;657;670;672;664;648
579;589;597;601;600;597
562;579;593;604;609;612
512;567;609;638;655;659
474;503;533;560;582;596
503;499;507;524;542;563
500;529;555;579;599;613
464;493;522;545;567;583
489;478;479;490;503;523
511;518;529;542;553;566
477;510;538;559;573;581
479;475;481;492;503;517
514;507;507;515;521;532
492;524;550;569;580;584
471;483;496;511;523;533
506;491;488;494;500;512
505;527;546;562;571;575
472;495;517;535;548;555
497;482;480;487;494;505
516;524;532;543;550;556
480;513;539;559;571;574
484;479;484;493;502;513
515;508;510;517;523;533
492;525;551;570;580;583
474;483;497;511;522;531
507;493;490;496;502;513
504;527;547;563;572;576
470;495;517;535;547;553
495;482;480;487;494;506
514;522;533;544;550;558
480;512;539;558;569;573
483;478;483;493;502;512
513;508;510;518;524;533
488;522;549;569;580;583
470;480;493;508;521;529
504;490;488;494;501;512
499;524;545;561;571;575
465;489;512;530;543;550
489;476;475;483;491;502
501;512;524;538;546;553
464;498;526;547;561;566
467;463;468;480;492;503
494;491;495;505;512;523
467;502;531;552;565;569
450;460;474;490;503;514
486;472;470;478;485;497
480;505;526;544;554;559
448;471;493;511;524;532
477;462;460;467;474;486
500;507;517;528;534;541
471;500;523;541;551;555
487;476;476;482;488;497
530;519;515;519;520;526
515;541;561;575;581;580
505;506;513;522;527;531
551;530;522;521;520;525
552;570;585;596;598;595
523;540;556;568;574;574
554;534;528;529;530;536
570;577;585;593;595;596
534;563;587;603;611;611
544;534;535;541;547;553
576;569;569;574;577;582
550;581;605;622;630;629
531;538;548;559;568;575
568;552;549;552;556;565
558;583;603;618;626;628
522;544;564;581;592;598
549;534;531;537;543;554
562;573;584;596;603;609
524;556;580;600;612;616
531;523;526;534;543;554
560;556;559;566;573;580
530;564;590;609;621;624
514;521;532;545;556;566
549;536;533;539;545;556
540;567;588;604;613;617
506;528;548;565;577;584
534;520;517;523;530;541
547;560;572;584;591;597
509;541;567;586;599;602
517;510;513;522;531;542
548;545;548;556;562;570
522;555;581;600;611;613
510;515;525;537;547;556
544;531;528;533;538;548
536;562;583;599;608;611
504;523;543;559;571;577
529;514;512;519;525;536
544;555;568;580;587;593
507;537;562;581;593;597
517;508;509;518;526;537
546;543;546;554;559;568
518;551;578;595;606;609
504;509;519;531;541;551
538;525;523;529;534;544
527;554;576;593;602;606
499;518;536;553;564;571
529;512;509;514;520;531
539;553;565;577;584;589
501;532;557;576;588;592
513;504;506;514;522;532
543;541;544;552;558;565
513;546;573;592;603;605
498;504;514;527;537;547
534;522;520;526;532;542
522;550;573;591;600;604
488;509;529;546;559;566
520;505;502;508;515;527
533;547;560;573;580;585
495;525;550;569;582;586
503;494;497;506;515;526
529;529;534;544;550;559
501;535;562;582;594;597
493;495;505;517;528;538
530;516;513;519;524;534
516;544;566;583;592;595
489;506;525;540;552;558
523;505;501;506;511;522
537;549;561;572;578;582
502;529;552;569;580;583
517;505;504;510;517;526
545;543;546;553;557;564
516;549;575;592;602;603
507;509;518;528;537;545
542;530;527;532;536;545
528;557;580;596;605;607
496;515;533;550;561;568
514;504;504;511;519;531
505;530;551;568;579;586
453;493;526;551;568;577
449;451;462;478;494;511
474;482;495;511;525;540
501;519;539;557;570;576
593;550;531;527;526;530
677;623;588;570;555;552
679;679;674;667;652;636
634;639;640;638;629;616
599;600;599;599;594;592
556;598;627;646;653;652
489;542;584;614;633;639
488;495;511;532;552;570
510;522;538;559;578;595
476;517;551;579;602;615
470;474;487;505;524;544
507;497;497;507;519;538
495;524;548;568;581;592
468;485;503;519;533;545
499;484;482;488;495;510
506;524;540;554;562;569
468;498;524;543;556;562
487;476;477;485;493;506
515;517;522;532;538;546
483;517;544;564;575;578
476;478;486;498;508;518
512;501;500;507;513;523
497;527;551;569;579;582
471;487;504;520;532;539
502;487;484;490;497;508
510;527;542;557;565;569
474;501;525;544;556;561
491;479;479;487;494;506
516;518;524;534;540;548
482;516;543;563;574;578
480;479;486;497;507;517
516;505;503;509;514;524
499;529;552;570;579;582
476;489;505;520;531;538
508;492;488;493;498;509
510;529;545;560;567;571
471;500;524;544;556;561
489;478;479;487;495;506
511;516;523;534;541;549
475;511;539;560;573;576
470;471;480;493;504;515
503;495;496;504;511;521
486;518;543;563;574;578
461;476;493;509;522;531
488;476;475;482;489;502
490;511;530;547;556;562
455;483;508;529;542;549
473;462;463;472;481;494
499;502;510;522;529;537
462;497;525;546;558;563
460;459;467;479;490;501
500;488;488;495;500;510
487;515;538;556;565;568
468;478;491;505;515;522
511;490;483;486;490;499
524;537;549;559;564;566
500;519;536;549;556;558
531;510;502;504;505;511
561;558;559;564;563;564
534;560;580;594;600;596
536;528;529;534;538;542
574;560;555;557;557;560
558;585;606;619;624;621
536;545;557;568;575;577
570;552;546;549;551;558
570;589;605;617;622;622
533;559;580;597;607;609
552;539;537;542;549;558
571;576;584;594;600;605
535;569;595;614;625;627
534;531;537;547;556;566
567;558;558;564;569;578
545;577;602;620;630;632
523;534;548;563;573;581
557;542;536;541;547;558
554;575;592;607;615;619
516;542;565;583;595;601
537;524;522;529;537;548
557;563;571;582;588;596
522;555;581;600;612;616
521;517;523;533;542;553
555;547;546;553;558;568
534;565;590;608;618;621
510;521;535;550;562;569
542;527;524;530;536;547
542;564;582;597;605;609
504;530;553;571;583;589
527;514;512;519;526;539
549;555;564;574;580;587
512;546;572;591;602;606
511;509;514;524;533;544
546;539;539;546;551;560
524;556;582;600;610;612
505;514;528;542;553;561
537;523;520;525;530;541
538;559;577;592;601;604
503;527;549;566;578;584
525;511;509;515;522;534
542;550;560;571;577;584
508;540;566;585;597;601
511;506;510;520;529;540
545;537;537;543;549;558
522;554;579;597;607;609
502;511;524;537;548;557
537;521;518;523;528;539
534;556;575;590;598;602
498;522;543;561;573;579
517;504;503;510;518;530
533;543;554;566;573;581
498;531;558;578;590;595
502;498;503;513;522;533
535;529;530;538;543;553
505;540;567;587;598;602
484;495;510;525;537;547
522;508;505;511;518;529
520;543;562;578;587;592
489;511;532;549;561;568
515;499;497;503;509;521
537;544;553;563;569;574
505;535;559;577;587;589
514;506;507;515;522;531
546;538;538;544;547;554
522;553;578;595;604;605
505;511;523;535;545;552
542;526;521;525;529;539
536;559;578;593;601;603
502;524;544;561;572;577
526;511;509;514;521;532
541;551;562;573;580;586
492;528;557;578;591;595
480;483;492;505;517;530
498;502;511;525;535;548
458;502;536;563;580;588
438;453;472;492;510;525
522;495;487;492;499;513
615;597;591;592;591;589
639;617;605;598;590;582
678;635;605;586;569;561
677;677;672;666;651;637
576;624;653;667;667;657
526;549;567;583;591;596
528;548;569;589;603;613
484;536;580;613;636;647
465;483;507;532;556;576
501;493;498;513;530;551
494;522;547;570;589;603
463;486;509;530;549;564
491;477;475;484;496;514
507;518;530;544;554;565
472;503;529;549;562;570
480;473;476;485;495;509
515;509;511;519;525;535
486;520;546;565;576;579
474;479;490;503;513;523
507;494;492;498;503;514
501;526;547;564;574;577
471;491;511;528;540;546
499;484;481;487;493;505
514;526;538;550;557;562
479;509;535;554;565;569
488;481;483;492;500;510
519;515;518;526;531;539
490;525;551;571;582;583
478;483;494;507;517;526
513;501;498;504;509;519
503;530;552;569;578;582
470;492;512;530;542;549
499;484;482;489;496;508
510;525;538;551;559;565
475;505;531;551;563;568
484;476;479;488;497;508
513;511;515;524;530;538
483;518;545;565;577;580
471;476;487;500;511;521
506;494;492;500;504;515
496;523;545;563;573;576
464;484;504;522;534;541
491;476;474;481;489;501
500;515;530;544;552;559
461;493;520;541;554;559
472;464;467;477;487;499
500;500;505;516;521;530
469;505;533;554;566;570
457;463;474;488;499;510
495;483;481;488;494;506
485;512;535;553;563;567
458;477;496;512;524;531
491;474;470;476;482;494
508;520;532;544;550;554
481;506;528;545;555;557
506;490;487;492;496;504
543;535;533;538;539;543
522;550;570;585;591;589
520;515;519;526;531;535
562;543;535;536;535;540
554;576;593;605;609;608
528;541;555;567;574;575
561;541;534;535;537;543
572;584;594;604;607;607
536;562;584;600;608;609
548;536;536;541;546;554
574;572;575;582;586;591
542;576;601;620;629;630
531;533;541;552;561;570
567;554;551;556;561;570
554;583;603;620;628;631
523;541;558;574;585;591
552;537;534;538;544;555
558;575;590;603;610;615
519;549;574;593;605;610
531;522;524;532;541;552
558;558;564;573;580;588
526;560;587;607;618;622
517;519;527;539;550;560
552;541;539;545;551;561
537;566;589;606;616;620
508;525;543;559;570;578
538;522;519;525;531;543
545;561;576;590;598;603
508;537;560;579;591;596
521;511;511;519;527;539
547;548;553;562;569;577
515;549;576;595;606;610
509;509;517;529;538;549
545;533;531;536;541;552
528;557;580;598;608;610
500;516;533;550;560;568
533;517;513;518;524;535
541;557;572;585;592;596
504;532;556;574;585;589
523;511;510;517;524;534
547;549;554;563;569;575
513;548;575;594;605;607
507;508;515;527;537;547
543;532;531;537;543;552
525;556;579;597;607;610
498;515;531;547;558;565
529;514;511;517;523;534
536;554;571;584;591;596
498;526;550;569;581;586
512;502;503;511;519;531
535;538;545;556;563;571
502;536;563;584;596;600
499;498;505;517;527;538
534;523;522;528;534;544
510;542;567;586;597;600
480;497;515;532;545;554
517;500;498;505;511;524
524;541;557;571;579;585
491;516;538;556;568;574
510;497;495;502;508;520
534;536;542;551;557;564
506;537;563;581;591;593
507;504;508;517;525;534
548;535;531;535;538;545
529;558;580;596;604;605
503;517;531;545;554;560
537;521;516;521;525;535
541;560;576;589;596;598
503;530;553;571;582;586
522;510;509;516;523;533
541;546;554;565;571;578
493;533;563;585;598;602
475;482;495;510;523;536
491;494;502;515;526;540
452;496;531;559;577;586
428;449;473;495;515;530
526;492;480;484;491;505
634;606;593;589;585;583
651;631;619;611;601;591
686;642;612;592;574;565
681;677;669;662;646;632
576;629;661;676;677;666
520;547;570;587;598;603
526;542;561;580;594;606
491;540;581;613;637;648
463;486;514;540;565;584
497;488;492;507;524;546
500;525;546;567;584;598
465;493;518;540;559;573
488;476;476;485;497;515
509;516;525;537;546;559
476;510;537;558;571;578
477;474;481;491;502;515
511;503;504;511;517;528
493;524;549;568;578;581
472;483;498;512;523;532
505;490;487;493;499;510
506;528;546;561;569;573
473;497;519;538;550;555
492;480;479;487;493;505
514;520;529;541;547;554
481;513;540;560;571;574
481;477;483;493;503;513
513;506;507;514;520;529
491;523;549;569;579;582
472;483;496;511;522;531
505;490;487;493;499;511
505;527;546;562;569;574
