ExG_CH1;ExG_CH2;ExG_CH3;ExG_CH4;ExG_CH5;ExG_CH6
482;510;520;526;528;538
490;591;657;695;706;681
508;419;379;362;364;380
511;474;445;429;426;446
523;637;703;739;744;719
534;572;618;641;638;646
531;630;713;765;778;754
532;442;411;406;416;437
529;504;489;486;492;516
535;655;732;778;792;773
537;503;501;509;522;530
527;448;403;385;387;424
520;630;692;729;740;735
511;552;593;622;637;630
473;388;347;333;343;381
377;464;513;546;567;589
262;428;544;621;665;665
230;189;194;219;262;315
247;245;256;278;314;369
356;452;523;574;606;608
547;433;383;365;368;380
654;494;387;325;295;314
634;707;727;724;697;664
577;613;632;635;619;585
554;461;408;374;358;370
552;602;625;633;627;619
559;657;724;762;768;732
570;474;431;414;416;430
570;546;527;517;516;531
570;690;764;804;813;787
570;531;525;527;535;540
564;487;441;419;419;449
559;669;732;767;775;765
555;588;621;646;658;649
553;453;401;379;382;415
548;598;623;637;644;652
543;643;711;752;767;745
544;452;413;399;407;432
532;519;507;503;507;531
525;652;731;777;793;776
524;489;485;491;505;518
518;445;403;386;390;428
514;627;692;730;744;738
509;540;573;599;615;611
505;407;356;335;342;377
498;553;580;597;607;617
492;592;662;703;720;701
494;402;364;350;361;389
483;473;464;461;467;493
479;605;684;732;749;733
480;441;436;442;457;472
475;404;362;345;350;388
474;587;653;692;705;698
476;503;533;557;573;569
479;379;326;304;308;342
480;533;559;574;581;589
482;576;641;679;692;670
490;394;350;333;340;365
486;475;463;457;459;481
489;611;686;729;743;723
500;454;442;444;453;464
506;429;383;362;361;394
515;623;683;716;724;709
525;542;564;582;590;581
535;428;368;340;337;366
544;592;612;623;624;624
552;636;693;724;732;704
562;458;409;386;386;406
561;547;531;522;518;533
562;680;752;792;800;774
566;517;501;500;505;512
561;489;445;423;421;451
560;674;738;773;780;764
560;578;603;622;633;626
558;458;402;378;378;409
555;613;642;658;663;667
554;643;705;742;754;734
558;460;415;397;402;428
551;546;537;533;535;554
549;672;748;793;806;787
553;505;492;493;503;514
546;479;438;420;421;455
543;661;728;766;777;763
540;558;584;605;620;615
538;440;387;364;367;400
534;596;627;647;655;660
533;622;683;721;736;716
538;440;394;377;384;413
535;532;524;521;523;544
534;655;731;775;790;771
539;487;472;473;482;495
532;466;425;406;409;442
530;648;715;753;763;749
529;544;566;587;600;596
527;429;375;351;353;386
520;585;618;638;647;652
515;603;665;702;718;699
514;418;374;358;367;397
500;505;503;503;509;532
488;616;697;746;765;750
493;443;432;434;448;466
488;427;390;376;380;417
493;611;680;720;732;720
501;510;531;551;564;562
505;405;350;325;326;358
510;572;604;622;628;632
520;598;652;687;698;676
532;427;375;353;357;383
531;529;521;515;514;530
532;650;724;766;776;753
541;483;463;459;464;474
540;475;433;413;411;441
540;657;724;761;767;748
539;546;566;582;593;587
532;435;382;357;358;389
526;595;632;653;662;664
512;597;659;696;713;694
462;383;349;341;355;389
356;409;439;460;482;514
268;445;566;645;691;695
259;239;256;287;329;373
292;241;222;227;256;315
437;511;559;595;613;612
617;535;498;483;478;470
662;502;395;330;297;309
608;665;676;667;642;621
557;646;698;719;709;669
542;453;408;385;379;393
540;553;554;553;550;556
549;667;745;788;799;772
565;500;477;471;477;485
564;501;462;442;440;467
563;681;748;784;791;770
563;565;580;595;604;598
560;463;408;382;381;410
552;627;666;688;696;697
547;625;682;716;730;711
546;446;399;381;389;419
539;550;552;553;559;577
535;655;733;779;795;778
535;475;454;451;462;478
524;472;438;424;427;460
522;645;717;759;771;755
520;522;539;558;572;573
512;419;368;346;349;384
505;584;627;654;666;670
498;575;633;670;688;673
497;399;353;337;347;383
487;503;509;513;520;542
482;604;685;733;752;736
484;424;404;402;414;434
477;426;395;383;388;421
475;600;673;715;729;714
476;477;493;511;526;527
474;381;330;307;310;346
474;553;596;622;633;637
472;545;599;634;649;635
477;375;327;309;317;350
474;489;492;495;500;519
474;592;668;714;730;712
483;416;391;385;393;410
483;429;395;380;380;411
492;609;677;716;725;706
505;495;502;514;523;521
512;412;353;324;321;351
521;594;632;652;656;654
529;590;636;664;672;651
542;432;376;351;351;378
547;557;555;551;549;559
551;662;732;771;780;753
561;487;455;444;445;456
559;504;468;449;445;469
561;679;747;782;788;764
562;553;561;571;579;574
559;465;410;383;381;409
556;639;683;708;716;713
552;618;669;700;712;695
554;451;402;381;387;417
547;568;574;578;581;596
544;661;737;782;797;776
549;479;451;443;452;468
546;498;466;452;454;482
543;666;738;779;789;770
544;534;544;557;569;569
542;449;396;371;372;406
539;625;671;699;709;709
537;599;649;681;694;680
539;435;385;365;371;404
534;556;563;567;572;587
533;648;723;767;783;763
535;462;433;425;433;451
530;485;455;441;444;472
530;653;725;765;777;758
533;520;527;540;551;552
531;439;385;361;361;395
532;619;666;693;703;702
529;590;637;668;681;667
533;429;378;357;362;394
529;554;563;567;571;585
530;644;719;762;776;754
534;459;428;418;425;442
529;487;458;444;445;473
529;653;726;767;778;758
531;516;523;534;545;547
522;434;383;360;362;396
517;610;662;693;705;704
502;567;618;651;668;656
492;397;352;335;345;382
480;515;532;543;552;571
483;599;677;726;746;728
498;418;386;378;389;411
499;456;427;414;417;447
502;624;695;736;747;729
514;492;494;502;512;515
518;424;368;341;339;372
523;611;659;685;693;688
528;579;620;646;656;640
533;426;371;346;347;377
530;558;566;570;571;581
535;643;714;755;766;740
542;460;423;410;414;429
537;498;470;455;454;478
531;657;730;771;781;759
525;508;514;524;536;539
506;425;379;358;362;397
458;573;641;681;699;701
354;455;532;583;616;618
256;216;211;226;262;319
223;300;355;399;442;485
240;370;470;543;591;600
376;262;218;211;234;274
569;446;369;329;319;345
655;703;717;715;694;656
619;570;536;510;487;466
573;488;423;379;352;362
557;661;712;732;724;699
560;610;651;673;675;646
575;466;410;383;379;399
583;610;618;621;619;619
581;686;755;792;800;769
583;496;457;441;443;456
572;539;513;501;499;520
568;693;768;809;818;795
568;543;543;552;562;566
561;476;425;402;404;437
554;657;714;747;758;752
549;598;640;669;684;673
546;445;394;374;380;414
539;579;598;608;615;626
535;645;720;764;780;759
536;452;417;406;415;438
522;497;477;469;473;501
517;646;725;770;785;768
515;491;494;505;519;529
506;426;379;361;365;404
503;608;669;705;719;717
498;545;588;618;634;628
495;394;345;325;333;370
488;530;551;563;572;586
483;592;667;711;729;710
483;399;364;353;364;390
475;450;432;426;431;460
474;601;679;724;740;724
477;447;447;457;472;483
473;390;343;323;326;365
473;577;637;672;685;681
473;514;553;580;595;587
475;371;320;297;303;337
477;518;536;548;553;563
480;584;654;695;709;685
491;399;358;344;349;371
493;465;442;432;432;455
503;623;696;736;746;723
513;476;468;472;479;484
519;432;379;354;350;382
529;629;683;713;718;706
541;571;601;621;628;613
548;438;378;350;347;375
553;591;606;612;611;613
556;654;719;754;763;733
567;470;425;405;407;424
561;534;513;501;498;517
560;683;757;797;805;781
563;525;519;523;530;536
557;476;427;403;403;436
554;663;723;756;764;755
553;587;621;645;657;647
552;448;394;370;373;405
548;596;617;629;634;642
546;647;716;756;770;746
551;457;415;400;407;431
543;524;506;499;501;525
542;667;743;786;800;781
545;507;501;506;518;527
536;460;414;393;396;432
535;646;709;745;755;748
536;568;601;625;639;631
536;433;379;356;360;393
533;583;606;619;625;633
533;632;700;739;754;730
539;444;402;386;393;417
532;515;500;493;496;518
531;656;733;777;791;771
534;495;487;491;502;513
531;454;408;388;389;425
526;638;702;739;750;741
530;558;588;611;624;618
533;429;373;349;351;384
529;580;604;617;624;630
522;621;688;727;741;719
518;426;385;370;378;404
503;494;485;482;486;510
494;624;706;755;772;755
488;453;449;458;473;487
484;413;372;357;363;403
487;600;666;706;721;714
494;518;547;571;586;584
497;394;338;315;319;353
502;554;578;592;598;605
511;601;664;700;712;688
526;424;375;355;358;382
527;510;494;484;483;501
532;651;724;764;774;751
537;490;476;474;481;489
535;460;414;391;389;421
541;651;713;748;755;739
543;564;588;607;618;608
541;438;382;356;356;385
533;591;619;635;640;644
523;619;685;725;738;716
506;417;379;366;375;404
442;458;465;472;484;512
329;506;620;692;728;726
240;256;294;334;378;417
219;190;187;205;244;311
252;378;465;529;572;591
402;378;385;407;432;445
598;404;291;234;219;247
655;645;615;588;560;544
607;678;710;714;692;643
574;478;421;384;364;365
559;559;546;532;516;516
564;688;763;802;804;767
582;527;509;505;505;504
585;510;463;438;433;456
584;697;761;794;798;776
583;597;619;636;646;634
578;476;420;393;392;420
570;633;664;680;687;688
564;653;716;753;767;744
562;465;420;402;410;437
554;552;546;544;548;568
549;674;753;800;815;796
550;499;486;487;498;513
539;475;435;419;423;458
532;653;723;764;777;765
529;546;571;592;609;608
525;427;374;352;357;392
518;585;620;641;652;659
511;600;663;702;720;703
509;413;369;353;363;397
499;503;500;501;507;531
494;620;701;749;767;751
494;444;431;433;446;464
484;424;387;373;378;415
481;604;675;717;731;719
480;495;519;541;557;557
477;381;330;309;312;348
472;542;579;602;613;620
473;558;619;657;673;657
477;378;332;315;325;357
473;477;473;473;478;499
476;597;675;721;737;718
486;428;409;408;417;432
485;421;382;364;364;397
490;608;674;712;721;704
497;503;521;537;547;543
504;401;344;317;315;345
512;576;608;625;631;631
523;596;648;679;689;666
537;427;373;349;350;376
544;541;530;523;520;533
554;667;737;775;783;757
566;499;472;463;465;473
564;499;455;432;427;452
568;684;748;782;785;761
570;571;586;599;606;597
571;469;411;382;379;406
570;639;674;693;697;695
567;644;699;731;742;720
567;465;415;395;400;428
560;569;567;566;568;584
560;681;757;802;815;795
563;501;480;476;484;498
554;497;461;445;446;477
554;675;746;785;795;777
555;558;574;590;603;601
553;455;401;375;377;409
551;625;665;687;696;698
549;624;680;714;729;711
551;448;400;380;386;418
543;554;554;555;560;578
542;661;739;784;800;781
547;482;460;455;464;480
539;484;449;433;435;466
540;660;731;771;781;763
542;541;556;571;584;582
543;445;390;364;364;396
541;617;658;681;690;691
539;611;665;698;713;695
543;439;389;368;375;407
539;552;552;552;556;573
536;655;732;776;791;771
541;475;451;445;453;469
535;482;448;433;434;464
533;656;728;767;778;759
531;529;545;560;573;572
525;431;379;355;358;391
515;599;644;671;683;686
500;578;636;673;691;678
493;398;355;340;350;387
488;509;516;523;532;553
491;611;690;739;758;742
506;435;409;404;415;434
502;451;417;402;404;436
513;631;699;738;748;730
526;514;521;532;542;540
532;431;371;343;341;370
537;614;653;675;680;677
540;603;650;678;688;668
545;438;384;360;362;391
543;559;560;560;560;572
546;660;734;776;787;763
554;480;450;440;445;458
543;495;462;445;444;472
534;660;733;774;783;763
527;523;536;551;563;564
498;416;370;351;356;391
427;542;610;651;673;681
310;434;525;586;625;629
244;199;196;212;252;313
236;290;331;369;410;457
290;407;496;561;604;611
468;337;279;262;274;303
635;497;405;354;331;351
661;728;747;745;719;676
607;586;570;554;533;507
570;484;424;384;361;371
562;655;702;722;717;698
567;628;675;703;708;679
582;472;418;392;391;414
583;601;604;604;603;609
583;694;765;806;816;787
584;507;474;462;466;478
576;531;500;484;484;507
571;695;768;807;817;794
570;556;563;575;586;585
563;472;419;395;397;429
558;649;700;729;740;738
551;613;661;693;708;695
550;448;398;378;385;419
542;571;582;589;594;611
534;652;730;776;793;773
531;459;430;423;433;454
519;483;459;449;454;485
513;642;720;765;779;763
513;500;509;523;539;545
503;417;369;349;354;392
498;595;649;683;698;700
492;553;602;636;654;645
492;391;344;326;335;372
482;516;530;540;548;566
477;595;673;720;739;720
480;403;374;367;377;400
471;436;412;403;408;439
469;595;672;717;733;716
473;455;460;473;488;495
469;381;331;309;312;350
467;564;618;649;662;662
468;522;567;598;613;603
474;370;318;297;303;338
475;504;516;523;528;541
481;589;661;705;718;696
496;409;372;358;364;382
501;459;428;414;413;437
512;631;699;736;743;719
525;497;493;497;503;504
534;439;381;351;346;376
542;633;681;706;709;699
552;595;631;653;660;641
564;453;393;365;363;389
568;595;602;604;601;605
571;676;744;780;788;758
579;491;450;433;435;448
571;535;508;494;491;511
568;693;765;804;813;787
571;546;545;553;561;563
568;480;428;403;402;435
563;662;719;750;759;752
559;607;648;675;689;676
560;456;403;381;385;418
555;592;606;615;620;631
550;660;732;775;789;766
554;468;431;419;427;448
546;516;494;483;486;512
546;670;745;788;800;781
547;520;520;528;540;547
543;457;408;385;387;422
539;642;700;733;744;739
538;583;623;650;664;654
542;438;385;363;367;401
539;577;593;603;609;619
537;644;715;757;771;749
544;456;417;404;411;432
535;509;488;478;480;506
534;659;735;778;790;770
538;509;507;514;526;533
534;451;402;380;381;417
531;636;695;728;739;734
532;574;611;637;652;642
531;429;377;354;359;392
523;566;586;597;604;614
515;622;696;739;755;733
513;428;392;381;391;415
496;478;463;457;463;491
488;618;699;746;764;749
493;463;464;474;489;502
491;410;364;345;349;389
493;598;658;694;706;703
496;533;570;595;610;602
504;398;343;320;324;358
512;551;567;575;580;588
520;618;682;720;731;706
531;436;391;373;377;396
531;505;483;470;469;488
531;654;727;767;776;752
538;501;494;497;505;511
541;457;407;382;381;413
537;643;704;736;743;733
532;568;603;626;638;627
525;426;375;352;355;387
513;564;589;603;611;620
492;603;679;724;742;721
443;376;352;349;365;395
337;367;386;403;427;466
253;433;553;633;678;685
249;247;277;315;360;400
286;214;183;185;213;277
427;490;530;562;581;588
614;556;531;521;515;500
671;501;391;323;291;301
616;648;641;622;594;574
561;670;731;755;745;698
545;463;424;403;396;402
542;529;517;510;504;515
548;671;748;791;800;773
564;519;509;512;519;523
562;482;432;410;409;440
559;669;729;762;771;757
558;586;616;637;648;638
557;455;400;376;377;407
550;602;627;641;645;651
542;642;711;751;764;741
540;449;408;394;402;428
533;521;509;505;510;534
532;657;735;780;796;778
532;492;485;490;503;515
521;450;408;389;394;431
517;633;700;737;750;743
512;541;574;599;614;611
510;410;359;338;344;380
500;557;586;604;614;624
491;591;661;702;720;701
490;399;359;346;357;387
481;473;465;464;471;497
475;603;684;732;751;735
474;434;428;435;450;466
464;397;357;341;347;387
462;579;648;689;704;697
459;485;516;542;561;559
458;359;307;287;294;331
454;513;544;562;572;582
452;549;615;656;673;654
455;361;319;305;315;344
454;446;436;434;439;463
456;580;657;703;719;701
466;418;407;409;420;433
468;395;351;331;333;368
476;588;651;687;696;683
489;503;525;544;555;547
503;395;334;306;304;333
511;563;586;597;598;599
522;605;661;694;701;673
537;430;377;355;354;376
541;527;510;501;496;511
547;663;734;772;779;752
560;504;484;479;481;487
561;486;437;413;408;435
560;673;735;768;773;753
563;576;597;613;622;611
562;459;401;374;373;400
559;619;647;663;667;668
554;642;703;739;750;727
558;458;410;391;397;423
550;547;539;535;537;556
547;670;748;792;806;786
551;500;485;484;494;506
545;480;439;420;421;454
545;663;731;768;779;764
544;558;581;601;615;610
541;443;388;364;367;399
539;603;636;654;663;668
536;623;684;720;735;715
540;440;394;376;382;412
531;533;528;526;529;551
527;651;730;776;791;773
531;479;464;463;474;489
526;462;423;405;408;442
528;646;714;753;763;750
530;540;560;579;593;589
528;428;373;348;350;383
525;591;625;644;653;657
522;606;665;701;715;696
526;425;377;359;366;396
519;522;518;517;521;541
517;639;717;762;778;760
516;462;446;445;455;471
504;445;409;393;397;431
492;618;691;733;745;733
484;499;524;548;564;564
479;387;338;317;323;360
480;552;590;615;627;635
486;566;625;662;679;662
494;391;344;325;333;366
494;497;493;492;496;515
505;621;695;738;751;732
520;456;432;426;432;445
521;457;415;394;391;421
526;642;708;744;750;728
531;533;548;562;571;564
531;431;375;348;345;374
535;602;637;656;662;661
537;611;665;698;708;687
540;435;385;364;368;396
526;536;535;534;536;553
514;639;719;765;781;761
501;449;434;433;446;463
446;410;389;382;392;430
342;512;616;678;710;707
240;306;372;426;471;495
210;160;149;162;201;266
228;321;386;438;482;517
351;395;442;482;512;517
566;374;271;225;218;249
656;587;522;478;447;446
615;708;746;755;733;685
572;512;476;449;428;417
552;503;465;437;420;429
559;681;750;783;780;744
572;567;578;590;593;576
578;477;417;388;381;403
578;651;687;707;711;703
572;644;695;726;736;713
573;470;419;397;400;427
564;578;579;579;582;597
558;677;755;799;814;793
558;494;471;465;474;489
548;496;463;448;451;482
543;668;741;782;793;775
542;540;554;571;584;585
533;440;388;365;368;403
528;610;654;681;693;696
520;594;649;684;701;687
519;419;371;354;363;399
509;529;535;540;546;567
504;625;704;752;770;753
503;439;417;413;425;445
489;444;415;404;410;444
484;613;688;732;747;732
482;481;497;515;531;535
473;385;335;315;320;357
469;555;603;633;647;653
464;537;592;628;647;636
464;365;319;302;313;350
458;480;488;495;502;523
458;576;655;703;721;705
463;394;370;365;376;396
458;411;381;370;373;405
457;582;655;698;711;694
464;455;465;479;493;495
467;372;318;294;295;329
470;552;597;623;634;633
474;536;584;615;628;613
489;380;326;304;307;339
498;512;513;513;514;526
510;618;686;726;736;711
528;447;411;396;397;409
532;478;440;420;414;436
542;657;723;757;760;733
553;534;535;541;545;538
554;457;397;367;361;387
559;641;683;706;709;701
561;619;662;690;698;677
565;458;403;379;380;407
561;583;588;589;589;599
562;675;748;789;801;775
566;491;458;446;451;465
557;514;484;470;470;494
555;679;752;793;803;781
554;541;548;559;571;571
550;460;407;383;385;417
546;637;687;716;728;726
543;603;651;682;696;683
544;440;389;369;376;410
538;565;574;581;586;601
534;648;723;769;784;764
538;461;429;420;429;448
532;491;463;451;453;481
530;655;728;770;782;763
532;516;521;532;544;548
530;439;387;364;365;399
528;621;671;701;711;710
526;582;627;657;671;659
528;424;372;351;357;391
526;555;566;571;576;589
527;639;713;756;770;748
531;452;419;407;414;433
523;486;460;448;450;477
517;644;719;763;774;754
512;497;504;517;529;534
504;420;371;351;354;391
495;596;652;686;700;700
486;545;594;627;646;637
484;386;338;321;330;367
483;517;533;543;551;567
488;599;673;718;735;716
498;415;380;369;378;400
496;459;432;420;422;450
507;626;697;737;748;728
520;492;489;495;504;507
525;431;375;348;346;378
528;620;671;698;704;697
528;575;614;639;649;633
530;424;370;345;347;377
533;564;576;581;583;591
535;641;711;752;763;736
539;454;416;402;407;424
526;494;471;459;460;484
516;644;721;765;777;757
505;487;492;504;518;526
451;387;352;338;348;388
341;491;583;639;669;680
235;349;440;504;551;566
211;155;146;162;205;271
230;286;327;365;405;449
358;432;494;542;573;571
574;398;306;265;259;279
661;550;464;409;376;382
621;719;756;761;736;688
576;551;536;523;505;486
555;479;426;392;374;387
557;660;718;745;743;720
567;607;643;666;671;647
577;467;410;384;382;404
575;610;624;630;630;632
569;674;742;781;792;763
571;482;442;427;432;449
563;535;514;503;504;525
561;685;760;802;813;791
561;531;528;535;546;552
551;470;423;401;402;438
542;649;710;746;757;751
537;580;620;648;663;655
535;435;384;363;369;403
527;573;593;606;614;625
521;629;702;746;763;741
521;436;399;388;398;423
510;490;474;467;473;500
505;634;714;760;775;759
504;476;476;485;499;511
494;418;374;356;360;400
488;599;663;701;715;713
482;525;565;594;611;606
476;378;329;311;320;357
467;517;542;559;570;583
463;570;642;688;707;689
466;378;340;330;341;370
459;440;424;420;427;455
459;585;664;709;726;711
466;431;427;434;448;461
463;383;337;317;320;360
464;572;633;669;681;675
465;499;534;559;573;566
472;368;313;289;293;327
472;518;538;550;555;563
478;575;641;680;693;666
493;396;352;334;339;362
500;476;454;443;443;463
515;629;698;736;744;720
533;486;472;470;474;479
538;454;401;374;369;397
548;649;704;732;736;720
555;579;604;621;627;612
562;454;394;364;360;386
562;608;627;634;633;634
564;659;722;757;764;735
569;472;427;407;409;428
560;543;527;518;517;535
559;683;758;801;811;788
563;520;511;514;523;531
557;481;434;412;413;447
556;667;729;764;773;762
555;582;611;633;647;638
554;451;395;371;374;406
548;601;626;640;646;653
545;642;708;746;761;737
547;452;409;393;400;425
540;527;514;509;512;535
535;661;739;783;798;779
539;497;487;491;502;514
536;462;417;398;400;436
535;649;714;750;761;750
535;560;589;611;624;618
534;433;379;354;358;390
531;588;615;630;637;643
528;623;689;728;742;720
533;437;393;376;383;410
528;518;507;503;505;527
521;647;726;771;786;767
519;476;468;472;484;497
510;442;402;384;388;424
505;623;692;732;745;735
498;524;555;580;596;594
490;393;343;323;330;367
485;547;579;599;610;620
486;579;644;685;703;685
495;397;353;336;345;375
497;487;476;472;475;498
503;623;698;742;755;736
517;464;447;445;454;465
521;446;399;376;375;407
529;640;701;734;741;724
536;549;569;585;594;585
537;432;373;345;343;371
537;595;622;636;640;641
539;626;686;720;729;705
544;443;395;375;378;403
535;531;523;518;518;536
527;653;733;777;790;769
521;475;465;466;477;490
497;439;404;390;395;431
440;583;668;719;739;731
337;403;463;508;542;554
251;211;202;213;247;305
237;337;407;459;502;538
271;368;447;508;551;560
422;278;213;194;208;253
614;518;452;416;399;414
669;723;742;743;720;679
622;550;504;470;444;431
566;509;461;426;402;411
548;678;747;779;773;738
551;566;589;607;611;593
557;456;400;374;370;393
564;625;656;674;678;674
565;645;701;734;745;719
566;462;413;392;397;422
558;559;552;549;550;567
554;677;754;797;811;789
555;500;483;480;489;502
545;485;446;428;430;464
541;664;735;774;784;769
540;550;572;591;606;603
534;437;385;361;365;399
528;600;638;660;670;675
522;606;667;706;721;704
521;422;378;361;370;402
510;518;519;520;527;548
505;630;711;759;777;761
506;451;435;435;447;465
495;439;405;391;395;432
488;613;687;730;744;731
482;493;515;537;554;555
477;383;332;311;317;354
473;548;589;614;627;634
470;551;611;650;667;654
470;371;325;310;320;355
457;470;471;475;482;505
454;578;659;708;728;713
459;400;383;382;395;415
456;399;364;350;354;390
458;579;650;691;704;690
466;467;483;500;514;513
469;371;315;289;291;324
473;545;583;604;612;614
478;551;604;637;650;631
490;384;332;311;314;344
494;500;496;493;494;509
507;620;691;732;743;720
522;452;423;413;416;428
529;466;424;402;398;422
538;653;716;750;753;729
549;542;550;560;565;557
556;452;391;360;353;379
561;632;667;685;685;680
564;631;680;708;716;692
571;463;409;385;385;411
568;577;574;572;570;582
567;683;757;798;809;785
565;499;474;467;472;485
559;505;470;452;452;481
556;679;750;788;797;776
556;553;567;581;593;590
554;457;402;377;378;410
553;631;674;698;707;707
548;618;670;704;717;702
548;445;396;376;383;416
543;560;563;565;570;587
541;660;738;782;798;779
544;477;451;445;454;471
537;487;455;440;442;473
533;658;731;772;783;765
537;531;545;558;571;571
534;440;387;362;364;397
531;614;660;686;696;697
530;598;649;683;697;682
533;429;381;360;367;400
525;545;551;555;559;576
518;638;716;763;780;761
517;449;425;420;430;449
502;459;431;420;424;456
493;621;698;743;758;743
490;486;500;518;534;539
489;398;347;326;331;368
489;574;622;652;664;669
491;555;605;638;655;643
502;396;344;323;330;364
505;523;527;529;532;547
515;625;698;739;752;730
530;450;416;403;408;423
530;480;444;426;423;448
533;654;722;759;765;742
538;524;529;538;546;543
539;444;388;360;358;387
541;626;671;697;703;699
542;602;647;676;687;670
542;438;386;364;367;397
528;556;565;570;574;586
518;638;717;763;779;757
499;434;412;408;420;440
429;415;406;405;419;454
328;504;613;681;715;713
267;305;354;399;443;470
269;205;183;189;222;284
319;406;465;511;547;571
482;483;498;519;534;531
656;461;348;288;269;292
673;644;602;565;532;521
604;712;766;782;765;716
561;497;464;442;428;425
539;511;489;473;464;475
542;669;747;788;795;763
554;535;540;551;560;556
562;467;411;386;385;414
562;651;699;726;734;728
558;612;655;683;694;679
559;455;402;379;383;414
553;583;594;599;602;613
548;662;737;780;794;771
551;472;439;428;435;454
541;505;480;469;471;497
535;662;737;780;793;773
533;516;522;534;547;552
526;441;393;372;375;411
518;617;673;707;720;719
515;570;615;646;662;654
514;414;365;346;354;390
507;541;556;566;574;590
502;614;689;734;752;733
504;424;392;383;393;416
489;460;439;431;437;466
482;610;688;733;749;733
480;462;467;481;496;506
473;391;344;325;331;370
465;567;626;662;677;677
464;516;561;592;609;602
465;365;316;297;306;343
464;500;515;526;534;549
463;572;646;690;706;686
472;388;353;342;351;374
466;436;414;404;407;434
470;592;666;709;722;703
477;450;450;459;470;476
477;392;341;319;319;354
480;578;633;665;674;669
489;531;567;593;605;593
503;395;338;313;315;345
511;542;552;557;558;565
520;620;685;722;731;703
535;442;399;381;382;397
539;504;476;460;456;475
548;664;731;768;773;745
558;523;515;517;522;523
558;470;415;388;384;412
559;657;710;737;743;731
559;598;632;655;664;648
563;458;402;376;376;405
558;597;613;620;622;628
555;659;728;767;778;753
560;471;431;416;422;441
553;527;506;496;497;520
552;674;749;790;802;780
554;523;519;525;536;544
547;467;419;397;398;433
543;649;709;743;753;747
541;581;618;644;657;648
541;440;388;366;370;403
537;580;601;612;618;628
533;637;707;749;764;741
536;448;409;396;405;428
530;508;490;483;488;512
532;655;730;773;787;768
536;502;497;503;515;525
530;451;404;382;385;421
525;634;695;729;740;734
519;557;594;620;634;626
515;416;365;344;350;385
504;553;577;592;601;612
494;600;672;716;734;715
488;403;369;359;370;397
482;466;453;450;458;485
486;609;687;733;751;735
501;461;454;459;473;486
499;419;371;349;352;390
505;610;669;702;712;704
516;543;572;592;603;595
529;420;362;334;334;364
531;575;593;601;601;606
532;628;692;728;736;710
540;444;400;382;384;404
538;519;501;491;490;508
542;662;735;776;786;763
550;507;497;499;507;513
543;466;419;396;396;428
536;648;710;745;754;743
525;559;592;617;630;622
502;411;365;346;352;387
431;512;556;583;600;615
316;470;576;644;682;677
243;209;214;237;278;330
230;252;275;304;344;398
274;401;494;560;604;615
454;355;319;316;333;358
630;460;354;298;277;304
655;708;718;710;685;653
600;614;618;610;591;559
566;471;409;370;349;358
551;611;637;645;636;624
558;653;717;751;756;719
574;473;426;406;406;421
576;559;542;532;529;542
576;695;768;807;816;790
578;532;519;518;525;531
570;497;453;431;431;461
567;681;745;781;789;775
563;586;614;636;648;641
559;460;407;384;386;418
550;609;638;655;662;669
543;638;705;745;759;739
542;449;408;393;401;429
533;528;520;518;522;546
527;653;732;779;795;778
527;484;475;479;493;507
518;450;411;394;401;437
516;632;700;739;753;744
512;534;561;584;601;599
510;412;360;337;342;378
501;563;594;613;624;632
492;586;652;692;708;691
486;395;355;341;352;384
476;476;473;473;480;505
475;599;680;727;747;732
479;432;422;425;439;455
473;407;368;352;357;394
474;591;659;699;711;701
474;492;518;540;555;552
477;378;325;302;306;340
476;538;568;587;595;602
478;565;626;663;677;657
486;387;341;323;329;357
485;482;474;470;472;491
490;609;684;728;741;721
502;448;430;428;436;447
506;435;392;371;371;401
515;627;690;724;731;714
526;533;550;566;574;566
536;430;370;341;338;365
540;597;624;638;640;639
546;624;678;709;717;691
556;451;398;375;377;399
555;551;540;533;532;545
553;671;744;785;794;770
561;503;484;480;485;494
557;491;449;429;428;456
557;673;739;774;782;763
558;565;584;601;612;606
556;457;401;375;375;405
552;618;652;671;677;679
547;629;689;723;737;716
550;450;403;384;392;421
543;547;544;543;546;565
539;661;738;783;798;779
541;487;469;468;478;492
537;477;440;423;426;458
535;655;725;764;775;759
538;544;563;581;594;592
537;440;386;361;363;395
533;603;640;661;670;673
529;609;666;703;717;699
533;433;385;368;376;406
525;534;533;532;537;556
517;639;717;763;781;763
517;461;444;442;453;471
506;451;417;402;407;441
499;623;696;739;752;738
492;501;523;544;560;561
491;398;347;326;330;366
491;564;604;629;640;647
494;570;625;661;677;662
502;399;350;331;338;371
501;509;507;506;510;529
511;625;698;741;755;735
527;459;433;425;431;445
532;469;428;407;404;432
537;653;718;753;758;736
540;538;550;562;569;564
541;443;387;359;356;383
546;617;654;675;679;677
545;617;668;701;710;689
548;444;394;373;377;406
536;551;552;552;555;571
525;648;727;772;787;768
509;455;438;437;448;465
446;418;402;398;408;445
334;509;617;683;716;714
245;305;368;421;467;492
232;176;162;174;212;276
259;348;410;461;502;536
406;433;466;499;524;526
615;416;307;254;242;269
674;617;559;515;482;477
622;719;762;772;750;703
580;519;484;459;440;430
559;516;482;458;442;452
561;686;757;792;792;757
573;565;575;586;591;579
582;481;423;395;391;415
584;660;699;720;724;718
576;643;693;722;732;710
574;472;422;400;403;432
565;584;589;591;594;608
561;678;755;799;814;792
563;495;470;463;471;487
553;506;476;462;465;494
545;671;746;787;799;781
544;539;551;566;581;582
538;448;397;375;378;413
533;619;667;695;708;710
525;593;646;681;697;684
526;425;377;360;369;403
515;539;548;555;563;581
507;626;704;752;771;754
504;437;413;408;420;441
494;452;426;415;422;454
489;615;691;735;750;735
487;480;492;507;524;530
478;391;343;322;327;365
474;563;615;646;660;664
469;534;586;621;638;628
472;371;323;306;315;352
469;494;504;510;517;535
469;584;660;706;724;705
475;402;373;365;374;394
473;431;403;389;393;421
474;598;670;711;723;704
483;468;474;485;497;498
485;393;340;316;316;349
490;576;623;651;659;658
496;552;595;624;635;619
512;403;347;324;326;356
516;537;541;543;543;553
523;630;699;739;750;723
536;454;417;403;405;419
539;492;458;440;437;459
544;662;730;765;771;746
555;531;530;536;543;540
558;463;406;378;373;402
561;647;693;718;723;716
563;614;655;680;688;671
567;460;405;380;381;410
563;590;598;601;602;611
559;670;742;783;795;769
563;484;450;437;442;459
554;516;490;477;478;503
550;674;748;789;800;779
550;532;536;546;557;562
544;459;409;386;387;422
542;638;691;722;733;731
538;593;637;666;681;670
541;439;388;367;372;406
538;570;582;590;596;608
536;647;720;763;778;756
540;460;426;414;421;442
533;499;475;464;467;493
531;656;730;772;784;765
532;510;513;523;536;541
525;441;392;371;373;408
521;619;675;708;720;718
513;565;610;640;655;646
514;413;363;344;351;386
504;543;559;569;577;590
492;606;682;728;747;727
493;414;383;374;385;410
489;459;438;431;437;466
489;614;690;734;749;733
500;472;473;482;495;503
499;413;362;339;341;378
506;603;655;686;695;691
518;558;593;617;628;616
531;422;364;338;339;369
536;568;577;582;582;589
539;641;707;745;754;726
545;457;416;399;402;418
540;509;485;473;471;491
542;664;737;776;785;762
546;516;513;518;528;532
541;458;408;384;384;417
530;635;694;728;737;730
518;566;608;636;650;641
481;395;354;339;348;385
390;470;515;545;565;586
268;437;555;630;675;675
225;191;200;225;270;323
225;226;240;263;302;360
312;421;499;556;593;600
528;415;368;355;361;375
673;495;378;312;281;301
658;717;726;718;688;653
599;636;651;650;630;592
570;477;419;383;364;373
562;611;630;635;626;616
565;669;738;775;780;743
581;487;444;427;429;440
577;551;529;518;516;533
576;697;770;810;819;794
577;542;537;541;550;554
570;492;443;421;420;454
564;672;732;767;775;766
558;598;632;657;670;661
556;456;404;382;386;419
547;596;619;632;639;648
541;645;715;757;773;752
543;454;416;403;412;437
531;515;501;495;500;525
526;652;731;776;792;775
526;491;488;495;510;523
518;443;399;380;385;424
510;622;686;724;737;733
504;541;576;604;620;616
500;402;352;332;339;376
493;545;571;587;595;609
486;588;660;703;720;702
485;397;359;348;358;387
473;461;451;448;454;481
468;596;676;723;742;727
472;435;432;440;455;469
466;394;350;333;339;378
465;577;642;680;694;688
467;498;530;555;571;567
473;371;318;296;300;335
473;524;548;561;568;577
476;571;637;675;687;665
487;391;347;330;336;361
486;470;455;447;448;469
491;611;685;728;739;718
502;457;446;447;455;464
508;429;381;358;357;389
518;623;682;714;720;706
529;548;571;589;597;586
539;430;370;341;339;367
544;591;611;620;620;621
551;638;696;729;736;708
562;460;411;389;389;408
561;544;528;517;514;529
562;680;752;791;800;774
567;519;505;504;511;516
560;487;441;419;418;448
560;672;734;769;776;762
559;581;606;626;637;629
556;455;401;377;378;408
551;608;636;652;657;662
549;641;705;742;755;733
551;455;411;395;402;428
545;538;527;523;527;548
541;665;742;786;801;781
545;499;487;488;499;512
540;471;430;410;413;448
537;653;720;758;768;755
536;556;582;603;618;614
537;437;383;360;363;396
534;593;623;641;648;655
532;621;683;721;736;715
535;438;393;376;384;411
530;525;516;513;516;537
526;649;726;771;786;766
528;479;466;468;479;492
517;453;413;396;400;435
516;633;701;740;752;741
510;528;555;577;592;590
499;405;355;334;339;374
487;555;592;614;626;634
486;576;640;681;699;684
495;397;352;337;347;379
499;495;486;484;489;511
501;620;696;739;755;737
513;457;440;437;447;460
517;448;405;384;384;415
527;639;702;736;743;726
536;543;561;576;584;576
540;436;377;350;348;376
538;601;630;647;650;651
539;621;677;711;721;698
548;446;396;375;378;404
546;545;538;532;532;548
542;663;738;781;794;771
541;488;471;468;477;488
528;469;432;416;418;449
499;628;704;748;762;749
423;466;508;541;566;572
304;266;255;261;288;340
227;354;438;498;542;575
220;336;432;503;555;569
275;179;147;152;188;247
450;393;359;350;360;393
634;657;669;673;664;636
669;549;475;427;398;390
610;537;472;423;389;393
575;699;760;780;764;721
562;575;593;603;599;576
565;470;416;388;379;395
571;639;674;694;695;686
576;649;703;735;744;717
580;476;425;403;406;431
572;578;575;573;574;587
566;687;763;806;819;796
569;509;489;484;492;504
559;503;468;451;452;482
555;677;748;787;797;779
551;556;575;593;606;604
546;452;400;377;380;413
538;615;656;681;691;696
532;610;667;704;720;706
530;431;385;369;378;413
522;535;537;540;547;568
514;636;716;763;782;765
513;454;435;434;446;465
501;451;419;406;412;446
497;621;695;737;751;738
493;497;516;535;551;554
487;396;345;324;329;365
478;559;604;631;645;651
472;549;606;644;662;650
471;374;328;313;324;361
464;482;487;492;500;522
463;584;664;711;730;715
470;407;385;382;393;412
466;415;382;369;373;406
471;591;662;702;715;699
477;472;486;500;514;513
478;383;328;304;305;337
479;558;599;623;632;633
483;551;601;633;646;630
494;389;337;316;320;352
499;511;510;510;513;526
507;618;690;732;744;721
520;446;416;405;410;422
525;467;429;410;407;432
532;647;713;747;753;729
544;530;535;544;550;544
553;451;390;361;355;382
557;633;671;691;694;688
557;619;664;692;700;678
563;456;402;378;379;406
561;576;577;577;576;587
558;672;745;787;798;773
561;490;462;451;456;470
555;507;475;459;459;485
553;676;747;785;795;774
555;546;555;567;577;576
552;461;407;383;382;414
550;635;681;709;718;717
545;610;659;692;705;690
548;446;395;376;382;415
541;564;571;576;581;596
540;655;731;775;791;770
543;471;442;434;442;460
538;493;464;450;453;482
534;657;730;771;783;764
534;523;532;544;557;559
531;440;388;364;367;402
532;619;667;695;706;706
529;589;637;667;681;668
534;430;379;358;364;397
528;553;561;566;570;585
526;640;714;758;773;752
526;452;423;414;421;440
514;476;450;438;441;470
509;635;711;754;767;748
509;496;505;519;533;537
500;414;365;344;348;385
494;588;642;674;688;690
490;551;599;633;649;640
497;395;346;327;334;371
492;521;533;540;547;562
493;606;681;726;741;721
503;424;392;382;390;409
510;467;438;424;425;451
522;638;707;745;754;733
531;507;507;514;522;522
536;442;385;358;355;385
537;627;675;702;707;701
537;589;629;656;665;649
543;438;384;360;361;391
541;569;579;583;584;594
540;649;720;762;774;748
541;461;426;414;420;436
531;496;472;460;461;486
518;646;723;766;778;759
481;476;489;507;524;531
386;340;317;314;331;376
272;432;531;595;635;656
237;335;419;485;534;553
260;177;152;161;196;261
350;362;372;389;413;448
540;571;598;619;626;606
669;501;405;350;326;329
645;575;509;459;424;423
584;710;768;787;770;723
560;547;546;544;537;520
551;473;425;398;389;408
552;654;711;741;745;730
557;603;644;670;679;661
572;463;408;384;385;412
569;601;613;619;621;627
564;670;740;781;791;765
565;480;443;429;435;453
556;526;504;493;495;518
550;674;749;792;805;784
551;524;525;534;546;553
544;460;412;390;393;428
538;641;699;734;745;741
532;578;619;648;663;654
533;432;381;359;365;401
526;567;585;596;602;615
516;626;699;743;759;739
515;433;397;387;398;422
504;481;464;457;463;490
498;625;704;750;766;749
496;470;472;483;498;510
486;409;365;347;352;391
480;588;651;689;703;702
475;520;561;592;609;604
473;375;327;309;317;354
468;513;534;549;558;572
463;571;643;689;706;688
468;382;346;335;346;372
462;440;424;417;422;450
463;588;664;709;724;707
467;436;434;442;456;466
466;386;339;319;322;359
469;574;633;668;679;674
473;509;543;568;582;574
481;377;322;299;301;334
486;526;543;553;557;565
493;590;655;693;704;678
509;412;367;350;354;373
515;487;464;451;449;468
523;639;708;746;754;729
535;493;482;481;487;492
541;455;402;375;370;400
548;648;703;732;736;722
556;582;609;627;634;620
561;454;394;366;363;390
562;605;621;629;629;630
561;658;722;759;766;737
567;473;429;410;413;431
559;541;524;514;514;532
558;680;756;796;808;784
559;522;515;518;527;535
553;477;431;410;411;445
549;660;723;758;768;759
545;577;610;634;647;640
544;444;391;369;373;406
542;592;616;630;637;644
538;637;703;743;758;736
542;448;407;392;400;424
534;520;507;500;505;528
532;655;731;776;791;772
537;495;488;491;503;514
531;456;412;392;394;430
530;641;704;740;752;742
530;557;586;609;623;616
529;429;375;351;354;388
527;580;605;620;626;633
525;620;686;724;737;715
532;436;393;377;383;408
526;514;502;496;499;520
526;649;725;769;782;763
527;485;476;478;490;501
524;452;408;388;390;425
521;635;701;737;748;737
517;543;572;595;609;604
513;416;363;341;345;379
503;563;593;611;620;628
492;590;659;701;717;699
491;401;361;348;358;388
490;483;476;474;479;504
493;615;693;739;756;739
501;454;443;445;457;471
500;428;385;365;368;403
505;617;681;717;727;716
518;532;554;572;584;578
527;420;361;334;333;364
530;583;607;620;623;625
533;619;676;711;720;694
539;438;390;369;372;395
535;528;516;509;508;525
539;658;732;773;784;761
545;494;479;477;484;493
538;470;427;406;405;437
530;648;715;752;762;747
524;544;570;592;605;600
491;406;361;342;348;383
407;504;560;594;614;628
286;436;542;611;652;652
230;190;191;212;255;312
229;257;283;314;353;406
312;422;504;564;604;611
505;383;331;315;323;344
643;490;388;329;304;324
641;714;735;733;707;668
589;598;600;594;577;547
561;470;410;373;354;364
553;621;653;666;661;648
557;641;700;733;738;705
571;467;416;395;396;416
573;568;558;552;550;562
572;689;762;803;813;787
575;519;500;496;502;510
564;500;460;441;441;470
559;678;746;784;793;775
555;566;588;607;620;615
553;456;402;378;380;411
543;612;648;670;679;683
535;620;682;719;734;717
536;439;393;377;386;418
526;534;532;533;539;560
522;646;725;771;788;771
525;471;455;455;467;483
515;457;421;406;412;446
509;632;704;745;758;745
504;515;538;559;575;575
500;406;356;335;339;375
491;565;605;630;642;648
486;570;630;669;687;672
484;388;343;329;340;374
476;487;488;491;499;522
470;593;673;722;742;727
476;419;402;401;414;433
469;412;379;364;369;405
469;590;661;703;716;702
472;476;494;513;528;529
473;377;323;299;302;337
476;547;584;606;615;620
479;554;608;642;655;638
487;384;334;313;319;350
489;495;492;490;492;509
493;609;683;725;739;717
506;440;416;408;414;427
506;447;408;388;387;415
514;631;697;732;739;718
522;519;530;543;551;545
529;428;370;342;339;367
534;605;639;659;663;661
539;608;657;687;695;674
552;444;389;366;367;394
554;561;556;553;551;564
554;669;742;782;792;767
562;494;468;458;463;473
557;501;465;445;444;469
557;676;745;782;790;767
555;552;564;578;588;585
553;458;403;377;376;407
549;627;668;693;702;701
546;617;669;702;716;698
547;445;395;375;381;413
542;557;561;562;567;582
540;657;733;777;792;773
543;476;451;445;453;470
537;486;453;438;440;470
536;658;729;768;779;761
538;532;545;558;570;570
535;441;388;364;364;398
531;613;658;684;693;695
527;596;649;682;696;681
529;427;378;360;366;400
527;545;550;554;558;575
526;642;718;763;778;759
530;461;434;427;435;453
525;477;445;431;433;462
524;647;719;759;771;752
528;518;529;542;554;555
526;433;380;356;357;390
525;609;655;681;690;690
525;589;638;669;683;668
530;425;374;353;358;391
525;546;551;555;558;574
524;639;713;757;772;751
529;457;428;419;426;442
524;478;448;433;434;462
524;646;718;758;769;749
522;511;520;532;545;546
518;427;376;352;353;387
508;598;648;678;689;690
495;563;615;649;665;653
487;391;346;331;340;376
482;510;523;532;541;559
489;603;679;726;745;726
499;424;394;385;395;415
495;452;424;409;413;441
503;623;695;734;746;726
518;498;501;509;520;521
523;427;371;344;342;373
529;614;659;683;690;685
531;587;628;655;664;647
534;429;375;352;354;383
532;558;565;568;570;580
534;645;717;759;771;746
540;462;429;416;422;437
533;492;465;450;451;476
528;652;726;766;777;756
525;509;515;526;539;542
493;415;370;351;356;393
411;537;611;656;679;686
277;398;489;552;593;601
190;157;161;184;228;293
174;246;300;348;396;446
232;348;439;508;556;569
417;280;220;203;218;254
608;470;378;328;307;327
655;710;722;716;688;644
614;574;544;517;491;465
581;494;429;384;355;361
570;669;717;736;725;697
570;623;663;686;685;654
581;475;419;393;388;407
584;612;621;624;622;622
580;688;757;797;806;775
581;499;462;448;453;466
573;539;513;500;500;521
569;693;768;808;818;795
569;546;548;557;568;571
561;476;427;404;406;439
555;654;711;743;754;751
547;598;641;670;686;675
546;445;394;374;381;416
537;575;592;602;610;623
531;642;715;760;777;756
535;452;417;406;416;439
522;494;473;464;469;497
512;640;719;763;778;762
510;488;492;503;519;528
505;423;377;357;362;401
500;603;662;697;711;711
492;542;584;614;631;625
490;392;343;324;332;368
480;524;544;557;566;580
476;587;661;707;725;706
477;396;362;353;363;389
471;446;428;421;427;456
471;597;674;720;735;718
477;448;449;458;472;483
475;393;346;324;327;365
477;579;637;671;683;679
478;520;557;584;598;589
489;384;329;306;309;343
490;529;545;554;558;567
493;594;663;703;714;690
500;409;369;354;360;380
502;473;451;440;441;462
510;629;700;740;749;727
521;483;476;479;488;492
526;439;387;360;358;390
536;633;687;716;721;711
543;574;604;624;632;618
553;443;384;356;354;382
555;593;607;613;612;616
553;652;717;753;762;733
559;467;424;406;408;426
558;533;512;500;499;518
558;679;752;793;802;778
560;524;518;522;531;535
554;475;427;404;405;438
554;660;720;753;762;753
550;585;619;643;656;647
552;449;396;373;376;408
547;594;616;628;633;641
542;643;711;752;766;742
548;456;415;401;408;431
542;523;507;500;503;525
539;663;739;782;796;777
541;504;498;502;514;524
536;459;415;393;396;432
535;643;706;741;752;745
535;565;597;621;634;628
536;434;380;357;360;393
532;581;604;618;624;632
528;626;692;733;747;725
532;439;397;382;389;414
528;512;497;490;494;517
528;650;726;769;783;764
531;490;482;485;497;508
526;451;406;385;388;423
525;636;700;735;746;737
525;554;584;606;619;613
526;426;372;349;351;384
524;577;601;616;622;629
522;618;683;723;737;714
530;435;391;375;382;406
525;512;500;494;496;518
526;648;724;767;780;761
529;486;477;480;489;500
525;452;409;389;390;425
525;637;701;737;747;736
526;550;578;599;612;606
523;423;369;346;348;382
517;574;601;617;624;630
504;602;669;710;725;705
498;408;369;357;367;395
482;480;475;474;482;507
480;607;688;736;756;740
490;445;436;440;455;470
493;420;378;359;364;400
493;605;670;707;719;710
498;517;541;562;576;572
509;404;347;321;322;355
518;570;593;607;610;614
525;610;666;701;710;685
536;435;384;363;364;388
532;523;510;503;501;517
529;650;725;767;778;754
534;485;471;470;478;487
531;463;421;400;400;430
529;645;711;747;756;741
526;544;570;590;602;597
517;421;370;348;349;382
493;563;600;623;632;641
424;541;621;671;695;683
305;268;264;276;307;353
190;259;307;347;389;440
166;335;459;545;604;623
204;171;183;214;261;309
353;244;189;174;191;248
562;582;589;594;589;574
662;589;544;515;490;464
630;497;401;336;296;298
590;650;663;656;629;602
572;660;712;734;724;677
578;479;429;402;392;400
578;576;567;559;551;554
584;700;773;812;819;786
589;532;513;507;511;514
580;516;475;455;453;478
573;693;761;796;804;784
572;582;604;622;634;627
567;470;416;392;393;423
562;629;665;685;693;696
552;637;697;734;749;730
553;455;409;393;401;431
543;549;548;547;552;573
536;659;739;786;803;786
537;483;467;467;479;496
527;470;434;418;423;459
520;642;714;755;769;757
517;527;549;569;586;587
511;417;366;345;349;385
505;578;617;642;653;660
499;581;641;680;697;682
496;400;355;340;351;385
487;497;498;501;509;531
479;604;684;732;752;737
477;423;407;408;422;441
467;414;382;369;375;412
464;588;661;703;718;707
468;474;493;512;529;530
467;373;321;298;303;338
466;540;580;604;615;620
466;544;600;636;651;635
473;372;323;306;315;346
477;484;482;482;486;504
480;597;671;715;730;712
490;426;403;396;403;418
488;431;395;376;376;405
496;613;681;718;726;706
511;506;517;529;538;533
523;420;360;331;327;355
529;598;632;651;654;651
537;603;650;679;687;664
549;440;384;360;360;386
549;556;551;547;545;557
553;666;737;777;786;761
563;493;465;455;458;466
562;504;465;445;442;466
561;679;746;782;789;765
564;558;569;581;589;584
562;465;409;382;380;408
560;637;677;701;707;706
557;626;676;709;721;702
559;456;406;385;390;420
553;569;572;573;576;591
550;668;744;788;803;782
556;488;463;456;464;479
547;498;466;450;453;481
545;668;740;780;791;771
545;540;553;567;580;580
544;450;397;373;375;408
539;622;667;693;704;705
536;604;656;689;703;689
537;436;387;368;374;408
533;553;558;562;566;583
533;648;725;769;785;766
536;466;439;432;441;457
530;482;452;437;440;469
530;652;723;764;775;756
532;522;532;544;557;558
531;438;383;358;360;394
526;611;658;685;695;697
525;588;638;670;683;669
529;426;375;355;360;394
528;549;554;558;562;576
528;642;716;760;774;754
535;460;430;420;427;444
529;484;453;438;439;467
528;652;723;762;773;753
529;518;526;537;549;549
529;438;386;361;361;393
526;614;663;691;701;700
525;585;634;665;678;664
529;426;375;355;361;394
523;548;557;562;567;582
522;636;711;756;770;750
529;453;422;413;420;438
523;482;454;439;442;469
524;647;720;760;771;751
527;512;518;528;540;542
525;433;381;357;358;392
519;610;661;690;700;700
511;571;619;651;665;653
510;410;361;342;349;383
497;529;543;552;559;575
487;605;684;731;750;731
488;414;387;381;392;414
486;448;425;415;420;450
490;612;687;729;743;726
495;475;480;491;504;510
495;405;354;329;331;367
500;591;641;670;680;678
507;558;599;627;638;625
516;410;355;332;334;365
519;546;554;558;560;570
520;629;699;739;751;727
528;446;409;395;400;416
525;488;461;447;447;469
529;650;723;761;771;747
534;510;512;519;529;529
531;442;391;366;366;398
521;620;674;705;715;711
507;563;609;640;654;643
478;390;348;333;342;379
400;467;504;529;547;568
284;452;567;641;682;680
223;199;209;236;279;328
228;224;232;255;292;350
292;409;491;549;587;595
453;371;343;341;356;373
623;446;335;274;251;276
666;702;702;688;659;630
616;647;658;653;629;591
577;480;419;379;357;365
557;602;617;619;607;596
558;668;740;779;783;745
568;482;445;430;432;441
572;538;513;500;498;515
576;695;766;805;813;786
577;547;544;548;557;558
569;485;435;410;410;441
562;665;723;755;764;756
555;601;641;668;682;670
553;453;402;380;385;419
545;587;606;618;624;635
540;648;720;763;780;758
541;456;420;408;418;441
530;507;489;481;487;513
525;651;729;773;789;770
526;497;497;505;520;531
519;439;393;373;377;415
513;619;681;716;729;727
505;548;588;617;633;627
504;405;355;335;342;379
495;541;563;577;585;598
490;596;669;714;731;711
488;403;367;358;368;395
475;457;442;437;444;473
473;599;678;725;742;726
475;444;444;452;469;482
467;391;347;329;334;374
465;574;638;674;688;685
465;503;541;568;584;579
468;368;317;296;301;337
467;513;535;548;555;565
469;570;638;680;695;673
476;385;344;331;339;363
475;454;437;429;432;455
481;601;676;718;731;710
491;452;444;448;459;467
494;413;364;340;340;374
504;607;664;695;703;693
512;539;566;587;596;585
523;415;356;329;327;356
530;571;587;595;595;599
538;630;690;725;732;703
551;451;403;383;383;401
553;530;508;495;491;508
560;676;746;783;791;764
567;522;510;509;514;519
566;485;436;411;407;436
569;674;734;764;770;755
564;591;620;641;650;638
564;462;407;381;381;411
561;612;634;647;651;654
556;653;719;757;768;744
558;465;422;406;412;436
553;540;526;520;522;543
550;673;750;794;808;787
553;512;503;506;518;528
548;474;430;411;413;448
545;658;722;758;769;760
541;568;598;621;635;630
542;442;388;365;368;403
538;592;619;635;641;648
534;629;695;734;748;727
538;442;399;384;391;418
534;523;512;507;510;532
529;652;729;773;788;769
531;487;477;480;492;504
528;455;413;393;396;431
528;641;706;742;753;743
529;550;576;598;611;607
530;429;375;351;352;386
528;584;611;627;633;639
529;619;681;719;731;710
531;434;390;373;378;404
525;518;508;504;507;527
524;646;723;767;782;762
528;481;469;470;481;493
526;457;415;395;397;430
525;640;706;743;753;740
527;546;570;590;603;597
530;429;374;350;352;384
528;587;616;633;639;643
525;614;675;713;726;705
528;431;386;369;375;402
522;519;511;508;511;531
523;644;721;766;781;761
528;478;465;464;475;487
526;457;416;397;399;432
524;639;707;744;754;740
525;539;562;581;595;591
526;427;372;347;348;381
523;585;616;635;641;646
519;605;666;704;716;696
526;426;379;361;368;396
520;519;512;510;513;532
518;639;716;761;775;756
519;468;454;453;464;477
506;445;408;391;395;429
491;616;689;729;744;732
482;501;529;552;570;570
484;389;339;320;325;362
491;556;590;612;623;629
493;576;634;670;686;672
500;399;352;334;340;372
497;498;493;491;494;514
503;621;696;739;754;734
516;457;437;432;440;453
519;452;411;390;389;418
521;636;703;738;745;726
523;528;546;562;573;567
524;425;369;343;342;372
528;593;626;645;650;651
528;605;660;695;705;684
534;430;381;361;365;393
521;528;525;524;526;543
503;629;710;757;773;753
483;437;426;428;442;459
419;387;369;366;379;418
301;478;587;654;689;690
190;267;341;400;451;479
161;115;109;128;171;241
191;279;343;397;443;484
335;374;416;456;486;492
567;365;256;206;196;226
664;584;513;462;426;422
629;717;748;750;722;671
595;531;491;459;433;416
576;522;480;447;424;426
574;696;763;793;786;746
584;582;595;605;606;587
592;490;432;402;395;413
592;662;698;716;719;710
583;657;708;741;749;724
583;480;430;410;413;440
572;585;586;586;588;603
567;686;763;807;822;801
568;505;483;478;486;500
555;504;471;456;459;489
548;672;747;787;799;781
546;546;563;581;595;595
539;446;395;373;377;411
533;612;656;683;696;700
529;602;657;692;709;695
530;429;381;363;372;407
518;537;541;545;551;571
512;633;711;759;777;761
513;449;427;424;436;454
500;454;424;412;418;451
491;619;695;738;753;739
488;488;505;523;541;544
483;394;344;324;329;366
476;562;609;638;653;659
469;543;598;636;654;641
472;373;327;311;321;358
466;488;494;501;509;529
465;583;661;710;728;712
471;403;379;373;384;404
467;419;388;376;380;412
467;591;664;705;718;700
472;463;474;488;502;505
476;381;328;302;304;338
481;562;606;631;640;640
483;546;593;624;636;621
496;389;335;314;317;348
501;518;518;519;520;533
509;618;688;729;740;716
523;444;410;398;401;414
526;474;437;419;416;439
533;649;717;752;757;732
542;524;527;534;542;537
547;449;391;362;357;384
551;633;676;699;703;697
555;612;656;682;690;671
564;457;401;376;376;404
561;582;586;588;587;596
560;672;744;785;796;770
564;488;456;445;450;463
556;513;484;469;469;493
553;677;750;789;799;777
554;540;547;557;569;569
549;459;408;384;385;417
546;636;687;716;727;725
544;603;649;680;694;680
546;442;391;371;377;411
542;568;577;583;588;602
539;651;725;769;784;763
545;467;435;425;432;450
538;498;470;458;461;487
536;660;732;774;785;765
537;520;525;535;547;550
533;444;393;370;371;406
527;621;674;705;716;715
526;581;626;657;672;660
530;426;375;354;360;394
528;558;568;575;579;592
524;636;709;753;769;746
529;450;417;406;414;433
523;487;462;449;452;479
524;647;721;762;774;754
528;506;509;518;530;535
528;440;388;364;365;399
524;620;674;704;715;711
524;575;619;647;660;648
528;424;372;350;355;389
526;559;571;578;582;594
524;634;707;749;762;739
531;448;413;401;407;427
525;491;466;455;457;482
524;646;720;762;774;754
526;501;503;511;523;528
524;438;388;364;366;400
522;620;676;707;717;713
520;568;609;637;650;639
520;418;366;345;349;383
519;554;569;578;583;594
518;624;696;738;753;731
523;438;401;388;395;416
518;487;464;454;456;481
520;642;716;758;769;749
523;496;495;502;514;519
518;435;386;363;364;399
516;618;676;708;718;713
514;559;599;626;639;629
513;412;360;340;345;378
506;548;566;578;584;595
495;606;679;724;740;719
488;408;376;367;378;402
473;454;439;436;443;471
477;603;682;729;746;730
486;456;456;465;480;491
486;404;356;335;339;377
485;587;646;680;692;689
490;528;564;590;603;595
501;394;339;316;318;351
509;545;560;569;571;579
515;612;676;715;725;699
527;432;388;370;373;392
520;494;472;460;459;479
521;643;716;756;766;742
530;494;487;490;499;504
526;444;395;371;370;403
522;627;686;719;728;720
517;554;590;615;627;617
505;409;360;340;343;376
481;538;565;582;591;602
421;549;635;689;713;696
311;277;276;289;319;359
183;238;278;313;354;407
144;322;449;537;596;614
174;162;188;228;280;327
295;189;138;126;151;213
526;537;541;547;547;543
667;600;558;530;504;476
654;506;400;330;287;287
604;645;643;625;591;564
585;685;742;763;748;695
585;493;448;422;410;410
585;565;546;533;524;527
590;708;780;818;823;788
595;551;540;539;544;543
586;508;461;438;435;462
581;690;752;785;793;778
575;604;634;656;668;657
570;470;417;394;396;427
559;614;640;655;661;668
553;652;719;760;775;752
554;461;420;407;414;441
546;535;523;519;523;547
539;666;744;789;806;787
539;500;494;498;512;524
526;458;417;399;404;443
519;635;704;743;757;749
514;543;575;601;618;615
510;414;364;344;350;386
502;562;591;611;621;631
496;594;661;704;721;703
494;404;364;352;362;392
483;479;471;470;477;503
477;604;686;734;753;737
480;437;431;436;452;467
470;402;364;348;354;393
462;580;650;690;707;699
459;484;515;540;558;558
460;362;311;291;297;334
457;517;547;566;576;586
459;551;613;653;669;651
464;369;324;309;316;346
464;456;446;443;446;469
469;589;664;708;722;704
481;429;415;415;424;436
482;410;366;346;346;379
488;599;663;698;706;691
497;510;531;549;559;552
509;403;344;317;314;343
517;572;596;610;611;612
526;607;661;694;702;675
539;435;382;359;360;382
544;534;519;510;507;521
551;666;736;775;782;756
562;505;484;479;482;488
562;492;446;422;419;445
566;678;741;773;778;758
568;578;597;612;620;611
568;466;409;382;379;406
563;626;657;673;678;679
561;645;703;737;748;725
562;462;415;396;401;429
558;557;551;547;550;567
554;675;751;795;809;789
558;503;486;484;494;506
551;488;449;430;433;465
547;666;735;772;783;767
544;555;577;596;610;607
543;445;391;367;370;403
541;608;643;663;672;676
536;620;678;714;729;711
538;439;393;375;382;413
535;539;535;534;538;558
532;654;731;776;791;774
535;479;462;459;470;484
529;469;432;416;418;451
530;650;719;757;768;752
532;538;558;575;588;585
532;434;380;355;357;389
529;599;636;657;666;670
526;606;663;698;712;694
531;431;382;364;371;402
527;533;531;531;534;553
526;645;721;766;781;762
531;470;449;445;454;469
528;469;431;415;416;447
527;647;716;754;764;746
530;531;547;563;575;572
528;432;377;351;352;384
526;599;638;660;668;670
524;599;654;688;701;685
526;425;377;359;364;396
522;532;532;534;537;554
524;641;718;762;777;758
529;466;443;438;446;461
523;469;434;418;419;449
523;645;715;754;764;746
526;525;540;555;568;566
526;430;376;351;352;384
523;600;641;665;673;676
521;593;647;682;694;679
524;423;374;355;361;394
521;535;536;539;542;559
518;636;713;758;774;754
522;457;434;428;437;453
517;466;432;417;420;450
516;638;709;749;761;742
516;513;526;541;554;554
509;417;365;341;343;377
500;585;631;658;669;673
486;561;617;654;671;659
480;384;340;326;336;373
476;497;504;511;520;541
480;597;674;722;740;725
489;419;394;389;399;418
486;435;403;389;393;424
493;612;682;720;732;715
505;493;501;511;522;522
512;414;357;329;327;358
516;595;637;659;665;664
518;580;626;656;665;648
522;418;366;343;345;376
519;539;543;545;545;558
522;636;709;752;764;741
531;457;426;416;422;436
526;479;446;430;431;457
519;642;716;755;765;744
508;502;515;529;542;542
484;402;357;338;343;378
429;540;605;645;664;671
322;435;519;576;611;614
208;177;179;200;240;302
168;243;297;345;391;442
188;324;428;505;558;575
311;210;176;177;205;248
532;395;312;271;262;293
671;695;694;683;657;616
658;597;553;517;484;454
605;508;433;379;342;342
579;674;716;728;711;681
574;635;679;701;697;661
584;479;425;400;392;409
586;609;615;617;613;614
587;696;766;807;815;783
586;508;474;462;465;476
574;536;508;495;495;516
568;694;768;808;819;795
568;552;558;568;580;581
562;474;424;400;402;436
557;652;704;736;747;745
549;606;652;684;699;688
550;449;398;379;385;421
539;573;586;595;601;616
530;645;722;768;785;766
531;453;422;414;425;447
522;488;465;456;462;491
516;642;718;762;777;761
516;497;502;513;529;537
508;423;376;354;360;397
500;600;657;690;705;706
493;548;594;626;643;636
491;393;344;326;335;372
481;519;536;548;556;573
473;588;665;712;730;712
473;395;364;357;369;393
464;436;416;409;416;446
461;588;666;712;729;713
464;442;448;459;474;484
461;378;331;310;315;353
461;561;619;653;666;665
462;510;552;581;596;588
470;367;315;293;299;334
473;507;521;530;535;547
474;581;650;692;705;682
485;398;360;346;352;372
485;453;429;417;418;442
493;612;684;724;734;713
506;473;469;473;482;485
514;423;368;341;340;371
524;618;669;697;702;693
531;567;599;620;628;613
546;434;375;347;344;372
552;584;594;598;595;598
557;656;719;755;761;730
569;475;430;410;411;425
567;536;510;495;492;509
566;686;757;795;802;776
568;535;530;533;541;544
565;481;431;405;405;436
563;666;723;755;762;752
560;600;635;659;671;658
561;459;406;382;385;416
557;600;619;630;634;641
553;657;726;767;779;756
559;469;429;415;421;442
548;527;509;501;504;527
542;668;745;788;803;782
544;512;510;515;528;537
539;460;415;394;398;433
536;644;706;741;753;747
537;572;607;632;646;639
539;437;384;361;365;399
538;582;603;615;620;629
535;635;702;743;756;733
539;447;406;391;398;422
531;512;496;489;492;515
532;654;729;772;787;767
536;498;491;495;507;517
533;455;408;386;388;423
529;639;701;735;746;738
529;561;593;616;629;622
532;430;376;353;355;389
530;579;601;614;619;626
526;625;691;731;744;721
532;439;396;381;387;411
526;511;497;490;493;515
528;650;726;769;782;763
533;492;483;486;498;508
528;453;408;387;389;423
526;638;702;737;747;737
525;553;583;606;620;613
529;427;373;350;352;385
528;580;604;618;623;631
525;621;686;724;737;716
533;437;393;376;382;407
527;515;502;497;499;520
525;647;724;768;781;761
527;484;474;478;489;500
524;450;407;387;389;424
523;636;700;736;747;737
524;547;576;595;608;603
525;424;370;346;348;382
519;576;603;620;625;632
512;606;671;710;724;704
507;415;373;359;368;396
490;489;483;483;488;511
483;611;692;740;760;744
488;445;437;442;456;473
489;420;379;362;368;405
492;606;672;710;723;713
494;513;539;560;575;572
500;399;344;320;322;356
508;562;589;604;610;615
515;600;658;693;704;681
529;426;375;355;358;383
529;520;506;499;497;515
528;647;722;763;773;750
535;484;468;465;473;481
535;465;421;400;400;429
532;648;714;750;758;741
532;546;570;588;600;595
523;426;374;350;351;383
508;576;611;631;640;646
481;579;649;690;709;692
426;354;327;324;341;378
313;365;396;421;447;485
216;401;527;611;661;671
211;199;223;259;307;353
248;192;172;178;212;276
384;459;509;546;568;572
589;507;470;455;450;443
678;498;379;307;270;279
639;676;670;651;617;590
587;674;719;733;714;665
574;481;430;401;387;392
568;574;569;562;552;553
572;692;768;809;815;782
586;526;506;501;504;506
584;518;476;455;453;477
579;697;764;799;806;784
578;584;603;620;631;623
571;474;420;395;396;425
561;632;670;691;699;702
556;638;697;734;748;730
558;457;410;394;401;433
550;557;555;556;561;581
544;665;743;789;804;788
547;489;471;469;480;496
536;479;444;428;431;465
531;653;725;765;778;762
525;533;554;573;588;588
518;425;375;353;357;393
511;586;628;653;665;671
504;584;643;682;699;686
505;407;360;345;354;390
494;508;510;514;521;543
486;610;690;739;759;744
486;430;413;412;424;444
474;424;394;381;387;422
469;594;670;713;729;715
468;473;493;514;531;533
464;372;323;302;307;344
460;539;582;609;622;628
459;535;592;629;646;633
462;362;316;300;309;345
461;474;476;480;485;506
462;580;657;704;720;703
472;406;383;379;388;404
472;416;381;365;368;398
476;594;663;701;712;693
487;480;491;503;514;512
498;396;339;311;309;338
508;578;615;634;640;638
518;580;626;654;662;642
534;423;366;340;340;366
543;549;544;540;536;546
552;660;728;766;773;746
568;491;457;444;444;452
568;510;470;448;442;464
573;689;754;787;790;763
578;567;573;581;587;580
578;481;424;394;390;416
577;657;698;720;725;721
576;641;689;719;728;708
576;473;421;399;402;431
568;589;593;595;597;610
565;681;757;801;815;792
569;499;471;463;470;485
560;514;483;469;472;499
558;682;755;794;805;786
560;550;560;573;585;585
555;463;411;387;389;422
550;636;683;711;722;723
546;610;659;692;706;693
548;445;395;376;382;417
544;567;574;579;583;599
542;657;731;776;792;772
547;473;443;434;443;461
539;495;466;452;455;483
538;661;734;774;785;766
542;528;535;546;559;560
538;447;394;370;371;405
535;623;673;701;712;711
534;593;641;671;686;672
535;433;382;361;367;400
533;560;569;574;578;592
532;645;720;764;778;756
540;463;430;420;427;445
535;493;465;452;454;480
536;659;731;771;782;761
540;523;527;537;548;550
536;447;395;371;371;404
532;624;676;706;716;714
530;587;632;662;676;663
533;430;379;359;364;397
530;559;570;576;581;594
528;639;712;756;771;749
532;453;419;409;416;435
527;489;463;451;453;480
528;650;723;764;776;755
532;511;514;523;535;538
523;437;388;364;365;399
514;612;668;700;711;709
505;562;609;640;655;645
496;399;353;336;344;380
484;523;541;555;563;579
485;597;673;721;739;721
493;412;380;371;381;404
492;458;434;424;429;457
493;616;691;732;747;728
504;479;479;486;498;504
510;421;369;343;343;377
519;611;662;691;698;693
524;568;605;629;639;625
532;425;369;343;344;374
527;562;574;580;581;589
526;633;703;744;755;729
534;449;410;396;401;419
532;499;475;463;463;486
530;653;727;768;779;756
528;502;503;510;522;526
513;433;387;366;368;403
494;603;666;702;716;713
447;512;565;603;624;619
355;298;277;277;300;347
238;343;408;455;492;528
195;352;468;550;603;614
216;154;147;166;209;265
319;269;245;247;270;319
522;561;588;606;612;596
652;533;465;427;406;397
630;509;416;353;316;324
582;683;722;728;706;673
562;608;639;650;640;606
566;465;410;380;368;382
571;611;627;633;627;621
577;676;741;778;783;748
584;491;448;430;431;443
577;552;530;519;517;533
573;696;770;810;820;794
573;540;535;539;550;554
565;487;440;418;419;452
563;669;729;763;773;765
555;594;630;655;669;660
551;451;399;378;383;417
541;589;612;627;634;644
535;639;709;752;768;747
534;446;408;396;405;431
525;508;493;488;494;519
520;645;723;769;785;769
519;485;482;489;503;517
512;437;394;374;380;418
509;619;683;719;732;728
501;537;572;598;615;610
497;399;349;329;335;372
486;541;567;584;593;605
480;584;654;699;716;697
479;392;355;344;354;383
470;459;448;446;453;479
468;594;674;721;739;723
469;433;429;436;452;466
461;390;349;332;338;377
463;575;639;678;692;687
462;492;524;549;565;561
469;368;315;293;297;332
469;521;546;560;567;576
470;565;630;670;684;662
475;381;339;324;330;356
474;460;446;441;443;466
479;599;673;717;731;710
494;446;434;434;443;453
502;422;373;351;349;381
512;617;676;707;714;699
522;539;561;577;585;574
535;426;365;336;332;359
542;590;609;619;618;618
547;633;690;722;729;700
558;456;405;383;383;403
558;543;527;517;514;528
559;677;749;789;797;771
566;517;501;499;505;511
562;490;445;422;420;450
561;674;738;772;779;762
561;580;604;623;634;625
561;460;405;380;381;410
556;615;644;660;665;669
551;642;704;742;754;732
555;459;413;396;402;429
547;543;534;532;534;555
543;666;744;788;803;784
546;498;486;486;498;510
542;475;435;416;418;453
536;653;722;759;771;759
537;552;577;598;612;609
538;438;384;360;363;396
533;595;626;645;653;659
530;616;677;714;728;710
535;437;390;372;379;409
528;527;520;517;520;542
526;648;725;769;784;765
531;478;463;462;472;486
525;461;422;403;406;439
525;642;711;748;758;744
527;538;560;579;591;588
529;430;375;351;352;384
527;593;625;644;652;655
525;609;667;704;716;697
531;431;384;366;371;401
526;528;522;521;523;544
524;645;721;767;781;761
529;474;456;454;463;477
525;464;426;408;409;441
522;641;711;749;759;743
523;532;552;570;583;580
522;425;372;347;350;382
521;590;626;648;656;659
515;596;654;690;704;686
516;418;371;354;361;393
502;512;512;514;519;540
489;615;697;745;763;748
482;431;417;420;432;451
479;424;392;379;386;422
482;603;674;716;730;717
490;492;510;528;543;544
490;392;338;315;317;352
493;563;600;622;631;636
502;574;626;659;672;654
519;411;357;335;338;369
519;524;519;515;514;530
523;639;711;752;762;739
527;464;439;432;437;448
523;467;429;411;410;437
527;646;714;751;758;737
531;529;543;558;568;563
531;433;378;352;351;381
524;601;642;665;673;673
511;589;645;681;695;679
504;408;364;349;357;390
457;489;502;512;524;546
361;523;629;695;727;722
241;245;272;303;343;384
180;186;203;229;272;336
187;337;443;518;569;587
278;261;280;311;350;378
485;311;215;172;170;212
642;623;596;575;553;541
644;661;660;648;620;576
600;488;413;362;331;333
571;591;585;570;546;536
567;686;758;793;789;748
581;509;479;466;461;460
584;529;492;471;464;480
584;703;770;805;808;778
583;574;583;593;600;592
578;484;429;402;401;427
570;655;700;725;734;730
563;631;682;714;727;712
564;463;414;393;400;433
556;578;585;589;594;610
548;667;744;790;806;787
549;480;454;448;458;475
537;494;467;455;460;489
531;657;732;775;788;771
528;520;532;547;563;566
521;432;383;361;365;401
514;603;654;685;699;701
508;573;624;658;676;666
508;408;360;343;352;389
499;526;536;545;552;570
491;609;687;735;754;738
491;420;394;389;400;421
480;442;417;407;414;446
473;600;677;721;738;722
470;460;472;487;503;510
463;377;329;310;316;353
458;552;606;639;654;657
456;517;567;601;619;610
458;359;311;293;302;339
457;486;497;505;512;529
459;572;648;693;709;690
467;390;358;350;357;377
462;423;397;386;389;416
467;589;662;703;715;695
475;455;459;469;481;483
480;388;335;310;310;342
486;576;625;653;662;657
497;545;585;611;622;607
510;401;344;320;320;350
519;541;547;549;548;556
528;630;697;735;743;715
546;456;414;397;397;410
550;506;473;455;450;468
558;673;739;773;778;751
565;537;532;536;540;537
565;473;417;389;384;411
564;657;708;735;740;730
563;610;649;674;684;667
565;461;406;382;383;412
564;596;607;613;615;623
559;667;738;779;790;766
563;480;443;430;435;453
554;523;500;488;490;514
552;676;750;792;804;783
553;528;529;537;550;555
547;463;415;392;394;428
542;643;701;734;745;741
539;586;627;655;670;660
541;439;387;366;372;406
536;575;591;602;607;619
533;641;713;755;770;748
540;453;416;403;411;433
532;504;483;473;476;502
532;655;730;772;784;766
535;505;504;511;523;530
532;448;399;377;379;414
528;631;690;722;733;728
527;569;607;633;646;637
530;427;375;353;357;390
527;568;585;596;601;610
525;629;699;740;754;731
532;442;402;388;396;417
527;502;482;473;475;498
529;651;725;767;779;759
535;500;497;501;512;520
530;449;401;379;379;414
525;633;693;727;737;730
523;561;597;623;636;628
524;424;371;349;353;386
517;564;586;599;605;614
512;617;687;729;744;722
511;425;387;375;384;408
493;479;467;463;469;495
482;613;694;742;760;744
485;454;453;463;480;493
486;409;365;346;353;392
490;597;659;695;708;704
492;524;557;581;595;591
497;394;339;316;319;354
503;547;566;578;582;590
512;605;668;706;716;692
525;427;380;362;365;387
527;504;484;474;473;491
527;646;718;758;768;744
532;491;481;482;490;496
532;453;406;383;381;413
535;641;702;735;743;730
533;560;589;610;621;611
531;430;376;352;353;384
518;573;600;614;620;626
505;608;678;720;735;712
476;398;366;357;369;397
390;415;427;439;457;489
266;453;575;653;696;699
206;224;265;308;358;400
203;163;156;173;213;282
268;376;451;507;546;567
446;408;404;416;433;440
621;425;309;246;224;248
647;642;614;585;553;535
594;675;712;719;697;647
568;476;423;389;369;369
560;553;539;525;510;509
567;686;759;797;799;763
581;529;513;510;512;510
582;505;458;432;428;452
580;690;752;784;789;769
577;595;618;636;645;634
575;474;418;392;392;420
566;625;654;669;674;678
559;651;713;752;764;742
557;462;418;402;409;436
548;545;538;535;539;560
542;667;746;791;807;789
542;496;486;488;500;513
531;467;430;413;417;453
526;645;716;756;769;758
524;542;569;592;608;606
520;423;372;350;356;392
511;576;610;631;642;651
501;593;658;698;714;699
500;406;365;350;361;393
489;493;491;492;498;523
482;608;689;738;758;743
483;435;425;428;442;459
472;412;376;363;370;407
467;588;660;702;717;707
461;478;505;528;546;547
458;364;314;294;301;337
454;522;559;581;594;603
451;537;599;639;656;642
457;359;313;298;308;342
455;458;454;454;459;482
458;578;655;700;716;699
469;412;394;392;401;416
469;405;365;347;348;380
473;589;656;693;702;685
480;486;503;520;531;526
489;388;331;304;303;333
500;563;593;610;614;615
509;583;634;665;673;651
527;419;364;341;341;366
535;533;522;516;512;525
544;656;724;763;770;744
559;492;465;456;457;464
563;496;452;429;423;447
570;683;746;777;780;756
574;572;584;595;602;591
574;474;416;386;382;408
569;639;675;694;698;696
565;640;694;727;736;716
566;464;414;394;398;428
560;570;568;568;570;586
558;677;752;796;810;789
562;500;477;472;480;494
554;498;463;447;448;478
551;672;743;781;792;773
552;551;567;582;595;593
550;454;400;375;377;410
548;623;663;686;696;698
544;616;670;703;717;701
546;445;396;377;383;416
541;555;558;559;562;580
539;657;734;778;794;775
542;478;454;448;457;474
535;483;451;435;438;468
534;656;729;767;779;761
536;532;547;561;574;573
533;439;387;362;364;397
534;612;656;681;690;692
533;602;653;686;700;685
537;434;384;365;369;403
532;550;553;555;559;576
533;648;723;767;782;763
536;467;440;433;441;457
528;479;447;432;434;464
528;650;721;761;773;754
529;521;532;545;558;558
520;429;378;354;356;390
512;598;646;674;686;689
503;572;625;661;676;665
500;402;355;339;347;385
486;512;523;532;540;559
487;604;683;731;750;733
494;423;397;391;402;422
490;445;416;403;408;438
492;614;688;728;741;723
499;486;495;507;520;521
507;412;357;331;332;365
519;599;643;667;675;672
526;581;624;651;661;645
536;428;371;347;349;378
532;555;559;560;560;570
531;644;715;757;768;744
541;463;431;420;423;437
536;492;462;447;446;469
533;656;729;768;778;754
533;518;525;535;546;547
524;436;386;362;363;396
512;606;660;691;703;703
480;550;604;641;660;650
413;342;312;307;325;367
300;385;434;470;499;532
250;411;525;604;652;657
266;214;209;228;266;314
327;280;258;261;283;333
480;545;586;615;627;615
633;530;478;451;438;430
648;509;411;348;315;326
589;678;710;715;694;666
550;614;655;672;665;631
548;452;401;376;368;386
552;584;596;602;598;599
558;665;737;778;786;756
571;485;447;433;437;449
566;528;499;485;484;504
561;684;757;796;805;781
562;539;541;548;558;560
558;471;420;396;397;429
550;649;705;735;746;741
543;595;638;667;681;670
543;441;390;370;376;411
537;574;589;599;605;618
529;640;714;758;774;753
532;450;416;405;414;437
524;493;472;464;467;495
518;643;720;764;779;761
516;492;494;504;520;528
506;425;380;359;364;401
500;604;664;699;714;711
495;543;586;616;633;626
495;395;345;326;333;370
487;528;548;560;568;583
479;591;664;710;727;708
476;396;363;353;364;390
462;441;426;421;428;457
455;585;666;714;731;716
456;431;435;447;464;476
451;373;330;312;318;358
449;555;617;654;669;668
449;492;532;561;578;573
456;354;303;283;290;326
457;498;517;529;536;548
458;562;630;672;687;665
468;378;338;325;332;354
468;442;421;412;415;438
476;595;668;709;721;700
490;450;443;446;456;463
501;412;359;333;332;364
512;609;662;691;697;684
526;553;579;598;605;590
540;428;366;336;333;359
549;585;597;602;598;599
555;648;708;742;746;714
565;467;420;399;398;413
564;539;516;503;498;513
567;685;756;794;801;774
572;532;522;523;529;531
567;488;439;415;412;442
565;672;733;765;773;760
564;595;626;648;659;647
565;463;409;384;385;415
561;610;632;645;649;655
556;655;721;761;773;751
560;467;425;410;416;440
551;536;522;516;519;542
548;672;749;793;807;787
551;511;504;508;520;531
546;471;427;406;409;445
542;653;717;753;765;756
540;567;598;621;636;630
539;438;385;363;366;400
538;590;615;630;637;645
534;629;695;734;747;727
537;443;400;384;391;417
530;519;506;501;505;527
532;654;729;774;788;769
537;492;481;484;495;506
530;458;415;395;398;432
528;641;706;742;754;743
528;551;579;600;614;609
532;431;377;352;355;388
533;588;614;629;635;641
532;623;686;723;735;713
538;441;396;378;383;409
530;523;512;507;509;529
522;647;725;770;785;765
517;475;467;470;482;495
500;438;402;387;392;428
487;609;682;725;740;732
487;511;542;567;586;585
489;391;341;320;328;365
493;552;583;601;612;621
496;583;643;681;696;679
504;404;358;340;347;377
510;501;490;485;486;506
521;636;708;749;760;739
533;477;458;454;460;469
532;461;417;394;392;420
531;644;709;744;750;731
531;544;566;583;594;586
537;434;378;351;350;380
540;599;628;643;648;651
541;623;680;714;724;700
541;442;393;374;378;404
531;533;527;525;526;543
521;646;725;772;786;766
493;453;446;451;465;480
402;376;364;363;379;421
279;462;576;647;687;693
222;290;359;417;468;495
220;155;137;147;187;253
286;348;392;431;466;500
463;481;506;531;546;539
619;432;325;271;252;274
626;580;528;488;456;453
579;691;744;762;745;700
567;511;483;464;449;439
563;502;460;433;419;431
573;687;752;782;780;747
584;583;596;607;610;594
589;484;424;394;387;408
584;650;683;700;702;696
576;653;708;740;750;724
575;474;424;405;409;435
567;575;573;572;574;590
564;684;759;804;818;797
565;505;484;481;490;504
554;498;464;447;450;482
547;671;742;782;794;777
544;549;568;587;601;600
540;446;394;371;375;408
531;608;650;676;687;691
523;602;660;697;713;699
521;424;378;363;372;407
513;528;531;535;542;563
507;629;709;757;776;760
506;447;428;426;438;457
495;446;415;403;408;443
491;616;691;733;747;733
486;489;509;528;544;547
481;389;340;319;324;360
473;555;601;629;642;649
469;543;600;638;656;644
471;372;325;310;320;356
468;484;488;493;500;520
468;586;663;710;727;712
474;408;383;379;389;408
470;419;386;372;376;407
471;593;664;704;716;699
477;471;482;497;510;509
479;383;329;304;305;338
481;560;603;627;637;638
487;552;600;631;644;628
498;393;340;318;321;352
502;517;517;517;518;532
511;622;693;735;746;722
527;451;418;406;409;421
529;477;439;420;417;440
539;655;721;755;760;735
550;534;538;545;552;546
554;455;398;367;363;389
557;637;678;701;705;698
556;617;662;690;699;679
560;455;401;378;380;409
556;576;580;582;582;594
554;667;740;783;795;771
561;485;454;443;448;463
553;508;477;463;463;488
551;673;744;784;794;772
552;539;546;557;568;569
548;456;404;379;380;413
543;632;681;710;720;719
541;601;648;679;693;680
542;440;389;369;374;408
538;564;573;579;582;597
536;649;724;769;783;762
543;466;434;424;431;450
537;496;468;455;457;484
536;659;733;773;784;764
536;521;526;538;550;552
532;444;393;369;370;404
532;624;676;706;716;714
530;586;631;662;675;663
532;431;380;359;363;398
529;559;570;576;580;594
530;642;715;758;772;750
535;455;422;411;418;437
526;490;465;453;455;482
523;647;721;763;776;756
522;503;508;519;532;536
515;429;380;357;361;397
507;605;663;695;707;706
496;553;600;632;648;639
489;393;346;328;337;375
487;523;540;550;558;574
489;599;674;719;736;718
502;417;381;370;379;402
500;464;438;427;429;457
505;626;697;738;749;729
520;491;488;494;503;508
527;435;381;353;351;383
533;627;678;705;711;703
536;578;615;639;648;633
539;433;379;354;354;383
535;571;584;591;591;599
538;644;713;754;765;738
544;457;418;405;410;427
539;509;484;474;474;496
533;658;732;774;785;764
531;506;507;515;527;533
515;436;391;371;375;411
471;591;661;701;719;718
370;458;527;575;606;609
264;225;220;233;268;325
226;313;373;421;463;504
234;362;462;534;583;593
344;236;195;192;218;264
533;427;362;330;325;353
638;682;698;700;682;647
620;555;513;483;461;444
571;488;424;379;353;364
552;662;718;739;729;702
553;593;628;647;646;621
567;460;404;376;371;390
575;612;626;633;630;628
578;676;739;775;782;750
582;489;445;427;428;443
573;550;529;519;517;535
567;691;766;807;818;793
565;532;528;533;544;549
555;479;433;412;415;449
550;660;724;758;770;762
546;582;618;643;659;651
544;444;393;371;376;410
535;585;609;624;631;641
529;632;703;746;761;741
531;441;402;389;399;425
521;505;491;487;492;518
515;641;719;765;781;765
513;478;474;481;496;509
503;430;388;370;375;414
498;611;677;715;729;725
495;528;562;588;605;601
492;394;344;323;329;366
482;537;564;582;591;602
471;574;645;688;706;688
472;383;345;334;345;375
464;454;444;442;449;476
461;588;668;715;732;718
465;426;420;427;441;456
464;392;350;331;336;374
469;580;645;681;694;685
472;497;526;548;562;558
478;376;322;297;300;333
479;531;556;571;576;582
480;573;636;675;687;664
487;391;346;330;335;359
490;477;463;457;458;478
497;616;688;731;742;721
512;462;447;445;453;462
518;439;392;368;367;396
527;633;693;725;732;715
537;550;571;586;595;584
547;439;378;348;345;372
553;603;625;635;635;635
556;641;698;730;737;709
565;462;412;390;390;410
561;551;537;530;527;541
560;680;753;794;804;778
566;515;499;497;504;511
561;491;448;425;425;455
557;672;738;774;782;765
555;573;597;616;628;621
554;455;401;376;378;409
550;611;642;660;667;672
546;634;696;733;746;726
551;453;407;389;395;423
544;543;536;533;536;556
540;663;740;785;800;781
545;494;479;479;489;503
540;475;435;416;419;452
536;655;724;762;773;758
537;550;573;592;606;602
537;438;384;360;363;396
535;599;632;651;659;664
530;614;674;711;725;707
536;436;388;370;377;408
530;532;526;524;528;548
530;651;726;770;785;767
533;478;461;459;468;482
525;464;425;407;410;443
518;640;710;749;760;745
516;527;549;568;583;581
511;416;365;341;346;379
503;575;613;636;648;654
489;575;638;677;695;680
490;395;352;337;347;381
486;495;496;498;504;526
487;609;687;734;752;736
499;440;421;419;429;446
497;437;400;383;386;418
505;622;689;726;736;720
520;518;531;546;557;552
529;426;367;338;336;366
535;601;633;651;656;655
535;608;660;691;700;678
541;437;385;363;366;393
539;546;543;540;540;554
541;657;730;773;785;762
545;482;458;451;457;469
538;482;445;427;427;455
532;654;725;763;773;754
527;529;546;563;576;574
505;417;369;348;353;386
438;541;600;635;654;664
323;451;543;605;641;642
258;212;208;225;262;321
254;297;331;365;402;450
306;423;510;574;615;622
463;345;296;284;296;323
623;484;394;344;324;345
654;720;741;739;716;674
597;585;577;563;545;518
554;470;413;375;355;366
544;632;677;697;694;678
548;619;672;703;710;681
563;456;405;384;385;409
569;579;579;579;578;588
571;682;754;795;805;780
572;501;473;463;467;479
562;513;481;464;464;489
558;681;753;792;801;779
558;550;562;574;586;584
552;459;407;383;384;417
546;630;676;704;715;716
539;606;658;691;706;693
540;439;389;371;378;413
530;554;561;566;573;590
526;643;720;766;783;766
526;457;430;425;434;454
517;474;447;435;439;469
509;635;710;753;767;751
508;499;510;525;541;545
500;412;363;341;346;383
495;586;637;667;681;684
486;552;604;639;657;647
484;387;340;323;333;371
473;504;517;527;534;553
467;586;665;715;734;717
468;398;372;367;379;401
462;424;399;390;396;427
460;586;663;707;723;706
461;449;459;473;488;493
463;374;323;302;306;342
465;555;606;637;649;650
466;523;570;600;615;604
474;369;318;297;302;337
474;500;509;515;519;533
478;588;659;703;716;694
491;408;373;361;367;384
493;450;420;405;405;430
502;620;689;726;735;712
515;489;489;494;501;501
524;428;371;342;338;368
536;621;667;691;695;686
544;589;625;648;654;636
556;445;386;358;355;382
559;584;590;592;588;594
560;666;733;771;778;749
566;482;443;428;429;442
561;524;497;482;480;499
560;682;754;793;801;776
561;537;539;545;555;556
558;471;420;395;396;427
554;652;706;738;747;741
551;600;642;669;682;670
552;449;397;375;379;413
547;583;598;607;611;622
543;652;725;768;781;758
549;465;428;416;423;444
542;511;488;478;480;506
540;664;738;781;793;773
542;515;515;523;535;542
539;454;404;381;384;419
537;637;694;726;737;733
534;579;618;645;658;649
537;434;381;359;363;397
534;573;590;599;603;614
530;637;707;749;763;740
536;449;411;398;405;426
528;502;481;472;474;499
522;648;724;768;781;761
519;492;493;501;515;523
509;432;387;368;372;409
503;611;674;710;724;720
498;542;583;611;628;622
494;396;348;329;336;373
491;537;559;573;582;594
489;595;666;709;727;706
500;411;372;359;368;392
499;475;455;448;451;476
502;624;699;741;754;735
515;478;471;475;485;493
524;438;388;362;361;396
530;630;687;716;723;714
536;565;595;615;623;612
539;433;376;350;349;377
536;580;598;608;610;614
537;635;700;739;748;721
546;451;407;390;395;415
539;518;499;492;492;513
535;659;734;776;788;766
533;497;492;496;507;516
521;447;404;384;388;424
487;609;680;721;736;731
410;475;529;568;595;598
302;260;248;254;282;335
251;351;416;465;503;538
250;375;473;543;589;596
328;228;192;192;221;269
507;424;373;351;352;381
642;681;697;702;689;657
640;557;505;471;448;435
574;501;441;398;373;383
544;666;729;754;746;716
541;574;605;623;625;604
554;452;398;372;367;388
563;611;634;646;647;645
569;656;716;750;759;730
576;476;427;407;409;429
567;554;539;531;531;547
564;685;759;801;812;788
568;522;509;510;520;527
559;487;444;423;425;457
553;668;733;769;780;767
548;572;600;622;636;630
545;447;393;371;375;408
537;597;627;644;653;660
531;625;689;729;744;725
532;438;394;379;388;417
526;521;513;511;515;538
519;645;723;770;786;768
518;474;464;467;480;494
507;443;405;389;395;431
500;620;691;732;745;735
494;517;546;570;588;587
492;397;346;325;332;368
484;550;584;605;617;626
478;569;634;675;693;677
478;385;343;329;339;372
473;474;469;469;475;499
470;594;674;722;739;724
476;426;413;416;428;444
470;406;368;352;357;392
472;588;656;696;709;697
477;489;511;531;546;544
482;381;326;301;304;337
481;544;576;594;602;606
482;564;623;657;671;652
491;389;341;323;328;356
493;491;483;480;481;500
501;617;690;732;744;723
515;455;433;428;434;445
518;450;409;386;384;412
526;639;703;736;742;721
536;539;553;566;574;565
544;440;380;350;347;373
546;609;640;657;659;657
550;625;678;710;718;694
560;455;403;380;382;407
558;559;552;548;546;560
555;674;747;789;799;776
560;501;479;474;480;490
554;495;457;438;438;466
554;673;741;778;787;767
553;558;575;591;603;598
552;454;399;375;375;406
547;620;658;679;688;690
544;620;676;710;726;707
545;444;396;378;384;416
538;547;547;548;552;572
533;654;731;776;792;774
538;477;455;451;461;477
534;478;442;425;428;459
534;654;724;762;773;756
536;535;551;566;578;577
533;437;384;358;359;391
529;605;647;670;679;682
529;602;655;689;703;687
533;432;383;364;370;402
525;539;541;544;547;565
518;639;716;763;778;760
517;456;435;432;442;459
508;460;429;416;419;451
501;626;701;744;758;740
494;496;514;532;549;552
488;398;350;328;335;371
487;569;615;642;656;661
490;560;613;648;665;652
500;396;347;328;335;370
499;514;516;519;523;541
507;619;692;735;749;730
525;450;419;409;414;429
529;474;435;417;415;441
537;652;717;752;758;736
543;530;537;545;552;548
540;444;388;359;357;385
539;620;664;686;694;690
540;602;650;679;690;672
544;440;388;366;369;400
540;560;564;566;568;581
532;649;723;767;781;759
528;461;434;428;436;452
506;470;445;435;439;468
449;596;684;735;755;741
340;383;428;466;500;516
249;221;216;229;263;321
234;359;445;508;555;586
262;336;405;462;507;524
417;272;203;182;198;248
601;535;486;459;445;456
653;701;719;721;702;660
608;517;458;418;392;384
564;528;491;461;438;441
551;679;750;783;779;740
563;546;552;558;560;547
572;476;421;392;387;409
582;664;709;732;735;725
580;632;673;699;706;686
581;476;421;398;398;426
573;600;608;612;613;623
567;679;752;795;806;782
567;490;458;448;454;470
558;521;495;483;485;510
553;677;751;793;805;784
551;534;540;550;563;567
543;458;410;387;390;426
540;636;690;721;734;733
533;589;635;666;681;671
533;433;385;366;372;407
524;559;573;583;590;604
516;630;706;752;769;750
516;439;408;400;411;434
506;476;455;447;453;481
502;628;705;749;765;748
499;481;487;498;514;523
493;411;365;344;350;388
488;589;647;681;695;695
482;534;578;610;627;621
484;384;335;316;324;361
478;515;532;543;551;566
475;585;658;703;720;700
480;398;364;354;364;387
476;446;425;416;421;448
476;599;673;717;731;713
484;456;457;464;478;486
485;399;350;327;329;363
489;587;642;673;683;678
493;534;571;596;610;598
505;398;343;319;321;353
510;544;556;562;564;572
516;617;683;721;731;705
528;437;395;378;381;399
532;500;474;460;457;478
538;656;725;763;770;746
551;515;507;509;515;518
556;468;414;387;383;412
562;659;712;739;745;733
564;599;631;651;659;645
572;465;408;381;379;407
569;608;624;631;631;635
565;667;734;773;782;754
568;478;437;421;426;445
561;537;518;508;509;531
559;681;756;797;808;786
563;528;523;528;540;546
559;478;430;407;409;443
556;662;721;755;764;756
552;588;622;646;659;650
553;452;399;376;379;411
548;594;615;628;633;642
544;645;713;753;767;745
549;458;417;403;410;433
542;523;507;500;503;527
540;663;739;782;796;776
543;507;501;506;517;528
538;462;417;396;399;434
537;646;709;743;754;746
537;569;601;624;637;630
536;436;384;361;365;398
528;580;605;619;626;634
520;621;690;732;746;725
523;433;394;380;388;414
512;501;490;486;491;516
500;628;709;756;773;757
495;462;459;468;484;497
494;422;381;365;371;410
498;608;673;710;725;719
506;529;558;580;595;591
510;407;352;328;331;366
519;566;588;600;605;612
528;615;675;710;719;696
541;440;391;371;373;395
543;526;508;498;497;514
546;663;733;773;782;758
552;504;490;489;495;502
552;476;430;407;405;435
552;662;724;757;764;749
554;574;599;617;627;618
554;454;399;372;372;401
548;605;632;648;653;656
535;630;695;734;747;724
523;435;395;382;390;418
455;475;483;490;501;529
338;516;630;702;738;735
255;270;307;346;391;430
237;209;208;225;264;330
265;392;479;543;586;604
420;392;398;418;443;456
618;425;313;257;240;268
671;662;634;607;579;563
617;687;717;721;700;653
585;490;434;398;378;382
568;571;561;549;534;534
569;691;766;805;808;773
582;527;510;507;509;509
588;516;471;448;445;468
588;700;763;796;802;779
585;595;615;632;641;631
582;482;427;400;400;427
577;640;672;689;695;696
569;654;713;749;762;741
572;474;427;409;415;444
560;565;561;559;563;582
553;677;756;800;816;798
551;501;487;488;499;513
542;483;448;433;438;471
537;658;730;770;783;769
534;546;569;589;606;605
530;436;385;362;367;403
525;595;632;654;666;673
517;601;662;700;716;702
516;421;376;361;370;404
505;515;515;518;524;547
499;622;702;750;769;753
500;445;430;431;443;461
488;433;400;387;393;429
483;605;678;720;736;723
481;489;510;530;547;549
478;385;334;313;318;354
475;548;588;612;624;631
475;552;609;647;662;649
483;382;334;317;325;358
479;488;487;488;494;513
479;598;673;718;735;717
488;426;404;399;409;424
488;431;394;377;379;409
492;610;678;716;726;708
499;498;512;525;536;533
507;408;352;325;324;353
516;585;621;641;647;646
521;589;638;668;677;657
537;429;374;351;352;379
543;549;544;540;538;550
549;660;730;769;778;753
563;492;462;451;452;462
564;506;467;445;441;464
564;682;749;782;787;762
567;560;571;581;589;582
565;468;413;386;383;411
564;640;681;703;710;709
561;628;679;710;721;703
563;460;409;389;393;424
557;574;576;579;581;596
553;669;744;789;803;783
559;491;464;457;464;480
552;503;470;455;457;485
547;670;742;781;792;772
545;539;551;565;578;578
544;451;399;374;377;410
542;625;670;696;707;708
536;603;654;686;700;686
539;438;389;369;376;410
536;557;563;567;572;588
534;650;724;769;784;765
538;468;439;432;440;457
532;487;457;443;446;474
532;654;726;766;778;759
532;521;531;543;556;557
525;436;386;362;364;397
516;606;657;687;698;699
509;574;625;659;675;663
507;408;361;344;354;390
498;526;538;547;553;572
489;607;685;733;752;735
497;424;396;390;401;422
494;452;424;414;419;449
496;618;690;732;745;727
501;485;491;502;515;519
506;414;360;335;337;370
517;600;647;673;682;679
525;576;617;643;654;639
536;427;371;346;347;377
537;560;565;567;566;576
534;644;715;755;765;740
543;464;428;415;419;433
541;501;472;456;456;479
542;664;735;773;782;759
542;523;526;535;545;545
532;447;397;373;374;406
524;621;676;707;719;716
507;567;616;649;665;655
456;376;340;330;343;384
351;431;478;509;533;560
251;423;543;623;669;673
240;201;206;232;274;324
264;242;239;255;288;343
396;480;538;581;607;606
593;482;429;408;405;407
668;507;399;331;298;313
623;697;717;713;688;658
567;623;656;664;652;616
549;457;406;376;365;380
546;586;602;608;603;601
553;659;730;771;779;747
570;481;441;426;429;441
569;533;506;492;490;509
567;687;758;797;806;780
567;540;538;544;554;555
562;478;429;404;404;436
554;656;714;745;754;748
548;595;636;663;676;666
547;447;396;375;380;414
537;580;599;610;617;628
531;640;713;757;772;751
533;449;414;403;413;436
523;498;481;473;478;505
518;644;722;766;781;764
519;492;492;501;515;526
509;432;388;367;372;410
500;608;670;706;720;718
495;539;579;608;625;620
489;392;345;326;333;371
481;528;551;566;575;589
475;582;654;700;718;699
475;391;355;347;357;384
466;447;432;427;434;463
463;589;667;713;730;715
466;435;434;443;458;471
460;384;340;321;326;365
456;564;626;663;677;673
457;495;531;557;574;568
463;363;312;291;296;331
463;508;529;542;549;559
465;564;631;671;686;663
473;383;343;328;335;359
474;453;436;428;430;452
481;599;672;714;725;705
496;454;445;447;456;463
501;420;371;347;346;378
509;610;667;698;704;692
517;542;568;587;596;584
530;423;364;336;334;361
538;581;597;605;604;607
543;633;691;726;732;704
554;456;408;388;388;406
552;532;513;502;499;515
553;671;743;781;789;764
562;517;505;504;511;516
555;480;433;410;410;439
553;661;723;756;765;752
552;578;606;627;638;629
549;448;395;370;372;403
542;596;622;637;643;649
539;634;699;738;751;729
544;450;407;390;397;422
538;528;515;510;513;535
534;658;735;779;792;774
538;495;485;488;499;511
531;461;420;401;403;438
529;642;708;745;757;746
528;551;580;602;616;611
528;428;375;353;356;389
524;582;610;626;634;641
523;615;678;717;730;710
529;434;389;373;379;406
523;516;506;502;505;527
519;642;719;765;778;760
522;476;464;466;477;490
511;445;407;389;392;428
507;623;692;731;744;732
503;524;551;574;590;587
496;401;351;329;335;369
484;549;584;605;616;625
479;571;635;677;695;678
484;390;349;335;344;376
484;481;474;473;478;501
490;607;682;727;742;725
498;446;431;430;440;454
503;435;392;372;373;406
516;624;686;719;726;710
524;532;549;564;573;567
530;429;373;345;342;370
528;588;617;632;636;636
525;606;662;696;706;683
533;435;388;369;372;398
531;531;524;521;521;537
530;648;722;765;778;756
535;481;464;462;470;481
524;464;428;410;412;441
515;635;705;743;755;739
493;512;540;563;579;578
424;357;324;314;326;366
307;430;504;553;586;609
235;372;475;547;594;604
235;171;160;176;217;279
284;289;298;317;348;396
458;517;561;596;614;608
631;484;404;364;350;354
646;533;445;387;353;361
588;698;743;753;731;688
551;565;579;582;573;548
542;453;401;372;360;373
544;616;654;674;675;665
554;627;681;713;721;695
568;462;410;388;390;414
564;569;564;560;560;572
558;676;750;792;804;780
559;499;478;472;479;490
551;496;461;445;445;473
548;668;738;777;787;768
546;549;566;582;596;593
541;448;396;372;374;406
536;612;653;677;687;690
531;606;661;696;711;695
529;433;387;370;378;411
521;536;539;543;549;568
513;633;711;759;776;760
515;454;434;432;443;462
505;457;425;413;418;452
499;621;694;736;750;736
496;497;514;531;547;550
490;401;352;331;335;371
482;564;610;638;651;657
472;546;602;639;657;646
474;378;334;319;328;365
465;485;492;499;506;528
460;579;658;706;724;710
466;402;381;377;389;408
460;414;386;374;379;411
461;582;654;697;710;694
465;459;473;487;502;504
466;374;322;299;302;336
467;548;593;619;629;631
468;533;584;615;630;616
476;374;324;304;310;343
475;493;498;502;504;520
480;593;666;709;723;702
493;419;389;380;385;401
497;446;412;396;395;421
505;621;688;724;732;710
519;501;505;513;521;518
528;429;370;341;337;365
537;615;654;675;679;673
540;595;637;663;670;651
549;442;386;361;360;387
548;567;570;570;568;577
547;658;729;769;779;753
552;476;444;432;436;449
547;503;472;457;456;479
544;665;736;776;785;762
546;531;538;547;559;557
542;453;401;376;377;408
541;630;679;708;717;714
534;593;640;670;685;671
535;435;385;365;371;404
530;558;569;576;580;594
527;640;714;759;773;753
530;455;424;416;424;442
525;487;461;450;453;480
523;646;719;761;773;754
528;510;515;525;538;542
524;437;387;363;366;400
525;616;668;697;708;706
523;576;619;648;662;650
528;425;374;353;358;391
522;553;564;571;575;589
519;629;701;745;759;738
523;444;411;401;408;428
516;482;457;446;449;476
510;634;708;750;764;745
508;489;494;504;518;524
498;417;371;349;353;390
489;589;648;681;695;695
478;533;580;612;630;623
482;384;336;318;327;365
481;517;533;543;551;566
488;594;665;709;724;704
495;412;376;365;373;394
494;462;438;427;430;454
503;621;692;732;743;722
520;489;485;489;499;503
524;435;382;354;353;385
528;622;674;701;707;699
527;569;605;629;638;624
535;431;377;352;353;382
536;571;584;590;591;598
533;637;705;745;756;729
537;450;412;398;403;422
527;500;480;470;471;494
518;644;719;762;775;755
509;486;488;497;512;520
459;396;362;348;358;397
358;506;596;651;680;687
247;352;437;500;545;560
219;165;156;173;213;278
231;292;338;380;419;462
348;422;484;533;565;566
556;382;293;253;249;273
652;547;465;413;384;389
617;710;746;752;729;682
573;542;524;508;492;474
553;480;430;397;380;393
555;662;721;748;746;722
565;597;629;649;654;632
581;472;415;387;384;406
579;618;634;641;641;641
573;671;736;772;780;751
574;483;442;426;429;447
564;545;529;521;521;541
559;682;757;799;812;790
558;523;519;525;536;545
549;473;430;410;414;449
543;652;715;751;764;758
537;571;605;631;646;640
534;436;386;365;370;405
526;577;602;618;626;636
518;619;687;730;745;726
521;431;392;380;390;416
509;498;486;482;488;513
503;628;705;752;769;753
502;466;462;469;484;497
493;423;382;365;371;410
485;599;666;704;719;714
481;512;546;572;589;588
479;384;335;316;322;358
474;529;558;575;584;596
468;566;634;676;692;675
473;383;343;331;340;368
467;458;449;446;452;477
466;589;666;712;729;712
471;430;422;427;440;453
469;399;358;339;343;380
469;581;646;683;695;686
475;497;524;545;559;555
481;380;327;303;306;338
483;535;561;575;581;588
486;574;634;670;682;660
501;401;353;335;339;363
502;490;476;469;469;487
509;624;695;735;746;723
522;470;453;450;457;465
525;451;405;381;379;408
531;639;699;731;737;720
540;552;571;587;595;585
547;443;384;355;353;379
548;603;627;639;641;641
548;632;689;723;731;705
555;456;407;387;390;413
551;546;536;529;529;545
549;668;742;784;796;772
552;503;488;486;495;504
545;480;441;422;423;453
541;658;725;762;772;757
541;555;579;598;612;607
539;442;390;367;369;401
537;600;632;652;659;664
533;618;677;714;729;711
537;439;394;377;384;413
532;533;527;525;529;549
530;649;725;769;784;766
534;481;465;463;473;487
527;465;427;410;412;445
524;641;710;748;759;745
524;534;555;574;588;586
524;427;375;351;353;386
524;590;623;643;652;656
521;601;659;694;708;690
528;428;380;362;368;398
520;525;521;521;524;542
516;636;711;756;771;753
516;463;445;444;454;468
507;452;416;402;404;437
501;623;695;735;747;732
494;504;527;548;564;563
484;395;347;327;333;368
480;555;595;621;634;641
480;560;618;656;674;660
492;391;344;327;337;370
492;498;496;497;501;521
495;612;685;730;744;726
512;448;423;418;425;439
519;457;416;396;396;425
525;639;704;737;744;723
531;528;541;552;560;554
531;432;377;349;346;375
529;601;638;658;664;663
534;604;655;687;696;676
543;437;386;365;367;396
538;548;546;545;546;560
531;648;723;767;780;759
530;469;446;442;449;463
512;465;434;421;424;453
474;610;691;737;754;739
380;420;463;497;526;537
261;233;229;239;270;325
213;343;431;495;542;575
217;315;400;467;517;536
318;202;155;150;178;237
514;451;410;393;391;415
643;672;684;687;672;637
633;526;457;411;383;374
576;525;475;435;406;408
552;681;748;775;765;722
555;551;562;569;568;549
562;467;412;384;376;394
572;648;688;710;713;702
574;635;680;709;717;694
574;469;416;393;395;421
568;587;589;591;592;603
564;678;751;794;807;784
567;495;467;458;464;479
554;509;479;465;467;494
548;672;745;786;797;777
546;537;549;562;576;576
540;450;400;376;379;413
532;620;670;698;711;713
528;591;642;675;691;679
528;427;379;361;369;405
520;546;555;562;568;585
513;629;706;752;769;751
514;444;417;412;422;442
502;464;439;430;434;465
497;623;698;741;756;739
493;484;495;510;526;531
484;401;355;335;340;377
478;571;624;657;672;675
473;534;585;621;638;629
471;375;329;313;323;361
467;497;510;520;527;546
465;578;653;701;719;702
474;399;369;362;371;393
470;431;405;395;399;427
472;592;664;706;719;701
476;458;463;473;486;491
475;387;337;314;316;350
477;567;618;647;658;656
481;533;575;603;616;604
489;385;333;311;314;347
492;518;528;534;536;547
499;603;672;712;724;700
513;428;390;377;381;396
518;477;446;431;429;451
528;642;708;744;752;727
539;511;508;511;518;517
545;453;397;369;365;394
549;639;688;712;717;708
552;597;634;657;665;648
556;452;398;372;372;400
554;586;597;602;602;608
551;657;727;767;777;751
558;475;437;424;428;445
555;522;497;485;485;507
551;673;745;785;796;773
553;528;528;535;546;550
548;466;418;395;396;429
544;643;699;731;741;736
540;585;625;652;666;656
540;440;389;368;373;408
535;573;590;600;606;617
531;636;706;749;763;741
539;454;416;404;412;433
533;505;484;475;478;502
532;653;725;767;780;761
535;505;503;510;522;530
532;451;404;381;382;418
529;630;688;720;730;725
525;566;604;629;642;633
527;428;377;355;359;392
526;567;585;596;601;610
525;626;694;735;748;725
531;444;405;391;399;420
522;501;483;475;478;501
521;643;717;759;772;753
518;488;486;493;505;515
507;434;391;372;376;413
495;605;669;706;720;715
486;529;568;597;614;609
484;390;343;326;334;371
485;532;554;570;579;591
486;584;651;693;710;691
498;407;366;353;361;386
499;477;459;451;454;478
505;621;692;733;744;725
523;480;469;470;479;487
528;446;397;371;370;402
532;633;688;717;723;712
535;562;589;608;616;605
538;437;382;356;355;383
537;584;604;614;616;620
540;632;695;731;740;715
543;451;408;392;396;416
534;521;506;500;501;521
529;651;726;769;781;761
528;492;485;490;502;511
501;439;402;386;392;428
435;571;652;700;722;719
324;405;473;522;558;569
250;212;206;220;255;313
244;329;389;438;479;516
293;387;464;523;562;569
454;310;244;223;233;271
624;524;454;414;395;408
656;717;739;741;719;678
606;551;516;490;469;454
557;498;450;418;398;409
545;664;729;758;756;727
549;573;600;618;624;607
560;459;406;382;379;402
567;617;640;652;655;654
568;652;709;743;751;726
571;474;428;409;412;434
565;557;545;539;539;556
561;679;752;794;806;784
562;516;503;504;513;523
554;488;448;429;432;464
550;663;729;765;776;763
542;563;590;610;625;621
539;445;395;374;378;411
530;593;626;645;654;660
524;613;675;715;730;713
524;433;391;378;387;417
516;517;513;513;519;542
510;631;708;754;771;756
510;465;454;456;470;486
501;443;409;394;399;436
493;611;681;721;736;726
487;505;531;554;571;572
483;393;345;326;332;369
478;544;580;602;614;623
471;556;617;656;674;660
472;380;339;325;336;370
465;470;468;470;478;501
463;582;659;706;724;710
467;417;403;404;416;434
463;405;369;354;359;394
467;581;649;686;700;687
472;480;500;517;532;530
477;380;327;302;305;337
478;542;575;594;601;606
479;556;611;646;658;639
492;392;343;324;328;357
495;496;490;488;488;504
504;616;686;727;738;716
521;459;435;428;432;442
527;464;422;400;397;421
539;648;708;740;745;721
549;546;557;568;574;565
556;455;397;367;362;386
559;623;654;670;672;668
560;630;681;710;718;694
565;464;413;391;393;418
561;566;563;560;560;573
558;672;745;786;798;775
562;501;479;474;480;491
555;500;465;448;449;476
554;671;739;775;784;765
553;554;570;584;596;593
552;459;407;382;383;413
548;621;661;683;692;694
543;616;668;704;717;700
545;446;398;381;388;420
539;552;553;555;559;577
536;653;728;772;787;770
541;479;457;452;460;476
535;484;451;436;437;468
533;653;725;764;774;757
535;533;548;563;577;575
534;440;388;363;365;398
531;608;650;675;685;688
528;598;651;684;699;684
533;433;384;365;371;404
529;545;547;550;553;571
527;644;719;764;779;759
530;465;440;434;443;459
525;476;444;430;433;462
523;643;714;754;766;748
525;519;531;545;558;558
521;429;377;353;355;388
512;595;641;669;680;683
502;572;624;660;676;664
499;402;357;341;350;386
486;511;520;527;536;556
483;602;680;729;748;732
491;423;398;393;404;425
494;446;414;401;405;436
495;614;685;725;737;720
504;492;500;512;523;525
514;418;363;336;335;367
527;604;645;667;674;671
530;587;630;657;666;649
539;434;379;355;355;385
536;556;560;561;560;571
536;648;720;761;772;748
542;468;437;426;432;445
539;495;465;449;448;473
537;658;729;768;778;756
535;523;531;541;553;553
526;439;390;366;367;400
516;608;660;690;702;702
472;547;606;643;663;654
381;321;301;301;322;367
261;352;409;450;484;521
222;383;501;583;635;645
239;188;187;208;250;301
339;277;248;247;268;319
536;577;601;619;624;608
654;553;496;464;445;432
629;505;413;351;317;325
581;671;706;712;691;663
560;620;659;676;669;636
565;465;411;384;375;391
569;597;605;606;601;601
578;683;752;790;796;763
585;502;464;450;451;461
575;538;510;496;494;514
569;692;765;804;812;788
571;550;553;562;572;573
565;479;429;405;407;438
558;656;710;741;752;748
551;605;649;678;693;681
553;452;402;381;387;421
546;580;595;604;610;623
539;650;725;769;784;763
540;459;426;417;426;448
530;499;478;469;474;501
522;648;724;768;783;766
523;500;504;515;530;538
516;433;386;365;370;408
509;611;669;704;716;716
502;552;595;626;643;636
502;404;354;335;343;380
494;534;552;564;572;586
483;595;669;717;733;714
484;404;371;363;374;399
473;449;431;426;433;462
471;597;674;720;737;721
475;450;452;462;478;489
474;394;348;327;332;369
474;577;635;669;682;680
475;519;557;584;599;591
480;380;328;307;312;346
481;520;537;547;553;563
481;585;653;695;708;687
491;403;364;350;356;378
490;464;443;433;434;458
496;615;687;728;740;718
508;473;466;470;480;486
512;427;376;351;350;382
520;618;672;702;708;698
529;560;590;610;619;606
540;432;374;347;345;373
547;583;595;602;601;605
550;646;707;743;750;721
561;466;420;401;403;420
558;533;510;498;496;514
560;677;748;786;795;771
565;527;519;521;528;532
558;479;431;407;407;438
553;660;720;752;761;751
552;585;618;641;653;643
553;453;400;376;379;410
551;597;619;631;636;643
548;647;713;752;765;742
553;463;421;407;413;435
541;527;513;507;510;532
536;660;736;780;794;776
542;504;498;504;516;526
538;463;419;400;404;438
535;644;707;741;753;744
535;564;594;618;632;626
536;437;385;362;366;398
535;584;608;621;627;635
533;628;692;730;743;723
539;446;403;388;394;418
531;518;505;499;502;524
528;649;725;768;782;763
534;492;483;486;497;507
531;458;414;394;397;431
529;640;703;737;749;738
529;553;581;603;616;610
530;431;378;354;357;389
530;583;608;622;628;635
529;619;681;719;731;710
534;440;396;380;385;411
527;519;508;503;505;526
520;644;720;764;778;759
520;479;470;474;485;497
505;441;404;388;393;427
493;612;683;723;738;729
483;511;543;569;588;587
484;391;343;324;331;369
490;547;577;596;606;616
496;582;642;681;696;676
502;405;360;344;351;379
503;496;485;481;483;504
513;628;700;741;753;734
527;472;455;452;460;470
529;457;412;389;388;418
532;642;704;737;743;726
533;545;566;583;593;585
536;435;379;352;351;380
537;595;624;638;643;645
539;620;677;712;722;700
544;444;396;377;381;407
533;533;526;522;523;541
524;646;723;768;782;762
515;470;458;461;472;485
458;417;393;384;395;431
349;516;617;678;708;708
236;317;390;448;495;517
199;155;149;167;209;274
214;301;364;416;462;502
339;391;441;487;519;525
554;368;270;226;222;253
659;576;506;459;428;429
628;713;746;751;726;680
585;530;497;471;448;433
562;508;467;438;418;425
562;681;749;779;775;740
572;575;593;605;609;592
581;479;423;394;388;409
582;644;676;692;696;691
579;653;706;738;746;722
581;480;430;410;413;438
574;580;576;574;574;590
570;686;761;804;816;795
570;512;492;489;496;509
556;502;468;452;455;484
551;671;742;781;791;775
545;552;571;589;603;603
539;448;398;377;380;413
531;607;648;673;685;690
526;603;660;697;713;699
525;430;386;370;379;413
519;532;535;539;545;566
512;632;709;757;774;759
514;456;437;435;447;464
499;451;422;409;415;448
493;617;691;732;748;734
494;497;515;533;550;552
486;398;350;330;335;370
479;559;604;631;645;651
474;549;605;642;660;648
478;380;335;320;330;366
474;490;494;499;506;527
472;588;664;710;728;712
478;414;391;387;397;415
472;423;392;379;383;413
474;593;663;703;716;699
479;474;486;500;513;514
483;390;337;313;314;345
481;559;602;626;636;637
483;548;598;630;642;627
495;391;341;320;325;357
501;514;515;515;517;531
512;619;688;728;739;717
528;453;421;410;412;425
529;477;440;422;419;442
539;652;716;751;756;731
551;535;539;546;552;546
555;459;402;372;367;392
559;636;676;698;702;695
559;618;662;688;697;677
565;461;408;385;386;414
562;581;585;586;586;596
559;671;742;784;795;770
565;493;462;452;457;471
557;513;483;469;469;493
555;674;745;784;794;773
555;542;549;561;572;572
550;462;411;387;389;420
546;633;681;708;719;718
542;601;648;678;693;680
544;444;394;375;381;414
539;565;574;580;584;599
536;647;720;764;778;759
542;467;436;427;435;454
535;495;468;456;459;486
535;655;727;765;777;759
535;520;526;536;549;552
533;447;397;373;375;408
531;621;672;700;711;710
530;585;629;659;672;660
531;431;382;363;368;401
528;558;569;576;580;594
527;637;709;752;766;744
534;456;424;414;421;440
533;495;469;457;459;484
530;651;722;762;773;754
531;512;515;524;536;540
525;442;394;371;373;407
518;613;668;699;711;709
513;566;609;639;654;644
505;410;363;346;353;387
491;530;547;559;568;583
485;597;672;720;737;719
493;415;383;375;386;410
494;461;438;429;435;462
499;617;688;729;743;725
507;481;481;488;501;506
513;426;376;351;351;385
522;612;662;690;697;692
528;567;601;625;634;622
536;433;378;353;352;381
534;568;580;586;587;594
532;635;702;741;751;726
541;457;419;405;408;427
541;510;487;476;475;496
541;659;728;768;778;756
543;515;513;519;529;533
533;455;410;387;389;422
523;626;685;718;730;723
500;551;595;625;642;634
435;366;335;328;342;382
311;410;469;509;538;566
222;387;505;586;636;643
216;171;175;201;246;301
256;239;239;256;290;346
419;486;533;571;593;592
613;487;423;394;386;388
660;514;411;345;310;322
606;692;720;719;694;660
566;609;634;640;627;593
559;466;412;382;368;380
560;604;622;629;622;616
569;664;727;764;769;734
581;488;445;428;428;441
577;553;531;521;519;534
574;693;763;802;811;785
577;542;535;538;547;551
569;494;449;426;427;458
562;668;729;762;771;762
557;592;626;650;663;655
555;459;409;387;391;423
546;595;619;633;639;648
539;638;707;748;763;742
536;451;414;403;412;437
528;514;502;499;504;529
524;647;723;768;784;768
525;489;485;492;506;518
515;444;402;383;390;427
509;619;683;719;734;729
502;535;570;595;612;609
500;404;355;335;342;378
489;543;570;587;597;608
480;580;649;691;708;690
479;393;356;345;356;385
471;461;451;451;457;483
468;590;668;714;732;718
471;433;427;433;448;463
465;396;356;338;344;382
466;576;640;677;690;683
468;494;524;546;561;558
472;374;322;299;302;336
474;526;551;566;572;579
477;567;629;667;679;657
485;391;346;330;336;360
487;475;461;454;456;475
489;606;679;721;733;711
500;453;440;439;448;456
508;434;388;365;364;395
518;622;681;711;718;702
529;542;562;577;585;575
543;435;376;346;343;369
547;597;618;627;628;628
553;634;688;719;725;698
562;462;412;390;390;410
562;552;537;528;525;539
562;677;748;787;795;770
568;517;501;498;504;511
560;494;452;432;430;458
560;671;735;770;778;761
560;575;598;616;627;620
562;463;410;385;386;415
556;616;647;663;671;674
550;636;695;731;744;725
550;457;413;397;403;431
545;545;539;537;540;560
543;663;738;782;796;778
545;496;482;482;492;506
540;479;441;424;427;460
539;654;721;758;768;755
540;552;574;593;607;604
541;444;393;369;371;403
537;601;634;653;661;667
533;615;674;710;724;706
537;440;396;379;386;416
532;534;530;529;533;552
530;648;723;768;783;764
534;481;464;462;472;486
532;471;433;416;419;450
531;647;713;750;761;746
532;540;559;577;590;587
533;437;384;359;361;392
532;599;633;653;660;664
531;608;664;698;711;694
534;436;389;371;377;407
526;533;531;530;533;552
520;639;716;761;776;758
522;468;451;449;459;473
508;456;423;409;413;446
498;622;695;736;750;735
493;504;526;547;564;565
493;402;353;333;338;373
493;565;605;630;642;648
493;569;625;661;677;663
501;402;355;339;346;379
500;509;507;508;512;532
508;622;695;738;752;734
523;458;433;427;433;447
527;467;428;409;409;436
532;645;710;744;751;731
536;532;544;556;566;561
538;441;385;357;356;383
540;611;648;668;674;673
541;608;659;690;701;682
543;441;392;372;375;404
531;546;547;548;550;566
525;644;720;765;779;760
521;461;441;438;448;463
482;445;421;413;421;453
400;555;649;705;730;722
290;347;404;449;490;509
242;201;193;205;240;300
256;356;426;481;523;556
332;387;441;486;521;529
502;338;256;222;225;263
642;573;517;482;459;462
643;714;742;747;726;682
590;520;476;445;423;414
553;515;481;454;437;444
548;674;746;780;779;743
557;550;562;572;577;565
564;469;416;389;386;408
571;647;688;711;717;710
570;630;676;704;715;695
572;469;417;394;398;426
564;583;588;590;592;604
558;673;746;789;803;781
558;489;463;454;462;477
549;505;477;463;466;494
543;666;739;779;791;773
542;533;544;557;571;573
537;448;399;375;378;412
531;618;667;696;708;709
525;588;637;670;687;676
525;426;379;361;368;404
516;544;553;561;567;583
511;627;704;750;767;750
510;441;414;408;418;440
500;462;437;428;432;463
492;619;695;739;754;738
488;480;492;507;523;529
481;397;351;330;335;373
476;569;624;656;671;674
472;533;583;617;635;627
473;374;327;311;320;358
464;495;508;518;525;544
462;576;653;701;719;702
470;394;364;357;367;388
465;427;401;391;395;425
464;587;660;702;717;698
469;451;457;468;482;487
469;380;329;306;309;344
472;563;614;644;655;654
478;528;571;599;612;600
490;383;329;306;310;342
498;522;528;532;534;544
505;609;677;716;726;700
524;435;395;380;382;396
528;485;452;436;432;452
538;653;720;755;760;733
550;522;518;520;526;523
555;462;405;376;371;398
558;649;698;723;727;717
561;606;643;667;674;657
566;461;405;380;379;407
564;595;606;610;610;617
562;669;738;778;788;761
566;482;445;431;436;453
556;525;501;490;491;513
552;675;749;790;802;780
554;530;531;539;551;556
549;464;416;393;396;431
545;644;701;732;743;739
545;590;629;656;670;660
545;444;392;371;376;410
540;578;593;603;608;620
537;643;713;755;769;748
543;457;421;409;416;437
537;509;488;478;481;506
537;658;732;772;785;766
538;509;509;516;528;535
534;452;404;382;384;419
531;633;691;723;734;729
529;572;610;636;649;640
534;434;383;361;365;398
532;571;589;599;604;614
530;633;701;743;755;733
535;448;411;398;405;427
529;505;487;478;481;505
529;650;723;765;778;759
529;499;497;503;515;524
522;445;401;380;382;418
514;621;683;718;730;725
512;552;589;617;631;624
510;413;364;344;350;385
501;547;569;584;592;604
494;597;667;711;728;708
500;413;376;364;374;399
498;477;461;455;460;486
498;619;694;738;753;735
503;468;463;468;482;492
502;424;378;356;360;396
508;611;670;702;713;706
522;548;577;597;608;600
530;425;368;341;341;372
533;575;592;601;602;607
531;625;688;725;734;709
539;446;403;386;388;408
536;518;501;492;491;511
538;657;730;772;782;760
541;502;494;497;506;513
533;459;415;394;396;428
524;636;701;736;747;738
515;548;582;607;622;616
482;397;354;338;346;382
401;488;536;567;587;605
293;446;553;622;662;663
253;210;209;230;269;321
260;270;285;310;344;395
331;440;518;576;611;615
497;394;351;340;350;368
631;476;375;319;298;320
633;700;720;718;695;661
577;598;608;606;592;562
549;460;403;369;352;364
545;604;629;640;635;625
552;642;703;738;743;710
567;468;421;402;402;418
572;556;541;532;529;542
573;688;758;798;806;781
576;528;514;512;519;524
567;498;455;433;432;461
560;674;739;775;783;768
559;579;605;626;638;631
555;458;406;383;385;416
545;606;637;655;663;668
541;633;696;735;749;730
540;447;405;391;398;426
530;529;523;522;527;549
532;654;730;776;792;775
534;488;476;477;489;503
521;458;421;404;409;443
511;631;702;741;755;744
508;527;554;577;595;594
502;408;359;338;344;380
495;560;594;616;627;636
488;577;641;681;699;684
488;395;353;339;350;383
478;482;478;480;487;511
474;596;675;723;742;728
474;427;415;418;432;449
466;406;371;356;362;399
464;583;653;693;707;696
466;479;503;524;540;540
468;372;321;298;302;337
466;532;566;586;596;602
466;549;608;645;660;643
475;377;331;314;321;351
477;478;472;470;473;493
479;596;670;714;728;709
494;435;415;412;419;432
498;433;392;371;372;401
505;618;682;716;723;704
519;520;534;547;556;549
529;426;368;338;334;361
537;597;626;641;643;641
544;616;666;695;702;678
554;449;396;373;374;398
556;557;548;542;539;552
561;673;743;782;790;765
570;507;482;475;478;486
562;503;464;443;441;466
560;676;743;778;786;764
561;563;579;593;604;598
560;464;410;384;383;413
555;626;664;685;693;693
550;625;680;714;727;708
552;453;405;387;393;425
548;558;557;559;561;579
544;662;737;781;796;777
549;489;467;462;471;486
542;488;455;439;442;471
538;659;729;768;779;761
540;540;556;572;585;584
538;445;393;369;371;403
533;609;651;674;685;688
530;603;656;691;706;690
535;435;387;369;376;408
530;544;546;548;553;571
529;646;721;766;781;763
536;471;447;441;449;465
528;477;443;428;430;459
528;648;719;758;769;750
533;528;540;554;566;565
532;437;384;358;359;392
527;606;649;673;683;685
524;593;645;677;691;676
522;423;376;357;363;396
515;535;540;544;550;567
505;625;703;750;767;749
502;439;417;414;425;444
489;446;419;408;414;446
489;613;687;730;745;729
494;488;501;516;531;534
498;406;353;330;333;368
497;580;625;652;662;664
500;564;613;644;658;644
514;409;357;335;340;372
522;537;538;539;540;554
527;636;706;747;758;735
537;462;430;418;423;436
533;485;452;435;433;458
533;653;722;760;767;745
544;529;534;543;552;549
545;451;397;369;367;396
540;625;671;697;705;701
530;593;640;671;684;669
527;428;379;360;366;399
513;543;554;562;567;583
475;603;688;739;759;743
393;357;354;365;387;415
280;298;314;334;364;412
244;411;524;600;647;656
263;269;303;342;385;417
362;250;196;181;199;254
534;551;557;565;568;570
637;619;609;600;585;557
623;488;400;344;317;327
568;597;594;580;557;546
542;663;735;769;766;725
549;476;445;430;427;431
557;515;487;471;466;481
570;686;754;790;796;766
581;555;554;559;566;560
576;485;431;403;400;427
570;662;712;739;746;738
566;620;662;689;701;684
565;464;413;391;395;425
556;590;602;609;613;625
548;660;734;777;793;771
548;471;439;429;438;458
541;507;485;474;478;505
537;660;736;778;791;773
536;515;520;530;544;551
528;444;397;376;380;416
522;620;676;709;722;721
516;568;612;642;659;650
516;416;368;349;357;392
507;544;561;572;579;594
499;610;684;730;746;727
500;421;390;381;391;415
489;463;443;437;443;471
484;611;688;734;750;734
487;464;467;478;494;504
480;400;355;334;340;378
478;579;638;672;686;685
475;523;565;594;610;603
479;379;329;309;316;352
475;515;532;543;550;564
475;581;653;697;712;692
482;397;361;350;357;381
481;452;431;422;424;450
485;606;679;721;734;714
493;462;458;465;477;483
495;410;360;336;337;371
501;599;654;684;692;684
508;544;577;600;611;599
519;412;355;330;330;360
523;559;572;579;579;585
529;626;690;726;735;708
539;447;403;386;388;405
543;513;490;475;473;491
548;665;734;772;779;755
555;518;509;512;519;522
554;471;420;394;392;423
555;657;714;743;749;738
554;590;623;644;654;641
558;455;401;376;377;406
552;597;616;626;629;635
549;649;716;756;767;742
551;463;423;408;415;436
545;525;509;502;504;526
542;665;739;782;795;775
544;509;504;510;523;531
539;463;419;398;402;436
538;644;706;740;752;744
537;569;602;626;640;633
538;437;385;362;366;399
533;581;604;617;623;632
530;627;694;733;747;726
532;442;401;388;395;420
530;512;497;492;494;517
528;649;723;766;780;762
531;492;485;489;501;511
525;452;408;387;390;425
525;634;696;731;742;733
526;553;583;606;619;613
529;428;375;351;354;387
524;576;600;614;620;627
519;615;681;719;732;712
516;428;388;375;382;407
508;499;489;486;491;513
496;624;703;750;766;749
490;456;452;460;475;489
482;416;379;365;372;409
485;598;665;704;720;713
494;517;545;568;584;582
503;400;346;322;325;360
501;554;578;593;599;607
507;596;656;693;704;682
520;422;375;356;360;384
524;510;494;487;486;504
531;646;716;757;767;744
539;489;473;472;478;486
533;462;417;395;394;424
537;647;709;742;749;734
542;558;581;599;609;600
543;442;386;360;360;389
538;595;623;637;641;645
530;620;682;719;731;709
526;434;391;377;383;409
501;504;501;502;507;529
438;585;678;735;759;747
328;336;361;390;422;450
237;232;239;259;296;356
226;378;482;556;604;623
269;293;336;380;424;450
430;281;204;176;187;235
603;576;549;533;521;521
644;670;677;672;651;610
598;488;414;368;341;344
562;565;548;528;507;503
552;679;753;789;787;748
563;511;495;489;488;485
572;502;459;436;430;450
581;690;753;785;788;763
582;588;606;620;628;616
580;479;422;393;391;416
575;639;671;686;692;690
567;650;709;744;755;732
568;469;422;404;409;437
560;563;558;557;560;577
553;675;753;798;813;794
551;499;483;482;493;507
544;484;448;432;434;467
538;658;729;768;780;766
536;545;567;586;602;600
531;436;385;362;367;400
525;597;635;657;668;674
517;600;660;696;714;699
516;420;376;360;370;403
504;515;516;519;525;547
496;621;702;750;769;753
494;442;427;428;441;460
487;433;400;388;394;430
484;606;679;720;736;723
481;489;511;530;547;549
479;386;336;314;319;354
473;548;590;615;627;634
472;549;608;645;662;648
479;379;332;315;324;358
476;484;484;486;491;513
476;594;671;716;732;715
484;422;400;396;405;421
483;426;390;373;375;406
487;605;673;711;720;703
495;492;505;520;531;528
499;400;345;318;317;348
507;577;614;634;640;641
515;581;630;661;671;652
529;421;366;343;344;373
531;539;534;531;529;543
534;648;719;760;769;745
546;477;448;439;441;452
549;491;452;433;429;453
551;668;735;769;776;751
559;552;561;571;579;572
561;463;406;377;374;401
559;636;676;698;703;700
557;624;674;705;716;697
563;459;408;386;389;419
557;573;575;576;577;591
553;670;745;789;802;781
557;488;462;456;463;477
550;500;467;453;454;483
547;668;739;779;790;770
547;540;552;565;578;578
546;452;399;374;376;409
544;626;671;697;706;707
541;606;656;688;702;687
545;442;392;372;377;411
541;560;564;568;572;588
537;653;728;773;788;768
540;470;442;434;441;459
535;489;458;444;447;475
534;657;729;769;780;761
537;527;536;549;561;561
536;444;391;366;368;401
535;620;668;695;704;705
529;593;642;674;687;673
535;432;382;362;368;400
524;550;559;564;569;584
516;635;712;758;774;754
517;447;419;413;422;442
502;465;440;431;435;465
491;621;699;744;760;742
494;484;496;510;526;533
497;406;357;335;340;376
505;591;640;669;682;683
506;561;606;636;651;639
518;411;357;334;339;372
526;546;551;553;554;567
532;639;708;747;758;734
545;462;424;410;413;427
544;500;468;451;448;470
546;665;735;771;778;754
551;530;532;539;546;545
553;461;406;378;376;406
553;643;693;719;726;720
552;605;648;674;686;670
553;450;397;375;378;408
543;575;587;593;597;608
530;647;723;768;782;760
505;437;412;408;419;441
411;413;414;419;435;471
290;477;596;671;712;713
241;274;324;372;420;455
246;188;170;180;216;283
329;412;469;514;548;571
520;497;499;510;520;516
665;473;359;297;272;291
656;644;611;579;547;533
601;706;758;774;757;707
582;504;463;437;423;419
571;543;518;501;489;496
576;699;771;808;811;777
592;561;558;562;567;562
595;503;448;420;417;443
589;685;738;766;772;760
586;630;668;692;703;687
586;482;428;404;407;436
578;616;630;638;640;649
571;679;751;793;806;781
575;490;454;441;447;468
562;536;516;507;509;534
555;682;759;802;816;796
553;529;531;540;554;562
547;466;420;399;403;440
540;645;705;740;753;750
536;581;622;650;666;659
533;434;385;364;371;407
528;570;590;603;610;622
520;629;702;746;762;742
521;436;401;391;401;426
509;488;471;466;472;499
501;628;708;754;770;754
497;471;473;483;500;512
492;414;370;352;359;398
488;595;657;694;709;707
484;525;564;592;610;605
485;386;335;315;322;359
485;529;549;563;570;582
485;588;658;699;714;694
493;403;363;350;357;382
491;468;449;441;445;469
496;616;690;732;745;726
502;466;460;464;475;484
501;421;373;351;351;386
505;611;669;703;711;703
512;543;574;596;607;598
521;415;359;333;334;364
528;569;586;595;596;601
533;628;691;727;736;709
550;452;404;385;387;405
553;529;507;495;493;510
560;677;746;784;791;766
572;527;515;514;519;523
573;490;439;413;410;439
573;678;737;767;772;758
574;600;629;648;657;644
575;471;415;388;388;416
574;621;642;653;656;659
570;665;730;767;778;753
573;478;435;417;422;444
565;551;536;529;530;550
563;685;760;804;817;796
565;524;515;518;528;539
559;485;440;420;422;456
556;668;732;768;778;767
554;580;611;633;646;640
554;453;400;377;380;412
549;603;629;645;652;658
544;640;706;745;759;739
549;455;411;396;402;429
545;535;522;518;520;543
545;667;743;787;801;781
552;507;495;497;508;518
547;475;431;411;412;446
544;658;723;759;770;757
540;564;592;613;627;621
537;439;387;364;367;399
529;589;618;636;644;651
521;617;683;724;738;719
522;428;386;372;381;410
510;507;501;499;505;529
500;627;708;756;774;758
502;459;449;455;469;485
502;433;394;377;382;419
507;620;687;724;737;727
509;525;549;571;585;582
515;413;357;333;335;368
523;578;604;619;624;629
533;614;670;703;713;692
544;440;389;368;369;394
547;538;524;516;514;529
547;665;738;778;787;763
552;500;483;480;485;494
553;483;440;419;418;447
555;669;734;767;775;757
554;567;589;605;616;608
547;450;397;372;372;402
537;604;638;657;665;668
529;617;680;718;733;714
505;419;380;369;379;411
426;459;475;489;503;532
312;491;608;683;723;724
264;263;290;324;367;408
270;232;223;235;269;332
342;448;521;572;605;614
522;464;448;451;462;465
663;479;364;301;276;294
661;682;671;650;622;602
592;673;715;727;711;667
556;470;422;395;384;394
545;557;557;553;546;552
551;672;750;794;803;774
567;506;486;483;488;494
573;504;464;443;441;467
574;688;753;786;794;771
571;576;592;607;617;609
565;470;415;388;388;416
560;630;667;688;695;696
556;635;693;729;741;722
553;456;409;392;398;428
543;553;554;556;560;579
538;661;738;785;802;784
540;483;465;463;474;490
531;476;443;427;432;465
529;650;722;762;774;760
524;530;550;567;583;583
516;425;375;352;356;391
509;585;628;653;666;672
503;581;639;677;695;682
501;403;358;343;353;389
491;507;509;514;522;544
485;607;686;735;754;740
484;426;408;407;419;439
473;424;393;380;387;422
472;596;670;712;727;713
473;474;492;510;526;528
468;376;327;304;308;344
464;543;587;613;625;631
464;537;593;628;644;631
467;368;321;304;312;348
467;482;485;488;492;512
469;586;661;708;724;706
478;412;387;382;390;407
475;422;389;374;376;405
482;601;670;708;718;699
492;485;495;507;518;515
500;402;346;318;317;346
507;582;622;642;648;646
516;578;625;653;663;643
527;419;365;341;342;369
534;545;543;541;539;549
541;650;719;759;768;742
553;478;445;432;434;445
549;495;459;440;437;460
552;670;737;773;779;754
557;545;552;561;569;564
556;461;405;377;374;402
554;635;679;703;710;706
548;612;661;693;704;686
551;448;397;376;381;412
543;565;571;574;577;592
539;656;731;776;790;769
542;471;443;436;444;461
536;491;461;448;451;479
534;658;730;771;783;763
535;525;535;547;560;560
533;442;391;366;369;402
529;617;666;693;705;705
525;588;637;669;684;671
528;426;377;357;363;398
523;548;557;563;567;583
520;636;711;757;772;751
528;453;422;415;422;440
522;480;451;438;440;469
520;643;716;757;769;750
520;506;513;525;538;540
512;424;375;352;354;389
505;597;651;681;693;694
499;560;608;641;658;648
495;396;349;331;340;377
480;514;529;540;547;565
478;594;672;720;738;721
484;408;379;373;384;407
481;442;416;406;411;442
486;608;680;722;736;718
494;473;477;487;499;504
500;408;354;328;328;363
510;598;646;672;679;677
