ecg
-2.490272373540856
0.34180209048599985
3.36919203479057
-0.9277485313191425
-0.9277485313191425
3.076218814373999
0.7324330510414282
-1.513694972152285
1.9043259327077133
1.9043259327077133
-1.1230640115968566
0.537117570763714
36.768139162279695
132.3750667582208
227.88433661402303
299.9557488364996
389.1172655832761
427.8873884184024
364.9958037689784
279.6429388876173
226.41947051194018
194.09475852597848
154.83634699015792
101.31990539406424
67.7256427862974
57.95986877241169
39.5025558861677
21.826504921034562
22.60776684214542
18.799114976729992
6.005951018539712
6.39658197909514
10.10757610437171
2.0019836728465705
-0.537117570763714
5.420004577706569
2.0996414129854277
-2.8809033340962844
1.9043259327077133
2.783245593957427
-2.68558785381857
-0.7324330510414282
2.783245593957427
-1.3183794918745708
-2.197299153124285
1.9043259327077133
0.24414435034714274
-2.5879301136797133
0.537117570763714
1.2207217517357138
-2.0996414129854277
-0.7324330510414282
1.416037232013428
-1.0254062714579995
-1.513694972152285
0.9277485313191425
0.04882887006942855
-1.7090104524299992
0.14648661020828566
0.537117570763714
-1.416037232013428
-0.6347753109025711
0.6347753109025711
-0.8300907911802854
-9.228656443121995
-24.560921644922562
-36.0845349813077
-68.70222018768597
-117.92172121766994
-92.82368200198367
6.884870679789426
78.17502098115511
83.15556572823682
53.27229724574655
31.68993667505913
27.295338368810558
18.017853055619135
8.349736781872283
10.693522545204852
9.71694514381628
1.6113527122911422
2.2949568932631417
5.615320057984283
0.43945983062485694
-1.2207217517357138
3.076218814373999
1.1230640115968566
-2.392614633401999
0.9277485313191425
-16.357671473258563
-129.25001907377737
-356.7925535973144
-553.6705577172503
-573.006790264744
-445.46578164339667
-294.29159990844585
-197.90341039139392
-144.6799420157168
-101.31990539406424
-73.48744945448996
-60.2059967956054
-42.04165712977798
-25.732814526588847
-22.705424582284277
-18.017853055619135
-8.05676356145571
-6.982528419928283
-8.545052262149996
-2.68558785381857
-0.43945983062485694
-3.9551384756237127
-1.7090104524299992
1.7090104524299992
-1.2207217517357138
-1.7090104524299992
1.9043259327077133
0.8300907911802854
-1.416037232013428
1.1230640115968566
1.8066681925688564
-0.7324330510414282
0.14648661020828566
2.0019836728465705
0.04882887006942855
-0.34180209048599985
1.7090104524299992
0.8300907911802854
-0.43945983062485694
1.3183794918745708
32.95948729686427
115.57793545433738
201.22377355611505
282.76798657206075
370.8552681773098
373.10139620050353
295.36583504997327
258.35355153734645
266.9474326695659
254.1542687113756
197.12214847028307
125.24605172808423
85.6946669718471
69.9717708094911
44.19012741283284
22.803082322423133
19.385061417563133
14.697489890897993
9.81460288395514
16.45532921339742
16.45532921339742
4.541084916456855
3.1738765545128556
7.959105821316854
1.8066681925688564
-1.7090104524299992
3.9551384756237127
2.392614633401999
-2.9785610742351416
0.7324330510414282
2.783245593957427
-2.197299153124285
-1.3183794918745708
2.490272373540856
-0.6347753109025711
-2.392614633401999
1.3183794918745708
0.6347753109025711
-2.490272373540856
0.04882887006942855
1.3183794918745708
-1.6113527122911422
-1.1230640115968566
1.3183794918745708
-0.537117570763714
-1.7090104524299992
0.6347753109025711
0.24414435034714274
-1.7090104524299992
-0.14648661020828566
0.6347753109025711
-1.1230640115968566
-0.8300907911802854
0.6347753109025711
-0.43945983062485694
-1.1230640115968566
0.24414435034714274
0.04882887006942855
-1.1230640115968566
-0.14648661020828566
0.24414435034714274
-0.9277485313191425
-0.6347753109025711
0.24414435034714274
-0.43945983062485694
-0.8300907911802854
0.04882887006942855
-0.04882887006942855
-0.8300907911802854
-0.24414435034714274
0.04882887006942855
-0.6347753109025711
-0.537117570763714
0.04882887006942855
-0.43945983062485694
-0.6347753109025711
-0.04882887006942855
-0.14648661020828566
-0.6347753109025711
-0.24414435034714274
-0.04882887006942855
-0.43945983062485694
-0.43945983062485694
-0.04882887006942855
-12.939650568398566
-84.81574731059739
-223.8803692683299
-349.9565117875944
-421.1490043488212
-449.37209124895094
-417.92629892423895
-332.7687495231556
-233.54848554207675
-155.1293202105745
-111.37865262836652
-83.83916990920882
-58.1551842526894
-42.43228809033341
-34.424353398947126
-22.998397802700847
-14.306858930342566
-13.232623788815136
-9.71694514381628
-4.052796215762569
-4.150453955901427
-4.541084916456855
-0.9277485313191425
-0.34180209048599985
-2.2949568932631417
-0.34180209048599985
1.1230640115968566
-0.6347753109025711
-0.34180209048599985
1.416037232013428
0.24414435034714274
-0.7324330510414282
1.0254062714579995
1.0254062714579995
-0.34180209048599985
0.537117570763714
1.416037232013428
0.04882887006942855
0.04882887006942855
1.3183794918745708
0.537117570763714
-0.04882887006942855
0.9277485313191425
0.8300907911802854
0.04882887006942855
0.6347753109025711
1.1230640115968566
0.24414435034714274
0.24414435034714274
40.86976424811169
155.51995117112992
252.00579842832076
272.318608377203
307.28007934691385
348.3939879453727
320.6591897459373
276.51789120317386
257.86526283665216
235.59929808499274
191.16502632181277
126.71091783016709
80.2258335240711
66.84672312504769
49.073014419775696
26.90470740825513
24.95155260547799
23.389028763256274
8.935683222705425
6.298924238956283
11.767757686732281
4.248111696040284
-1.1230640115968566
5.224689097428855
3.8574807354848555
-2.9785610742351416
0.9277485313191425
3.8574807354848555
-2.0996414129854277
-1.7090104524299992
3.1738765545128556
-0.34180209048599985
-2.9785610742351416
1.513694972152285
1.0254062714579995
-2.783245593957427
-0.04882887006942855
1.8066681925688564
-1.8066681925688564
-1.416037232013428
1.6113527122911422
-0.43945983062485694
-2.0019836728465705
0.7324330510414282
-24.853894865339132
-162.35599298084992
-413.3363851377127
-594.0032043945984
-566.8543526359961
-409.82070649271384
-261.1856260013733
-178.5671778439002
-132.57038223849852
-92.14007782101167
-68.4092469672694
-56.39734493018997
-37.35408560311284
-23.19371328297856
-21.92416266117342
-3.7598229953459983
107.47234302281224
347.61272602426186
565.1941710536355
586.678873884184
445.5634393835355
285.50240329594874
192.14160372320134
143.3127336537728
98.48783093003739
71.24132143129626
60.987258716716255
41.45571068894484
23.779659723811704
23.19371328297856
18.701457236591136
6.787212939650568
7.080186160067139
5.420004577706569
-55.81139848935683
-207.4738689250019
-355.9136339360647
-400.83619439993896
-387.65239948119324
-374.5662623025864
-345.7572289616236
-281.59609369039447
-192.53223468375677
-125.44136720836194
-97.60891126878766
-71.72961013199054
-44.09246967269398
-36.86579690241855
-31.9829098954757
-15.674067292286564
-10.693522545204852
-14.599832150759136
-6.787212939650568
-0.7324330510414282
-6.103608758678568
-4.638742656595713
2.0996414129854277
-1.0254062714579995
-3.7598229953459983
1.9043259327077133
1.7090104524299992
-2.783245593957427
0.34180209048599985
2.9785610742351416
-1.2207217517357138
-0.9277485313191425
2.783245593957427
0.43945983062485694
-1.416037232013428
1.8066681925688564
1.6113527122911422
-1.2207217517357138
0.6347753109025711
2.197299153124285
-0.34180209048599985
-0.14648661020828566
19.775692378118563
69.87411306935225
107.86297398336767
122.6092927443351
185.30556191348134
263.0411230640116
255.42381933318075
227.10307469291217
249.17372396429388
240.2868696116579
189.3095292591745
175.53978789959564
178.17654688334477
147.8049897001602
112.74586099031052
96.53467612726024
87.55016403448539
75.34294651712825
57.95986877241169
57.08094911116198
62.54978255893797
36.96345464255741
13.720912489509422
22.21713588158999
18.60379949645228
0.34180209048599985
5.71297779812314
12.84199282825971
-0.9277485313191425
-2.68558785381857
8.349736781872283
1.6113527122911422
-5.810635538261997
3.662165255207141
4.150453955901427
-5.322346837567712
-0.537117570763714
4.834058136873426
-2.783245593957427
-3.36919203479057
3.8574807354848555
0.04882887006942855
-4.345769436179141
1.7090104524299992
2.0996414129854277
-3.5645075150682843
-0.537117570763714
2.68558785381857
-2.0019836728465705
-2.2949568932631417
2.197299153124285
-0.14648661020828566
-6.201266498817426
-9.42397192339971
-9.130998702983138
-26.709391927977418
-80.12817578393225
-105.7145037003128
-71.24132143129626
-62.2568093385214
-79.44457160296025
-41.5533684290837
4.931715877012284
3.466849774929427
14.990463111314565
65.96780346379796
107.47234302281224
99.85503929198138
54.44419012741283
30.615701533531702
33.545433737697415
19.775692378118563
5.615320057984283
14.11154345006485
12.74433508812085
-1.2207217517357138
2.68558785381857
9.130998702983138
-10.693522545204852
-62.35446707866026
-141.84786755168994
-228.76325627527277
-326.9092851148241
-433.5515373464561
-480.2319371328298
-420.66071564812694
-295.2681773098344
-188.03997863736936
-137.06263828488594
-103.17540245670253
-66.74906538490883
-51.61211566338598
-45.16670481422141
-26.123445487144274
-15.674067292286564
-18.799114976729992
-11.865415426871138
-2.5879301136797133
-6.787212939650568
-7.080186160067139
0.8300907911802854
-0.6347753109025711
-4.931715877012284
0.537117570763714
2.490272373540856
-2.68558785381857
-0.7324330510414282
3.2715342946517127
-0.537117570763714
-1.6113527122911422
2.68558785381857
1.1230640115968566
-1.9043259327077133
1.2207217517357138
2.197299153124285
-1.0254062714579995
0.04882887006942855
2.490272373540856
0.04882887006942855
-0.6347753109025711
2.0019836728465705
7.861448081177996
22.314793621728846
62.45212481879911
166.45761806668193
280.32654306858933
292.43610284580757
267.04509040970476
298.68619821469446
308.2566567483024
257.5722896162356
218.50919356069275
211.38017853055618
200.73548485542076
155.22697795071335
94.5815213244831
67.13969634546426
57.764553292133975
34.131380178530556
20.947585259784848
25.24452582589456
16.16235599298085
3.7598229953459983
9.130998702983138
9.81460288395514
-0.6347753109025711
0.9277485313191425
6.787212939650568
-0.24414435034714274
-2.783245593957427
3.9551384756237127
1.416037232013428
-3.8574807354848555
1.0254062714579995
2.68558785381857
-2.8809033340962844
-1.1230640115968566
2.783245593957427
-1.2207217517357138
-2.490272373540856
1.8066681925688564
0.34180209048599985
-2.783245593957427
0.24414435034714274
1.3183794918745708
-2.0996414129854277
-0.9277485313191425
1.513694972152285
-0.9277485313191425
-1.7090104524299992
0.9277485313191425
0.14648661020828566
-28.467231250476843
-106.30045014114596
-183.3524071107042
-230.32578011749447
-288.43213550011444
-309.8191805905241
-250.15030136568245
-209.03639276722362
-215.4818036163882
-184.13366903181506
-131.98443579766536
-113.33180743114366
-72.02258335240711
14.013885709925994
81.78835736629281
153.56679636835278
281.9867246509499
399.76195925841154
407.9652094300755
301.90890363927673
184.32898451209277
135.01182574196994
105.61684596017395
61.475547417410546
46.92454413672083
48.97535667963683
26.025787747005417
11.08415350576028
21.045242999923705
14.306858930342566
-1.0254062714579995
6.591897459372854
10.693522545204852
-44.580758373388264
-182.96177615014878
-334.7219043259327
-419.3911650263218
-442.7313649195087
-417.8286411841001
-354.15579461356526
-268.60761425192646
-174.17257953765164
-114.99198901350424
-95.46044098573282
-68.21393148699168
-40.08850232700084
-37.15877012283513
-31.2993057145037
-12.646677347981994
-10.693522545204852
-15.576409552147707
-4.931715877012284
0.04882887006942855
-7.568474860761425
-3.9551384756237127
3.5645075150682843
-2.0996414129854277
-4.248111696040284
3.1738765545128556
1.3183794918745708
-3.7598229953459983
1.2207217517357138
3.2715342946517127
-2.197299153124285
-0.6347753109025711
3.466849774929427
-0.24414435034714274
-1.7090104524299992
2.5879301136797133
1.416037232013428
-1.7090104524299992
1.3183794918745708
2.392614633401999
-1.0254062714579995
0.04882887006942855
2.5879301136797133
0.24414435034714274
-0.6347753109025711
18.701457236591136
78.07736324101626
139.11345082780193
156.39887083237966
194.09475852597848
267.4357213702602
269.1935606927596
223.39208056763562
225.2475776302739
216.8490119783322
165.8716716258488
156.78950179293508
179.9343862058442
163.62554360265506
124.26947432669566
102.7847714961471
106.49576562142367
102.29648279545282
61.28023193713283
31.9829098954757
37.35408560311284
26.61173418783856
5.810635538261997
12.84199282825971
16.650644693675137
-0.04882887006942855
0.24414435034714274
10.888838025482567
1.0254062714579995
-5.127031357289998
5.71297779812314
3.7598229953459983
-5.810635538261997
0.8300907911802854
5.0293736171511405
-3.8574807354848555
-2.5879301136797133
4.638742656595713
-0.8300907911802854
-4.345769436179141
2.68558785381857
1.6113527122911422
-4.150453955901427
0.14648661020828566
2.783245593957427
-2.68558785381857
-1.9043259327077133
2.5879301136797133
-0.7324330510414282
-2.783245593957427
1.513694972152285
0.8300907911802854
-2.68558785381857
0.04882887006942855
1.6113527122911422
-1.8066681925688564
-1.3183794918745708
1.416037232013428
-0.6347753109025711
-1.9043259327077133
0.7324330510414282
0.34180209048599985
-1.8066681925688564
-0.04882887006942855
0.8300907911802854
-1.2207217517357138
-0.9277485313191425
0.7324330510414282
-0.537117570763714
-1.3183794918745708
0.34180209048599985
-3.7598229953459983
-64.69825284199283
-227.2983901731899
-399.3713282978561
-469.97787441824977
-454.4502937361715
-393.41420614938585
-310.1121538109407
-224.46631570916304
-149.95345998321508
-105.12855725947966
-82.27664606698711
-58.057526512550545
-38.818951705195694
-32.56885633630884
-24.267948424505988
-13.037308308537423
-11.181811245899137
-10.888838025482567
-4.345769436179141
-2.392614633401999
-5.0293736171511405
-1.9043259327077133
1.0254062714579995
-1.8066681925688564
-1.6113527122911422
1.7090104524299992
0.14648661020828566
-1.513694972152285
1.2207217517357138
1.3183794918745708
-1.0254062714579995
0.43945983062485694
2.0019836728465705
-0.04882887006942855
-0.14648661020828566
1.8066681925688564
0.8300907911802854
-0.34180209048599985
1.2207217517357138
1.2207217517357138
-0.24414435034714274
0.43945983062485694
1.2207217517357138
0.04882887006942855
0.04882887006942855
1.2207217517357138
0.537117570763714
-0.04882887006942855
21.43587396047913
104.34729533836881
213.04036011291677
268.90058747234303
316.26459143968873
404.5471885252155
449.9580376897841
392.3399710078584
276.81086442359043
178.95780880445562
128.56641489280537
95.55809872587167
64.11230640115969
49.17067215991455
41.065079728389414
25.049210345616846
16.064698252841993
16.943617914091707
10.888838025482567
3.7598229953459983
6.298924238956283
6.005951018539712
0.04882887006942855
1.0254062714579995
3.7598229953459983
-0.14648661020828566
-1.416037232013428
2.0996414129854277
0.6347753109025711
-2.0996414129854277
0.537117570763714
1.2207217517357138
-1.7090104524299992
-0.7324330510414282
1.2207217517357138
-0.8300907911802854
-1.416037232013428
0.8300907911802854
0.04882887006942855
-1.6113527122911422
0.04882887006942855
0.537117570763714
-1.2207217517357138
-0.6347753109025711
0.537117570763714
-0.7324330510414282
-1.0254062714579995
0.34180209048599985
-0.14648661020828566
-1.1230640115968566
-0.04882887006942855
0.14648661020828566
-0.9277485313191425
-0.43945983062485694
0.24414435034714274
-0.537117570763714
-0.7324330510414282
0.04882887006942855
-0.24414435034714274
-0.8300907911802854
-0.14648661020828566
0.04882887006942855
-0.6347753109025711
-0.43945983062485694
0.04882887006942855
-0.43945983062485694
-0.537117570763714
-0.04882887006942855
-0.24414435034714274
-0.6347753109025711
-0.24414435034714274
-2.0019836728465705
-53.95590142671855
-206.49729152361334
-367.2419317921721
-430.42648966201267
-433.2585641260395
-407.2816052491035
-341.36263065537497
-252.20111390859847
-167.4341954680705
-114.69901579308767
-89.30800335698481
-63.42870222018769
-42.04165712977798
-35.4009308003357
-26.90470740825513
-14.209201190203707
-11.865415426871138
-12.060730907148852
-4.834058136873426
-2.2949568932631417
-5.420004577706569
-2.197299153124285
1.2207217517357138
-1.9043259327077133
-2.0996414129854277
1.7090104524299992
0.24414435034714274
-1.8066681925688564
1.1230640115968566
1.7090104524299992
-1.1230640115968566
0.14648661020828566
2.0019836728465705
-0.14648661020828566
-0.537117570763714
1.6113527122911422
0.6347753109025711
-0.6347753109025711
1.0254062714579995
1.2207217517357138
-0.34180209048599985
0.43945983062485694
1.6113527122911422
0.04882887006942855
0.04882887006942855
1.3183794918745708
0.6347753109025711
-0.24414435034714274
0.8300907911802854
1.1230640115968566
0.04882887006942855
1.1230640115968566
33.15480277714199
106.78873884184024
142.92210269321737
135.20714122224766
179.4460975051499
230.32578011749447
212.94270237277792
210.69657434958418
248.0018310826276
237.45479514763105
197.41512169069964
191.3603418020905
195.26665140764476
176.41870756084535
137.06263828488594
107.08171206225681
101.6128786144808
81.5930418860151
43.311207751583126
32.56885633630884
34.61966887922484
16.16235599298085
6.787212939650568
16.064698252841993
9.619287403677424
-2.0019836728465705
5.420004577706569
7.763790341039139
-3.1738765545128556
-0.7324330510414282
6.298924238956283
-1.0254062714579995
-3.9551384756237127
3.8574807354848555
1.416037232013428
-4.443427176317998
0.9277485313191425
2.9785610742351416
-12.45136186770428
-35.303273060196844
-42.236972610055695
-40.28381780727855
-76.90547035934996
-131.2031738765545
-126.12497138933395
-101.90585183489738
-128.66407263294423
-142.14084077210651
-114.4060425726711
-120.65613794155794
-137.64858472571908
-107.17936980239567
-83.83916990920882
-90.67521171892882
-69.0928511482414
-35.4009308003357
-35.49858854047456
-25.92813000686656
12.74433508812085
24.4632639047837
16.748302433813993
34.0337224383917
55.51842526894026
77.58907454032196
140.96894789044023
232.9625391012436
282.76798657206075
235.30632486457617
140.5783169298848
101.6128786144808
94.48386358434425
52.97932402532997
27.97894254978256
41.26039520866713
27.588311589227132
2.490272373540856
14.209201190203707
18.701457236591136
-2.783245593957427
-0.14648661020828566
10.400549324788281
-50.44022278171969
-208.6457618066682
-386.1875333791104
-482.57572289616235
-474.9584191653315
-395.0743877317464
-302.8854810406653
-231.20469977874419
-157.37544823376822
-99.75738155184253
-83.05790798809797
-65.47951476310368
-35.49858854047456
-28.95551995117113
-30.22507057297627
-13.525597009231708
-5.908293278400855
-13.81857022964828
-7.470817120622568
1.9043259327077133
-5.0293736171511405
-6.39658197909514
3.076218814373999
0.537117570763714
-5.127031357289998
1.6113527122911422
3.466849774929427
-3.1738765545128556
-0.537117570763714
4.150453955901427
-0.8300907911802854
-2.0996414129854277
3.36919203479057
1.416037232013428
-2.2949568932631417
1.6113527122911422
2.68558785381857
-1.7090104524299992
-0.14648661020828566
2.8809033340962844
-0.14648661020828566
-1.0254062714579995
2.197299153124285
7.373159380483711
18.310826276035705
50.04959182116426
148.39093614099338
276.9085221637293
311.08873121232926
288.3344777599756
319.0966659037156
342.1438925764858
293.11970702677957
227.78667887388417
191.5556572823682
173.5866330968185
137.55092698558022
84.62043183031967
59.13176165407798
52.97932402532997
31.9829098954757
17.627222095063708
22.412451361867703
15.869382772564279
2.9785610742351416
7.275501640344854
9.71694514381628
-0.43945983062485694
-0.14648661020828566
6.39658197909514
0.43945983062485694
-3.36919203479057
3.2715342946517127
2.0996414129854277
-3.8574807354848555
0.34180209048599985
2.9785610742351416
-2.490272373540856
-1.7090104524299992
2.68558785381857
-0.6347753109025711
-2.783245593957427
1.513694972152285
0.8300907911802854
-2.68558785381857
-0.04882887006942855
1.513694972152285
-1.8066681925688564
-1.2207217517357138
1.513694972152285
-0.537117570763714
-1.9043259327077133
0.7324330510414282
0.34180209048599985
-1.8066681925688564
-0.14648661020828566
0.7324330510414282
-1.3183794918745708
-0.9277485313191425
0.7324330510414282
-0.43945983062485694
-1.3183794918745708
0.34180209048599985
0.04882887006942855
-1.2207217517357138
-0.14648661020828566
0.34180209048599985
-0.9277485313191425
-0.7324330510414282
0.24414435034714274
-0.43945983062485694
-0.9277485313191425
0.04882887006942855
-0.04882887006942855
-0.8300907911802854
-20.45929655909056
-100.7339589532311
-260.2090485999847
-450.8369573510338
-553.0846112764171
-500.1541161211566
-363.82391088731214
-240.09155413138018
-163.3325703822385
-119.48424505989166
-86.76890211337454
-63.42870222018769
-48.68238345922026
-34.61966887922484
-23.096055542839704
-18.11551079575799
-13.81857022964828
-8.05676356145571
-6.103608758678568
-5.71297779812314
-2.8809033340962844
-1.3183794918745708
-2.197299153124285
-1.0254062714579995
0.537117570763714
-0.24414435034714274
-0.6347753109025711
0.6347753109025711
0.43945983062485694
-0.24414435034714274
0.7324330510414282
1.1230640115968566
0.04882887006942855
0.24414435034714274
1.0254062714579995
0.34180209048599985
0.04882887006942855
0.8300907911802854
0.6347753109025711
0.14648661020828566
0.8300907911802854
0.9277485313191425
0.14648661020828566
0.24414435034714274
0.9277485313191425
0.537117570763714
0.34180209048599985
25.92813000686656
116.06622415503166
211.86846723125046
218.50919356069275
210.11062790875104
258.9394979781796
266.7521171892882
226.32181277180132
235.0133516441596
253.37300679026475
215.97009231708248
167.23887998779279
148.19562066071566
145.75417715724421
123.19523918516823
74.85465781643397
49.365987640192266
48.291752498664835
30.029755092698558
12.939650568398566
19.385061417563133
16.357671473258563
1.416037232013428
4.931715877012284
10.498207064927138
-0.24414435034714274
-2.0996414129854277
6.494239719233997
1.416037232013428
-4.541084916456855
2.783245593957427
3.2715342946517127
-4.052796215762569
-0.537117570763714
3.7598229953459983
-2.197299153124285
-2.783245593957427
2.8809033340962844
0.04882887006942855
-3.466849774929427
1.1230640115968566
1.6113527122911422
-2.8809033340962844
-0.537117570763714
2.0996414129854277
-1.6113527122911422
-1.9043259327077133
1.6113527122911422
-0.04882887006942855
-2.2949568932631417
0.537117570763714
0.8300907911802854
-1.9043259327077133
-0.43945983062485694
1.1230640115968566
-1.1230640115968566
-1.3183794918745708
0.8300907911802854
-0.24414435034714274
-1.513694972152285
0.14648661020828566
0.34180209048599985
-1.3183794918745708
-0.34180209048599985
0.537117570763714
-0.7324330510414282
-0.9277485313191425
0.43945983062485694
-0.24414435034714274
-1.1230640115968566
0.04882887006942855
0.04882887006942855
-0.9277485313191425
-0.34180209048599985
-4.638742656595713
-60.694285496299685
-218.6068513008316
-395.7579919127184
-463.43480582894637
-440.8758678568704
-388.72663462272067
-316.5575646601053
-235.50164034485388
-159.42626077668422
-108.35126268406195
-84.22980086976425
-61.37788967727169
-39.69787136644541
-32.37354085603113
-26.123445487144274
-14.013885709925994
-10.400549324788281
-11.47478446631571
-5.517662317845426
-1.6113527122911422
-4.736400396734569
-3.076218814373999
1.1230640115968566
-1.1230640115968566
-2.2949568932631417
1.3183794918745708
0.9277485313191425
-1.6113527122911422
0.537117570763714
1.9043259327077133
-0.7324330510414282
-0.14648661020828566
2.0019836728465705
0.34180209048599985
-0.537117570763714
1.513694972152285
1.1230640115968566
-0.537117570763714
0.7324330510414282
1.513694972152285
-0.24414435034714274
0.04882887006942855
35.596246280613414
141.16426337071795
236.28290226596476
244.09552147707333
255.91210803387503
304.35034714274815
290.2876325627527
237.65011062790876
226.1264972915236
218.80216678110932
180.4226749065385
141.84786755168994
125.44136720836194
118.01937895780881
92.5307087815671
57.95986877241169
49.26832990005341
48.09643701838712
25.732814526588847
13.13496604867628
20.263981078812847
12.74433508812085
0.34180209048599985
7.080186160067139
9.033340962844282
-2.0996414129854277
-0.04882887006942855
6.6895551995117115
-0.6347753109025711
-3.662165255207141
4.052796215762569
1.6113527122911422
-4.345769436179141
0.9277485313191425
2.9785610742351416
-3.1738765545128556
-1.416037232013428
3.076218814373999
-1.1230640115968566
-2.8809033340962844
2.0019836728465705
0.537117570763714
-2.9785610742351416
0.34180209048599985
1.6113527122911422
-13.720912489509422
-42.92057679102769
-52.97932402532997
-38.91660944533455
-58.8387884336614
-114.30838483253224
-137.55092698558022
-156.59418631265737
-224.7592889295796
-266.36148622873276
-253.86129549095904
-267.1427481498436
-280.4242008087282
-230.81406881818876
-173.09834439612422
-132.1797512779431
-58.25284199282826
27.881284809643702
82.56961928740368
153.46913862821393
264.7013046463722
349.565880827039
363.6285954070344
314.702067597467
253.4706645304036
207.37621118486305
140.67597467002366
81.10475318532082
71.8272678721294
60.401312275883114
27.392996108949415
22.998397802700847
30.22507057297627
-7.177843900205997
-96.04638742656596
-201.8097199969482
-278.6663614862287
-331.69451438162815
-391.8516823071641
-429.0592813000687
-390.09384298466466
-278.37338826581214
-172.61005569542993
-128.17578393224994
-99.65972381170367
-59.91302357518883
-45.85030899519341
-45.069047074082555
-24.365606164644845
-11.767757686732281
-19.18974593728542
-12.646677347981994
0.04882887006942855
-6.298924238956283
-8.935683222705425
2.197299153124285
0.8300907911802854
-6.39658197909514
0.537117570763714
4.052796215762569
-3.5645075150682843
-1.6113527122911422
4.638742656595713
-0.34180209048599985
-2.8809033340962844
3.1738765545128556
1.8066681925688564
-2.8809033340962844
1.3183794918745708
3.2715342946517127
-1.6113527122911422
-0.43945983062485694
5.810635538261997
9.228656443121995
17.52956435492485
72.90150301365682
206.20431830319677
321.83108262760356
318.120088502327
281.1078049897002
281.20546272983904
242.43533989471274
175.73510337987335
157.1801327534905
143.11741817349508
99.17143511100939
86.67124437323568
98.39017318989853
74.07339589532312
41.358052948805984
31.494621194781413
18.89677271686885
6.39658197909514
11.279468986037996
20.654612039368278
18.701457236591136
17.236591134508277
38.1353475242237
70.65537499046312
68.70222018768597
18.506141756313422
-33.93606469825284
-52.002746623941405
-31.103990234225986
17.52956435492485
50.928511482413974
37.64705882352941
19.775692378118563
35.79156176089113
40.186160067139696
12.060730907148852
6.591897459372854
19.48271915770199
6.005951018539712
-4.638742656595713
9.228656443121995
7.373159380483711
-6.884870679789426
0.537117570763714
7.177843900205997
-12.939650568398566
-37.256427862973986
-42.43228809033341
-31.201647974364842
-29.2484931715877
-44.67841611352712
-35.69390402075227
-9.521629663538567
-13.720912489509422
-18.017853055619135
-0.8300907911802854
1.0254062714579995
-9.912260624093996
-14.306858930342566
-32.95948729686427
-65.38185702296482
-57.86221103227283
-18.506141756313422
-4.150453955901427
4.150453955901427
40.186160067139696
88.72205691615167
106.30045014114596
68.60456244754711
35.10795757991913
40.28381780727855
29.834439612420844
5.71297779812314
12.646677347981994
18.799114976729992
-36.96345464255741
-164.21149004348823
-293.2173647669184
-357.57381551842525
-382.18356603341726
-395.85564965285727
-383.55077439536126
-321.14747844663157
-215.4818036163882
-136.57434958419165
-110.3044174868391
-80.9094377050431
-46.14328221560998
-41.5533684290837
-37.94003204394598
-15.771725032425422
-10.986495765621424
-18.506141756313422
-7.275501640344854
0.9277485313191425
-8.252079041733426
-6.005951018539712
4.248111696040284
-1.513694972152285
-5.810635538261997
3.076218814373999
2.490272373540856
-4.541084916456855
0.6347753109025711
4.443427176317998
-2.2949568932631417
-1.6113527122911422
4.248111696040284
0.34180209048599985
-2.490272373540856
2.68558785381857
2.0996414129854277
-2.2949568932631417
0.8300907911802854
3.076218814373999
-1.1230640115968566
-0.6347753109025711
2.8809033340962844
0.34180209048599985
-1.3183794918745708
1.9043259327077133
17.724879835202564
57.471580071717405
118.41000991836424
238.52903028915847
407.18394750896465
490.19302662699323
442.4383916990921
346.147859922179
244.8767833981842
149.85580224307623
95.75341420614939
91.74944686045625
102.00350957503625
90.87052719920653
57.178606851300835
36.57282368200198
34.91264209964141
22.60776684214542
9.619287403677424
13.427939269092851
12.158388647287708
1.416037232013428
2.9785610742351416
7.470817120622568
0.24414435034714274
-1.8066681925688564
4.248111696040284
1.3183794918745708
-3.2715342946517127
1.416037232013428
2.490272373540856
-2.783245593957427
-0.7324330510414282
2.5879301136797133
-1.3183794918745708
-2.197299153124285
1.7090104524299992
0.04882887006942855
-2.5879301136797133
0.43945983062485694
1.1230640115968566
-2.0019836728465705
-0.7324330510414282
1.416037232013428
-1.0254062714579995
-1.513694972152285
0.9277485313191425
-6.39658197909514
-50.928511482413974
-120.55848020141909
-132.27740901808195
-100.92927443350881
-135.89074540321965
-202.10269321736476
-232.18127718013275
-281.0101472495613
-335.99145494773785
-322.0263981078813
-265.8731975280385
-214.89585717555505
-169.28969253070878
-119.87487602044709
-59.71770809491112
33.05714503700313
171.7311360341802
296.92835889219504
360.6988632028687
381.79293507286184
373.29671168078124
329.8390173189899
242.63065537499045
149.07454032196537
107.47234302281224
89.7962920576791
52.97932402532997
15.576409552147707
-15.674067292286564
-57.764553292133975
-136.4766918440528
-244.1931792172122
-304.448004882887
-310.5027847714961
-330.5226214999619
-350.4448004882887
-315.6786449988556
-233.25551232166018
-157.6684214541848
-129.34767681391622
-111.86694132906081
-68.01861600671397
-42.43228809033341
-45.45967803463798
-29.346150911726557
-9.71694514381628
-17.13893339436942
-16.943617914091707
-0.14648661020828566
-2.68558785381857
-10.986495765621424
0.04882887006942855
3.8574807354848555
-6.39658197909514
-2.2949568932631417
5.517662317845426
-2.0996414129854277
-4.248111696040284
4.541084916456855
1.7090104524299992
-4.248111696040284
1.9043259327077133
10.888838025482567
19.092088197146563
21.63118944075685
40.67444876783398
110.79270618753338
174.0749217975128
198.1963836118105
239.31029221026932
260.013733119707
210.01297016861218
167.6295109483482
156.69184405279623
109.23018234531166
56.20202944991226
48.19409475852598
32.86182955672541
2.2949568932631417
10.009918364232853
25.146868085755703
4.736400396734569
-6.494239719233997
5.224689097428855
-6.39658197909514
-23.779659723811704
-12.158388647287708
-5.224689097428855
-12.646677347981994
-1.6113527122911422
13.037308308537423
6.005951018539712
5.127031357289998
22.21713588158999
28.174258030060273
31.494621194781413
51.80743114366369
66.45609216449226
67.0420386053254
74.95231555657283
88.03845273517967
91.94476234073396
88.4290836957351
80.9094377050431
79.93286030365454
77.10078583962768
52.39337758449683
38.03768978408484
39.20958266575113
20.752269779507134
-1.2207217517357138
-13.81857022964828
-26.61173418783856
-46.43625543602655
-87.15953307392996
-129.34767681391622
-147.02372777904935
-157.57076371404594
-169.28969253070878
-166.16464484626536
-155.91058213168535
-155.91058213168535
-151.61364156557565
-134.2305638208591
-121.82803082322422
-110.40207522697796
-86.96421759365225
-63.33104448004883
-40.186160067139696
0.537117570763714
52.78400854505226
90.87052719920653
113.13649195086595
127.98046845197223
125.5390249485008
110.20675974670024
103.27306019684139
110.49973296711681
130.42191195544365
163.3325703822385
207.2785534447242
235.98992904554817
191.75097276264592
105.0308995193408
82.66727702754254
89.1126878767071
44.28778515297169
18.310826276035705
39.79552910658427
6.6895551995117115
-120.7537956816968
-282.96330205233846
-405.62142366674294
-445.27046616311895
-406.5980010681315
-343.70641641870753
-295.4634927901121
-223.6850537880522
-133.0586709391928
-96.53467612726024
-88.33142595559625
-50.928511482413974
-28.760204470893417
-38.525978484779124
-25.146868085755703
-3.466849774929427
-13.427939269092851
-16.45532921339742
2.0996414129854277
-0.24414435034714274
-11.47478446631571
0.34180209048599985
5.71297779812314
-6.591897459372854
-2.9785610742351416
6.982528419928283
-1.6113527122911422
-5.322346837567712
4.931715877012284
2.5879301136797133
-4.931715877012284
1.9043259327077133
4.736400396734569
-3.1738765545128556
-1.1230640115968566
4.931715877012284
-0.43945983062485694
-2.68558785381857
3.5645075150682843
4.443427176317998
5.908293278400855
47.51049057755398
178.27420462348363
337.55397878995956
385.8945601586938
346.05020218204015
331.01091020065616
321.9287403677424
268.1193255512322
198.78233005264363
157.27779049362937
142.14084077210651
114.01541161211567
69.0928511482414
48.78004119935912
45.069047074082555
26.22110322728313
13.720912489509422
19.287403677424276
13.427939269092851
1.513694972152285
6.201266498817426
8.642710002288853
-1.0254062714579995
-0.43945983062485694
5.908293278400855
0.04882887006942855
-3.2715342946517127
3.1738765545128556
1.8066681925688564
-3.7598229953459983
0.34180209048599985
2.783245593957427
-2.490272373540856
-1.6113527122911422
2.5879301136797133
-0.7324330510414282
-2.68558785381857
1.416037232013428
0.7324330510414282
-2.5879301136797133
0.04882887006942855
1.416037232013428
-1.8066681925688564
-1.2207217517357138
1.416037232013428
-0.6347753109025711
-1.8066681925688564
0.7324330510414282
0.24414435034714274
-11.767757686732281
-30.908674753948272
-29.736781872281988
-4.248111696040284
17.236591134508277
20.752269779507134
9.130998702983138
-22.803082322423133
-67.13969634546426
-76.51483939879454
-76.31952391851682
-128.07812619211109
-152.98084992751964
-101.80819409475852
-63.33104448004883
-36.57282368200198
43.21355001144427
137.94155794613565
172.51239795529108
130.5195696955825
70.4600595101854
51.02616922255284
44.19012741283284
21.826504921034562
15.381094071869994
22.119478141451133
10.693522545204852
0.8300907911802854
9.130998702983138
7.470817120622568
-2.9785610742351416
1.8066681925688564
6.494239719233997
-26.709391927977418
-115.57793545433738
-216.65369649805447
-276.12726024261843
-329.057755397879
-395.66033417257955
-412.1644922560464
-355.9136339360647
-264.79896238651105
-188.43060959792479
-146.04715037766078
-105.12855725947966
-65.38185702296482
-53.17463950560769
-44.97138933394369
-23.87731746395056
-16.650644693675137
-20.263981078812847
-10.10757610437171
-2.2949568932631417
-8.545052262149996
-6.39658197909514
2.0019836728465705
-1.8066681925688564
-5.127031357289998
1.8066681925688564
1.8066681925688564
-3.5645075150682843
0.24414435034714274
3.36919203479057
-1.7090104524299992
-1.3183794918745708
3.1738765545128556
0.34180209048599985
-1.9043259327077133
2.0996414129854277
1.9043259327077133
-1.513694972152285
0.7324330510414282
3.9551384756237127
3.5645075150682843
25.63515678644999
132.3750667582208
315.4833295185779
425.05531395437555
397.3205157549401
351.3237201495384
328.6671244373236
274.27176317998016
202.20035095750362
151.41832608529793
128.2734416723888
108.93720912489509
71.24132143129626
43.99481193255512
41.065079728389414
29.541466392004274
12.84199282825971
14.697489890897993
15.381094071869994
3.36919203479057
2.5879301136797133
8.545052262149996
1.8066681925688564
-2.392614633401999
4.150453955901427
2.68558785381857
-3.36919203479057
0.7324330510414282
3.36919203479057
-2.392614633401999
-1.6113527122911422
2.8809033340962844
-0.6347753109025711
-2.8809033340962844
1.513694972152285
0.8300907911802854
-2.68558785381857
0.04882887006942855
1.6113527122911422
-1.8066681925688564
-1.2207217517357138
1.6113527122911422
-0.537117570763714
-2.0019836728465705
0.7324330510414282
0.34180209048599985
-14.50217441062028
-45.26436255436027
-56.49500267032883
-50.83085374227512
-96.24170290684367
-158.3520256351568
-140.28534370946824
-91.26115815976196
-74.95231555657283
-30.71335927367056
24.365606164644845
-7.177843900205997
-75.73357747768368
-91.94476234073396
-91.94476234073396
-84.52277409018082
-24.95155260547799
35.49858854047456
37.74471656366827
27.49065384908827
28.66254673075456
7.177843900205997
-5.420004577706569
28.66254673075456
65.77248798352025
79.63988708323797
96.33936064698253
132.47272449835967
159.52391851682307
125.44136720836194
64.69825284199283
55.32310978866255
58.350499732967116
24.65857938506142
12.060730907148852
28.27191577019913
14.209201190203707
-3.7598229953459983
11.08415350576028
9.033340962844282
-61.08491645685512
-190.6767376211185
-302.8854810406653
-348.5893034256504
-374.0779736018921
-393.60952162966356
-372.3201342793927
-298.1979095140002
-199.56359197375448
-140.67597467002366
-119.77721828030823
-80.61646448462653
-45.85030899519341
-46.533913176165406
-37.549401083390556
-12.939650568398566
-14.209201190203707
-20.068665598535134
-3.9551384756237127
0.04882887006942855
-10.888838025482567
-3.8574807354848555
5.0293736171511405
-4.345769436179141
-5.322346837567712
5.0293736171511405
0.7324330510414282
-5.420004577706569
2.68558785381857
3.7598229953459983
-3.9551384756237127
-0.24414435034714274
4.834058136873426
-1.2207217517357138
-2.0996414129854277
4.052796215762569
1.1230640115968566
-2.783245593957427
2.0019836728465705
2.68558785381857
-2.0996414129854277
0.9277485313191425
45.362020294499125
154.25040054932478
249.85732814526588
291.9478141451133
347.41741054398415
381.98825055313955
335.0148775463493
270.5607690547036
232.66956588082704
201.90737773708705
162.35599298084992
111.47631036850538
79.3469138628214
70.65537499046312
48.584725719081405
25.146868085755703
26.123445487144274
23.096055542839704
6.982528419928283
6.982528419928283
12.646677347981994
2.783245593957427
-1.2207217517357138
6.591897459372854
3.076218814373999
-3.8574807354848555
2.0019836728465705
3.8574807354848555
-3.1738765545128556
-1.1230640115968566
3.662165255207141
-1.2207217517357138
-2.9785610742351416
2.392614633401999
0.6347753109025711
-3.2715342946517127
0.43945983062485694
1.8066681925688564
-2.490272373540856
-1.0254062714579995
2.0019836728465705
-1.0254062714579995
-2.0019836728465705
1.3183794918745708
0.24414435034714274
-2.197299153124285
0.14648661020828566
1.0254062714579995
-1.6113527122911422
-0.8300907911802854
1.0254062714579995
-0.8300907911802854
-1.416037232013428
0.6347753109025711
0.04882887006942855
-12.84199282825971
-35.010299839780274
-34.22903791866941
-27.783627069504846
-73.29213397421225
-127.10154879072252
-139.01579308766307
-179.05546654459448
-256.10742351415274
-282.76798657206075
-276.12726024261843
-290.18997482261386
-277.00617990386814
-212.64972915236135
-154.25040054932478
-98.19485770962082
6.591897459372854
129.54299229419394
237.45479514763105
343.6087586785687
411.4808880750744
394.09781033035785
295.561150530251
179.2507820248722
123.19523918516823
103.37071793698024
64.50293736171511
14.50217441062028
-53.56527046616312
-154.34805828946364
-283.1586175326162
-415.7778286411841
-482.4780651560235
-441.3641565575647
-323.00297550926985
-208.35278858625162
-153.85976958876935
-118.41000991836424
-73.09681849393453
-54.7371633478294
-52.002746623941405
-29.834439612420844
-15.088120851453422
-21.728847180895706
-14.990463111314565
-1.3183794918745708
-6.982528419928283
-9.81460288395514
1.513694972152285
0.6347753109025711
-6.6895551995117115
0.24414435034714274
4.150453955901427
-3.5645075150682843
-2.0019836728465705
4.541084916456855
-0.34180209048599985
-3.076218814373999
3.2715342946517127
2.197299153124285
-2.8809033340962844
1.0254062714579995
3.36919203479057
-1.513694972152285
-0.537117570763714
3.2715342946517127
0.14648661020828566
-1.6113527122911422
2.197299153124285
2.490272373540856
1.3183794918745708
21.92416266117342
95.9487296864271
183.45006485084306
192.9228656443122
177.29762722209506
237.94308384832533
302.98313878080415
304.448004882887
287.357900358587
227.2983901731899
93.70260166323338
-0.7324330510414282
9.033340962844282
37.64705882352941
51.31914244296941
78.17502098115511
84.52277409018082
59.42473487449455
54.54184786755169
62.35446707866026
43.21355001144427
23.58434424353399
25.24452582589456
28.857862211032273
28.369573510337986
28.564888990615703
37.94003204394598
43.40886549172198
27.588311589227132
12.256046387426567
14.209201190203707
17.13893339436942
11.767757686732281
21.826504921034562
38.33066300450141
24.560921644922562
13.232623788815136
24.17029068436713
12.74433508812085
-2.9785610742351416
14.990463111314565
21.826504921034562
-0.43945983062485694
-0.14648661020828566
13.427939269092851
0.6347753109025711
-6.884870679789426
7.470817120622568
4.638742656595713
-7.666132600900283
1.416037232013428
6.6895551995117115
-5.0293736171511405
-3.2715342946517127
6.103608758678568
-1.2207217517357138
-5.517662317845426
3.662165255207141
2.0996414129854277
-5.322346837567712
0.43945983062485694
3.7598229953459983
-3.466849774929427
-2.197299153124285
3.662165255207141
-0.9277485313191425
-3.5645075150682843
2.0019836728465705
1.0254062714579995
-3.466849774929427
0.04882887006942855
2.197299153124285
-2.2949568932631417
-1.513694972152285
2.0996414129854277
-0.6347753109025711
-2.2949568932631417
1.1230640115968566
0.537117570763714
-2.2949568932631417
-0.04882887006942855
1.1230640115968566
-1.6113527122911422
-1.0254062714579995
1.1230640115968566
-0.537117570763714
-1.513694972152285
0.6347753109025711
0.14648661020828566
-1.513694972152285
-0.04882887006942855
0.6347753109025711
-27.68596932936599
-128.2734416723888
-268.9982452124819
-374.66392004272524
-437.94613565270464
-452.8877698939498
-397.6134889753567
-299.0768291752499
-200.93080033569848
-135.40245670252537
-102.19882505531396
-74.65934233615626
-50.635538261997404
-40.186160067139696
-31.2993057145037
-18.310826276035705
-13.623254749370565
-13.330281528953995
-7.177843900205997
-3.2715342946517127
-5.420004577706569
-3.36919203479057
0.34180209048599985
-1.513694972152285
-2.2949568932631417
1.0254062714579995
0.537117570763714
-1.513694972152285
0.6347753109025711
1.7090104524299992
-0.537117570763714
0.04882887006942855
1.8066681925688564
0.14648661020828566
-0.537117570763714
1.3183794918745708
0.9277485313191425
-0.43945983062485694
0.7324330510414282
1.416037232013428
-0.04882887006942855
0.24414435034714274
1.416037232013428
0.537117570763714
0.04882887006942855
1.1230640115968566
0.8300907911802854
0.04882887006942855
0.7324330510414282
1.0254062714579995
0.04882887006942855
0.24414435034714274
38.72129396505684
150.63706416418708
249.3690394445716
269.6818493934539
301.42061493858245
349.565880827039
327.49523155565726
274.1741054398413
248.0018310826276
229.64217593652248
193.6064698252842
134.13290608072023
85.98764019226367
70.06942854962998
52.49103532463569
28.95551995117113
25.342183566033416
24.560921644922562
10.400549324788281
6.103608758678568
11.767757686732281
5.224689097428855
-1.0254062714579995
4.834058136873426
4.443427176317998
-2.68558785381857
0.43945983062485694
4.052796215762569
-1.6113527122911422
-2.0996414129854277
2.8809033340962844
0.04882887006942855
-3.076218814373999
1.2207217517357138
1.416037232013428
-2.68558785381857
-0.43945983062485694
1.9043259327077133
-1.513694972152285
-1.6113527122911422
1.513694972152285
-0.24414435034714274
-2.197299153124285
0.537117570763714
-0.14648661020828566
-44.19012741283284
-162.8442816815442
-266.84977492942704
-286.7719539177539
-301.029983978027
-310.3074692912184
-236.8688487067979
-137.74624246585793
-66.84672312504769
51.31914244296941
212.0637827115282
302.2018768596933
294.09628442816813
239.7985809109636
191.94628824292363
156.78950179293508
103.37071793698024
38.1353475242237
-22.998397802700847
-68.70222018768597
-109.91378652628366
-173.48897535667965
-209.03639276722362
-188.52826733806364
-195.65728236820019
-264.7013046463722
-330.9132524605173
-329.1554131380179
-260.2090485999847
-195.65728236820019
-158.15671015487908
-104.34729533836881
-60.401312275883114
-57.95986877241169
-46.826886396581976
-18.799114976729992
-18.506141756313422
-24.17029068436713
-6.298924238956283
-0.9277485313191425
-12.646677347981994
-5.127031357289998
4.931715877012284
-4.834058136873426
-6.005951018539712
5.224689097428855
0.7324330510414282
-6.005951018539712
2.490272373540856
4.150453955901427
-4.248111696040284
-0.34180209048599985
5.224689097428855
-1.3183794918745708
-2.490272373540856
4.248111696040284
1.1230640115968566
-3.1738765545128556
2.0996414129854277
2.9785610742351416
-2.197299153124285
0.04882887006942855
3.466849774929427
-0.537117570763714
-1.2207217517357138
26.22110322728313
96.14404516670481
154.05508506904707
163.82085908293277
198.48935683222706
254.44724193179218
241.06813153276875
210.50125886930647
234.23208972304874
235.0133516441596
188.23529411764707
169.4850080109865
171.53582055390248
143.9963378347448
106.30045014114596
85.0110627908751
77.68673228046082
71.8272678721294
54.54184786755169
50.24490730144198
57.95986877241169
35.49858854047456
10.986495765621424
19.775692378118563
18.89677271686885
-0.04882887006942855
3.9551384756237127
13.037308308537423
-0.34180209048599985
-3.9551384756237127
7.959105821316854
2.392614633401999
-6.298924238956283
2.9785610742351416
4.834058136873426
-5.127031357289998
-1.2207217517357138
5.322346837567712
-2.2949568932631417
-3.9551384756237127
3.7598229953459983
0.537117570763714
-4.638742656595713
1.3183794918745708
2.490272373540856
-3.5645075150682843
-1.0254062714579995
2.9785610742351416
-1.6113527122911422
-8.935683222705425
-17.334248874647134
-20.55695429922942
-35.010299839780274
-81.10475318532082
-100.14801251239795
-86.08529793240254
-119.28892957961395
-154.15274280918592
-121.04676890211337
-86.08529793240254
-63.13572899977112
8.154421301594567
66.26077668421455
26.318760967421987
-53.17463950560769
-104.64026855878538
-131.10551613641564
-103.4683756771191
-23.096055542839704
21.92416266117342
13.13496604867628
12.549019607843137
16.45532921339742
-4.931715877012284
-15.381094071869994
-0.6347753109025711
-1.8066681925688564
-8.642710002288853
9.81460288395514
32.37354085603113
54.54184786755169
104.1519798580911
168.50843060959792
197.7080949111162
158.15671015487908
95.06981002517739
86.08529793240254
89.99160753795681
45.55733577477684
20.947585259784848
38.525978484779124
23.87731746395056
-31.9829098954757
-100.7339589532311
-163.13725490196077
-214.60288395513848
-277.20149538414586
-330.0343327992676
-342.8274967574578
-327.49523155565726
-296.8307011520562
-266.9474326695659
-218.80216678110932
-134.9141680018311
-83.4485389486534
-80.03051804379339
-55.127794308384836
-23.974975204089418
-30.420386053253985
-29.346150911726557
-4.931715877012284
-6.201266498817426
-17.43190661478599
-2.2949568932631417
4.248111696040284
-9.326314183260854
-4.443427176317998
7.080186160067139
-2.68558785381857
-6.39658197909514
5.420004577706569
2.2949568932631417
-6.201266498817426
2.0019836728465705
5.224689097428855
-3.8574807354848555
-1.1230640115968566
5.615320057984283
-0.7324330510414282
-3.1738765545128556
3.9551384756237127
1.9043259327077133
-3.36919203479057
18.60379949645228
97.02296482795452
199.46593423361563
239.70092317082475
245.26741435873961
288.2368200198367
304.7409781033036
266.36148622873276
251.51750972762645
256.595712214847
225.73586633096818
167.82482642862593
122.02334630350195
108.2536049439231
97.3159380483711
59.71770809491112
34.717326619363696
37.549401083390556
25.830472266727703
7.861448081177996
13.525597009231708
15.185778591592278
0.6347753109025711
1.416037232013428
9.619287403677424
0.7324330510414282
-3.7598229953459983
5.224689097428855
2.783245593957427
-4.834058136873426
1.1230640115968566
4.150453955901427
-3.36919203479057
-1.9043259327077133
3.8574807354848555
-1.1230640115968566
-3.5645075150682843
2.2949568932631417
1.0254062714579995
-3.5645075150682843
0.24414435034714274
2.197299153124285
-2.392614633401999
-1.3183794918745708
2.197299153124285
-0.8300907911802854
-2.392614633401999
1.2207217517357138
0.34180209048599985
-2.392614633401999
0.04882887006942855
1.2207217517357138
-3.1738765545128556
-5.908293278400855
-3.5645075150682843
-1.1230640115968566
-6.982528419928283
-21.728847180895706
-23.389028763256274
-23.389028763256274
-56.59266041046769
-84.62043183031967
-100.83161669336995
-170.46158541237506
-239.7985809109636
-229.93514915693905
-210.8918898298619
-209.42702372777904
-138.42984664682993
-13.81857022964828
90.08926527809568
184.62195773250934
260.79499504081787
277.88509956511786
230.32578011749447
143.41039139391165
86.57358663309682
75.9288929579614
54.24887464713512
8.935683222705425
-40.08850232700084
-85.0110627908751
-146.34012359807735
-256.10742351415274
-362.0660715648127
-393.7071793698024
-368.6091401541161
-323.1006332494087
-275.83428702220186
-218.4115358205539
-140.09002822919052
-89.7962920576791
-79.73754482337682
-56.29968719005112
-28.564888990615703
-30.127412832837415
-27.783627069504846
-8.05676356145571
-7.275501640344854
-15.185778591592278
-3.466849774929427
2.2949568932631417
-7.568474860761425
-3.9551384756237127
5.127031357289998
-1.8066681925688564
-4.931715877012284
4.052796215762569
2.0996414129854277
-4.443427176317998
1.416037232013428
4.150453955901427
-2.68558785381857
-1.0254062714579995
4.150453955901427
-0.34180209048599985
-2.2949568932631417
3.076218814373999
1.7090104524299992
-2.392614633401999
1.3183794918745708
9.42397192339971
18.60379949645228
29.443808651865414
81.49538414587624
196.73151750972764
275.736629282063
273.4905012588693
291.0688944838636
326.5186541542687
298.1002517738613
246.24399176012818
225.73586633096818
217.2396429388876
185.98916609445334
123.19523918516823
76.12420843823911
65.47951476310368
47.80346379797055
23.974975204089418
24.17029068436713
23.87731746395056
7.568474860761425
5.322346837567712
12.549019607843137
3.8574807354848555
-2.197299153124285
5.810635538261997
4.150453955901427
-3.8574807354848555
1.0254062714579995
4.541084916456855
-2.68558785381857
-2.0019836728465705
3.7598229953459983
-0.43945983062485694
-16.45532921339742
-38.03768978408484
-38.42832074464027
-31.68993667505913
-60.2059967956054
-72.80384527351796
-42.04165712977798
-38.62363622491798
-52.6863508049134
-26.123445487144274
-2.8809033340962844
-17.724879835202564
-13.330281528953995
6.103608758678568
-15.869382772564279
-35.20561532005799
-15.869382772564279
-17.52956435492485
-39.014267185473415
-30.029755092698558
-21.14290074006256
-40.57679102769512
-46.92454413672083
-39.014267185473415
-55.90905622949569
-74.95231555657283
-77.00312809948882
-96.33936064698253
-118.70298313878081
-103.27306019684139
-75.83123521782254
-63.33104448004883
-38.818951705195694
2.9785610742351416
36.0845349813077
72.99916075379568
126.12497138933395
162.45365072098878
160.5981536583505
141.2619211108568
141.35957885099566
146.53543907835507
106.8863965819791
61.475547417410546
72.60852979324025
76.71015487907225
31.2993057145037
16.748302433813993
35.49858854047456
15.674067292286564
-4.248111696040284
15.283436331731137
14.404516670481422
-8.44739452201114
1.7090104524299992
13.525597009231708
-4.736400396734569
-6.201266498817426
10.205233844510566
0.9277485313191425
-9.130998702983138
4.736400396734569
5.420004577706569
-30.71335927367056
-98.97611963073167
-181.1062790875105
-269.3888761730373
-376.12878614480815
-460.79804684519723
-458.6495765621424
-365.6794079499504
-242.0447089341573
-163.5278858625162
-128.76173037308308
-88.91737239642939
-56.88563363088426
-51.61211566338598
-39.5025558861677
-18.310826276035705
-17.13893339436942
-19.18974593728542
-6.103608758678568
-2.68558785381857
-9.912260624093996
-3.8574807354848555
2.68558785381857
-3.9551384756237127
-3.9551384756237127
3.5645075150682843
0.14648661020828566
-3.8574807354848555
2.197299153124285
2.783245593957427
-2.68558785381857
0.04882887006942855
3.466849774929427
-1.1230640115968566
-1.416037232013428
2.9785610742351416
0.7324330510414282
-1.7090104524299992
1.9043259327077133
2.0996414129854277
-1.3183794918745708
0.34180209048599985
2.490272373540856
-0.34180209048599985
-0.537117570763714
26.22110322728313
103.76134889753567
188.72358281834136
242.82597085526817
318.9990081635767
392.53528648813614
370.8552681773098
299.4674601358053
256.6933699549859
232.86488136110475
196.73151750972764
137.06263828488594
86.76890211337454
69.19050888838025
52.588693064774546
29.541466392004274
24.756237125200276
24.4632639047837
11.08415350576028
6.005951018539712
11.377126726176853
5.71297779812314
-0.8300907911802854
4.443427176317998
4.541084916456855
-2.392614633401999
0.04882887006942855
3.8574807354848555
-1.3183794918745708
-2.197299153124285
2.68558785381857
0.34180209048599985
-2.8809033340962844
0.9277485313191425
1.513694972152285
-2.392614633401999
-0.6347753109025711
1.8066681925688564
-1.3183794918745708
-1.7090104524299992
1.3183794918745708
-0.04882887006942855
-2.0019836728465705
0.34180209048599985
0.7324330510414282
-1.6113527122911422
-0.537117570763714
0.9277485313191425
-4.931715877012284
-19.092088197146563
-28.27191577019913
-17.920195315480278
4.443427176317998
18.310826276035705
16.16235599298085
7.666132600900283
4.736400396734569
4.638742656595713
0.7324330510414282
-8.154421301594567
-19.18974593728542
-17.920195315480278
-0.8300907911802854
13.81857022964828
14.404516670481422
6.884870679789426
3.7598229953459983
4.248111696040284
1.7090104524299992
0.14648661020828566
1.9043259327077133
1.2207217517357138
-0.8300907911802854
0.24414435034714274
0.9277485313191425
-0.8300907911802854
-0.6347753109025711
0.7324330510414282
-0.34180209048599985
-1.0254062714579995
0.24414435034714274
0.04882887006942855
-44.873731593804834
-183.64538033112078
-348.49164568551157
-448.1025406271458
-473.6888685435264
-429.7428854810407
-339.2141603723201
-241.36110475318532
-160.5981536583505
-112.94117647058823
-87.15953307392996
-61.67086289768826
-42.43228809033341
-34.81498435950255
-25.146868085755703
-14.404516670481422
-12.45136186770428
-11.08415350576028
-4.736400396734569
-3.076218814373999
-5.0293736171511405
-1.9043259327077133
0.34180209048599985
-1.9043259327077133
-1.3183794918745708
1.416037232013428
-0.04882887006942855
-1.3183794918745708
1.0254062714579995
1.0254062714579995
-0.6347753109025711
0.6347753109025711
1.6113527122911422
-0.24414435034714274
-0.04882887006942855
1.513694972152285
0.43945983062485694
-0.24414435034714274
1.2207217517357138
1.1230640115968566
-0.14648661020828566
0.537117570763714
1.1230640115968566
0.14648661020828566
0.24414435034714274
1.3183794918745708
0.537117570763714
3.36919203479057
53.36995498588541
184.32898451209277
295.7564660105287
303.080796520943
308.84260318913556
352.300297550927
336.577401388571
270.267795834287
221.92721446555277
196.3408865491722
168.8014038300145
118.89829861905852
73.19447623407339
59.32707713435569
46.826886396581976
24.756237125200276
20.361638818951704
22.21713588158999
9.71694514381628
3.8574807354848555
10.302891584649425
5.71297779812314
-1.7090104524299992
3.5645075150682843
4.834058136873426
-2.490272373540856
-0.537117570763714
4.052796215762569
-1.0254062714579995
-2.68558785381857
2.5879301136797133
0.7324330510414282
-3.1738765545128556
0.6347753109025711
1.8066681925688564
-2.392614633401999
-1.0254062714579995
1.9043259327077133
-1.1230640115968566
-2.0019836728465705
1.2207217517357138
0.14648661020828566
-2.0996414129854277
0.24414435034714274
0.9277485313191425
-2.0996414129854277
-2.0996414129854277
-0.24414435034714274
-0.9277485313191425
-0.43945983062485694
1.6113527122911422
0.43945983062485694
-5.71297779812314
-13.427939269092851
-13.81857022964828
-38.91660944533455
-128.07812619211109
-198.68467231250477
-181.88754100862135
-173.3913176165408
-200.34485389486534
-165.48104066529336
-92.33539330128939
-54.15121690699626
8.74036774242771
122.8046082246128
200.24719615472648
208.05981536583505
176.3210498207065
144.1916533150225
123.19523918516823
82.27664606698711
43.99481193255512
42.43228809033341
36.57282368200198
13.525597009231708
12.646677347981994
19.48271915770199
5.420004577706569
-0.43945983062485694
9.912260624093996
4.931715877012284
-4.541084916456855
3.36919203479057
5.71297779812314
-46.826886396581976
-185.89150835431448
-342.72983901731897
-426.42252231631954
-443.90325780117496
-416.36377508201724
-351.51903562981613
-264.11535820553905
-171.7311360341802
-115.0896467536431
-94.19089036392768
-66.65140764476998
-40.57679102769512
-37.15877012283513
-30.127412832837415
-12.74433508812085
-11.279468986037996
-14.697489890897993
-4.638742656595713
-0.7324330510414282
-7.373159380483711
-3.36919203479057
2.9785610742351416
-2.2949568932631417
-3.466849774929427
3.076218814373999
0.9277485313191425
-3.2715342946517127
1.416037232013428
2.783245593957427
-2.0996414129854277
-0.24414435034714274
3.1738765545128556
-0.24414435034714274
-1.2207217517357138
2.490272373540856
1.0254062714579995
-1.6113527122911422
1.3183794918745708
2.0996414129854277
-0.7324330510414282
0.34180209048599985
2.392614633401999
0.04882887006942855
-0.537117570763714
38.1353475242237
157.57076371404594
278.56870374608985
302.98313878080415
308.15899900816356
345.6595712214847
328.1788357366293
259.52544441901273
217.9232471198596
205.81368734264134
183.45006485084306
131.8867780575265
84.13214312962539
70.26474402990769
58.25284199282826
31.885252155336843
23.291371023117417
26.025787747005417
13.037308308537423
4.345769436179141
11.377126726176853
7.861448081177996
-1.6113527122911422
3.2715342946517127
6.201266498817426
-2.0019836728465705
-1.416037232013428
4.541084916456855
-0.24414435034714274
-3.466849774929427
2.490272373540856
1.513694972152285
-3.466849774929427
0.14648661020828566
2.490272373540856
-2.197299153124285
-1.6113527122911422
2.2949568932631417
-0.6347753109025711
-2.490272373540856
1.1230640115968566
0.6347753109025711
-2.392614633401999
-0.04882887006942855
1.3183794918745708
-1.513694972152285
-1.1230640115968566
1.2207217517357138
-0.537117570763714
-1.6113527122911422
0.6347753109025711
0.24414435034714274
-1.6113527122911422
-0.14648661020828566
0.6347753109025711
-1.1230640115968566
-0.8300907911802854
0.6347753109025711
-0.43945983062485694
-1.1230640115968566
0.24414435034714274
0.04882887006942855
-1.1230640115968566
-0.14648661020828566
0.24414435034714274
-0.7324330510414282
-0.6347753109025711
0.24414435034714274
-0.34180209048599985
-33.3501182574197
-133.64461738002595
-257.3769741359579
-364.70283054856185
-455.3292133974212
-477.10688944838637
-404.25421530479895
-288.62745098039215
-188.72358281834136
-131.59380483710993
-99.75738155184253
-70.16708628976883
-50.04959182116426
-40.96742198825055
-28.467231250476843
-16.943617914091707
-15.185778591592278
-12.256046387426567
-5.322346837567712
-4.541084916456855
-5.810635538261997
-1.6113527122911422
0.04882887006942855
-2.392614633401999
-0.9277485313191425
1.416037232013428
-0.6347753109025711
-1.1230640115968566
1.416037232013428
0.6347753109025711
-0.9277485313191425
1.1230640115968566
1.7090104524299992
-0.24414435034714274
0.24414435034714274
1.6113527122911422
0.14648661020828566
-0.14648661020828566
1.416037232013428
0.9277485313191425
-0.14648661020828566
0.8300907911802854
1.1230640115968566
0.04882887006942855
0.43945983062485694
1.3183794918745708
0.24414435034714274
0.04882887006942855
12.256046387426567
40.28381780727855
53.85824368657969
70.16708628976883
158.74265659571222
256.6933699549859
258.4512092774853
246.4393072404059
291.8501564049744
307.6707103074693
271.7326619363699
239.70092317082475
221.34126802471962
196.1455710688945
142.72678721293966
75.14763103685054
31.396963454642556
20.16632333867399
27.002365148393988
42.92057679102769
48.48706797894255
27.002365148393988
10.693522545204852
16.45532921339742
12.060730907148852
-0.04882887006942855
5.0293736171511405
8.74036774242771
-1.416037232013428
-1.2207217517357138
6.005951018539712
0.14648661020828566
-3.8574807354848555
3.076218814373999
2.197299153124285
-3.9551384756237127
0.14648661020828566
3.1738765545128556
-2.490272373540856
-2.0019836728465705
2.783245593957427
-0.6347753109025711
-3.076218814373999
1.416037232013428
0.9277485313191425
-2.783245593957427
-0.04882887006942855
1.7090104524299992
-1.7090104524299992
-1.416037232013428
1.513694972152285
-0.43945983062485694
-1.9043259327077133
0.7324330510414282
0.43945983062485694
-1.9043259327077133
-0.24414435034714274
0.8300907911802854
-1.2207217517357138
-0.9277485313191425
0.8300907911802854
-0.43945983062485694
-1.3183794918745708
0.34180209048599985
0.14648661020828566
-1.2207217517357138
-0.24414435034714274
0.43945983062485694
-0.8300907911802854
-0.7324330510414282
0.34180209048599985
-0.43945983062485694
-1.0254062714579995
0.04882887006942855
0.04882887006942855
-0.9277485313191425
-0.24414435034714274
0.14648661020828566
-41.26039520866713
-191.3603418020905
-394.4884412909133
-506.30655374990465
-490.9742885481041
-404.8401617456321
-303.47142748149844
-218.02090485999847
-149.95345998321508
-103.76134889753567
-80.03051804379339
-59.42473487449455
-39.307240405889985
-30.322728313115128
-24.4632639047837
-14.306858930342566
-9.81460288395514
-10.205233844510566
-5.71297779812314
-1.9043259327077133
-3.9551384756237127
-3.076218814373999
0.537117570763714
-0.537117570763714
-1.9043259327077133
0.8300907911802854
1.1230640115968566
-1.0254062714579995
0.24414435034714274
1.6113527122911422
-0.24414435034714274
-0.24414435034714274
1.513694972152285
0.537117570763714
-0.43945983062485694
0.9277485313191425
0.9277485313191425
-0.24414435034714274
0.6347753109025711
1.416037232013428
0.14648661020828566
0.14648661020828566
1.3183794918745708
0.537117570763714
-0.04882887006942855
0.8300907911802854
0.9277485313191425
0.14648661020828566
0.6347753109025711
14.11154345006485
45.069047074082555
73.3897917143511
135.20714122224766
264.99427786678876
351.616693369955
335.893797207599
325.8350499732967
342.53452353704125
313.04188601510646
240.57984283207446
169.58266575112535
128.76173037308308
105.61684596017395
71.1436636911574
44.48310063324941
40.67444876783398
30.518043793392845
13.916227969787137
14.11154345006485
15.283436331731137
4.248111696040284
2.197299153124285
8.05676356145571
2.5879301136797133
-2.197299153124285
3.5645075150682843
2.9785610742351416
-2.9785610742351416
0.24414435034714274
3.2715342946517127
-1.8066681925688564
-1.8066681925688564
2.5879301136797133
-0.14648661020828566
-2.68558785381857
1.1230640115968566
1.0254062714579995
-2.490272373540856
-0.34180209048599985
1.6113527122911422
-1.513694972152285
-1.416037232013428
1.3183794918745708
-0.24414435034714274
-1.8066681925688564
0.537117570763714
0.537117570763714
-1.6113527122911422
-0.24414435034714274
0.8300907911802854
-1.0254062714579995
-1.0254062714579995
0.6347753109025711
-0.34180209048599985
-1.3183794918745708
0.14648661020828566
0.14648661020828566
-1.1230640115968566
-0.24414435034714274
0.34180209048599985
-0.7324330510414282
-0.7324330510414282
0.24414435034714274
-0.34180209048599985
-0.9277485313191425
0.04882887006942855
-0.04882887006942855
-15.185778591592278
-66.16311894407569
-136.6720073243305
-214.01693751430534
-332.18280308232244
-450.1533531700618
-467.6340886549172
-387.9453727016098
-284.2328526741436
-203.66521705958647
-150.8323796444648
-106.59342336156253
-73.09681849393453
-57.471580071717405
-43.50652323186084
-27.002365148393988
-20.84992751964599
-18.40848401617456
-10.009918364232853
-5.810635538261997
-7.568474860761425
-4.248111696040284
-0.34180209048599985
-2.783245593957427
-2.783245593957427
1.0254062714579995
0.14648661020828566
-1.8066681925688564
0.7324330510414282
1.416037232013428
-1.0254062714579995
0.04882887006942855
1.7090104524299992
-0.04882887006942855
-0.43945983062485694
1.6113527122911422
0.8300907911802854
-0.43945983062485694
1.0254062714579995
1.3183794918745708
-0.14648661020828566
0.43945983062485694
1.416037232013428
0.14648661020828566
0.04882887006942855
1.2207217517357138
0.7324330510414282
-0.04882887006942855
0.8300907911802854
1.2207217517357138
0.43945983062485694
13.525597009231708
85.20637827115281
205.2277409018082
257.962920576791
241.8493934538796
274.8577096208133
316.9481956206607
286.38132295719845
251.12687876707102
241.26344701304646
210.59891660944533
165.57869840543222
127.78515297169452
107.96063172350652
96.24170290684367
63.819333180743115
34.91264209964141
34.52201113908598
27.97894254978256
9.81460288395514
10.79118028534371
15.283436331731137
3.1738765545128556
0.04882887006942855
8.252079041733426
2.9785610742351416
-3.7598229953459983
3.2715342946517127
4.052796215762569
-3.662165255207141
-0.43945983062485694
4.150453955901427
-1.8066681925688564
-2.783245593957427
2.9785610742351416
0.24414435034714274
-3.5645075150682843
1.0254062714579995
1.7090104524299992
-2.8809033340962844
-0.7324330510414282
2.197299153124285
-1.416037232013428
-2.0019836728465705
1.6113527122911422
0.04882887006942855
-2.2949568932631417
0.537117570763714
0.9277485313191425
-1.9043259327077133
-0.6347753109025711
1.1230640115968566
-1.0254062714579995
-1.416037232013428
0.8300907911802854
-0.14648661020828566
-1.6113527122911422
0.14648661020828566
0.43945983062485694
-1.3183794918745708
-0.43945983062485694
0.6347753109025711
-0.7324330510414282
-0.9277485313191425
0.43945983062485694
-0.14648661020828566
-1.1230640115968566
-0.04882887006942855
0.04882887006942855
-0.9277485313191425
-0.43945983062485694
0.24414435034714274
-0.6347753109025711
-0.7324330510414282
0.14648661020828566
-0.24414435034714274
-0.8300907911802854
-2.8809033340962844
-48.97535667963683
-216.55603875791562
-461.9699397268635
-595.6633859769589
-532.6741435873961
-374.5662623025864
-241.45876249332417
-167.53185320820936
-122.70695048447395
-86.67124437323568
-65.8701457236591
-51.709773403524835
-33.93606469825284
-23.096055542839704
-20.45929655909056
-13.623254749370565
-6.884870679789426
-7.470817120622568
-6.298924238956283
-1.513694972152285
-1.8066681925688564
-3.2715342946517127
-0.14648661020828566
0.7324330510414282
-1.6113527122911422
-0.24414435034714274
1.7090104524299992
-0.14648661020828566
-0.537117570763714
1.6113527122911422
0.7324330510414282
-0.6347753109025711
0.9277485313191425
1.3183794918745708
-0.34180209048599985
0.34180209048599985
1.513694972152285
0.14648661020828566
0.04882887006942855
1.3183794918745708
0.7324330510414282
-0.04882887006942855
0.8300907911802854
1.0254062714579995
0.04882887006942855
0.34180209048599985
7.763790341039139
37.06111238269627
77.39375906004425
112.84351873044938
195.95025558861676
306.59647516594185
322.6123445487144
281.88906691081104
291.75249866483557
301.22529945830473
257.66994735637445
202.0050354772259
168.02014190890364
150.05111772335394
117.82406347753108
72.12024109254597
51.02616922255284
45.75265125505455
27.1976806286717
15.185778591592278
19.58037689784085
13.427939269092851
2.2949568932631417
6.494239719233997
8.44739452201114
-0.6347753109025711
-0.04882887006942855
5.517662317845426
0.04882887006942855
-2.9785610742351416
2.9785610742351416
1.6113527122911422
-3.36919203479057
0.43945983062485694
2.5879301136797133
-2.2949568932631417
-1.416037232013428
2.392614633401999
-0.7324330510414282
-2.392614633401999
1.3183794918745708
0.537117570763714
-2.490272373540856
0.04882887006942855
1.3183794918745708
-1.6113527122911422
-1.0254062714579995
1.3183794918745708
-25.92813000686656
-127.5898374914168
-257.0840009155413
-299.662775616083
-276.0296025024796
-253.9589532310979
-148.48859388113223
69.67879758907453
247.51354238193332
284.7211413748379
223.8803692683299
154.93400473029678
117.43343251697566
81.49538414587624
48.09643701838712
42.13931486991684
36.86579690241855
17.43190661478599
12.74433508812085
17.52956435492485
7.470817120622568
0.7324330510414282
7.861448081177996
5.420004577706569
-2.68558785381857
2.0019836728465705
4.931715877012284
-13.623254749370565
-61.67086289768826
-135.1094834821088
-223.6850537880522
-340.679026474403
-456.3057907988098
-485.01716639963377
-406.30502784771494
-282.6703288319219
-187.25871671625848
-138.42984664682993
-100.92927443350881
-67.23735408560312
-53.66292820630198
-43.40886549172198
-25.049210345616846
-17.724879835202564
-18.60379949645228
-10.009918364232853
-3.5645075150682843
-7.373159380483711
-5.517662317845426
0.6347753109025711
-1.8066681925688564
-3.8574807354848555
1.1230640115968566
1.1230640115968566
-2.5879301136797133
0.24414435034714274
2.392614633401999
-1.1230640115968566
-0.7324330510414282
2.490272373540856
0.43945983062485694
-1.2207217517357138
1.6113527122911422
1.416037232013428
-0.9277485313191425
0.6347753109025711
1.9043259327077133
-0.24414435034714274
-0.04882887006942855
1.8066681925688564
0.537117570763714
-0.43945983062485694
10.009918364232853
59.13176165407798
145.94949263752193
227.10307469291217
319.58495460440986
414.31296253910125
415.9731441214618
341.85091935606926
276.32257572289615
230.42343785763333
188.72358281834136
137.1602960250248
88.23376821545739
66.45609216449226
53.17463950560769
32.37354085603113
22.998397802700847
23.096055542839704
13.525597009231708
5.810635538261997
9.326314183260854
7.177843900205997
-2.392614633401999
-5.420004577706569
-3.076218814373999
-3.5645075150682843
-2.783245593957427
1.8066681925688564
2.68558785381857
3.076218814373999
6.982528419928283
4.638742656595713
-0.7324330510414282
1.416037232013428
2.9785610742351416
-1.0254062714579995
-0.7324330510414282
2.197299153124285
-0.14648661020828566
-1.8066681925688564
1.0254062714579995
0.537117570763714
-1.9043259327077133
-0.14648661020828566
1.0254062714579995
-1.2207217517357138
-0.9277485313191425
0.9277485313191425
-0.43945983062485694
-3.466849774929427
-5.908293278400855
-6.201266498817426
-4.736400396734569
-5.0293736171511405
-3.8574807354848555
0.6347753109025711
5.615320057984283
7.275501640344854
3.662165255207141
0.9277485313191425
2.0019836728465705
1.3183794918745708
-0.537117570763714
0.34180209048599985
1.0254062714579995
-0.537117570763714
-0.537117570763714
0.6347753109025711
-0.24414435034714274
-0.9277485313191425
0.14648661020828566
0.04882887006942855
-0.9277485313191425
-0.24414435034714274
0.24414435034714274
-0.7324330510414282
-0.6347753109025711
0.04882887006942855
-0.34180209048599985
-0.7324330510414282
0.04882887006942855
-0.04882887006942855
-11.377126726176853
-46.826886396581976
-94.67917906462196
-163.03959716182192
-284.33051041428246
-390.8751049057755
-402.39871824216067
-368.2185091935607
-332.7687495231556
-280.8148317692836
-212.5520714122225
-142.6291294728008
-96.24170290684367
-75.44060425726711
-54.346532387273975
-34.61966887922484
-29.053177691309987
-23.48668650339513
-11.865415426871138
-9.130998702983138
-10.595864805065995
-4.443427176317998
-1.1230640115968566
-4.638742656595713
-2.5879301136797133
1.513694972152285
-1.1230640115968566
-2.197299153124285
1.416037232013428
0.7324330510414282
-1.7090104524299992
0.8300907911802854
2.0019836728465705
-0.7324330510414282
0.04882887006942855
2.197299153124285
0.24414435034714274
-0.6347753109025711
1.513694972152285
1.0254062714579995
-0.537117570763714
0.9277485313191425
1.6113527122911422
-0.04882887006942855
0.24414435034714274
1.513694972152285
0.34180209048599985
-0.04882887006942855
1.2207217517357138
11.08415350576028
31.201647974364842
57.27626459143969
136.08606088349737
256.79102769512474
292.72907606622414
257.962920576791
269.3888761730373
280.1312275883116
236.96650644693676
213.6263065537499
229.54451819638362
230.7164110780499
185.89150835431448
115.0896467536431
75.53826199740597
65.6748302433814
42.72526131074998
23.682001983672848
27.100022888532845
21.045242999923705
5.420004577706569
8.154421301594567
12.158388647287708
1.0254062714579995
-0.43945983062485694
7.177843900205997
1.7090104524299992
-3.7598229953459983
3.1738765545128556
3.1738765545128556
-3.7598229953459983
-0.14648661020828566
3.662165255207141
-2.197299153124285
-2.392614633401999
2.783245593957427
-0.14648661020828566
-3.1738765545128556
1.2207217517357138
1.3183794918745708
-2.783245593957427
-0.34180209048599985
1.9043259327077133
-1.6113527122911422
-1.6113527122911422
1.6113527122911422
-0.24414435034714274
-2.0996414129854277
0.6347753109025711
0.6347753109025711
-31.885252155336843
-114.4060425726711
-165.09040970473794
-130.91020065613793
-90.47989623865111
-55.51842526894026
24.365606164644845
109.32784008545052
137.55092698558022
104.34729533836881
56.690318150606544
39.5025558861677
34.22903791866941
17.82253757534142
11.963073167009995
16.748302433813993
8.838025482566568
1.0254062714579995
6.591897459372854
5.908293278400855
-1.9043259327077133
1.0254062714579995
4.736400396734569
-1.3183794918745708
-2.0019836728465705
-4.638742656595713
-62.9404135194934
-218.4115358205539
-409.52773327229727
-509.6269169146258
-483.1616693369955
-387.7500572213321
-285.307087815671
-207.57152666514077
-145.5588616769665
-98.29251544975968
-75.9288929579614
-58.936446173800256
-37.35408560311284
-27.1976806286717
-24.4632639047837
-14.50217441062028
-7.763790341039139
-9.912260624093996
-6.884870679789426
-0.9277485313191425
-2.9785610742351416
-4.052796215762569
0.537117570763714
0.43945983062485694
-2.490272373540856
0.34180209048599985
2.0019836728465705
-0.9277485313191425
-0.34180209048599985
2.197299153124285
0.14648661020828566
-1.0254062714579995
1.513694972152285
1.1230640115968566
-0.8300907911802854
0.6347753109025711
1.6113527122911422
-0.24414435034714274
0.04882887006942855
1.6113527122911422
0.34180209048599985
-0.24414435034714274
1.2207217517357138
0.9277485313191425
-0.24414435034714274
0.7324330510414282
1.3183794918745708
0.04882887006942855
0.34180209048599985
7.177843900205997
22.803082322423133
31.2993057145037
42.822919050888835
112.35523002975509
195.95025558861676
193.02052338445105
172.7077134355688
214.40756847486077
226.02883955138475
194.87602044708933
215.09117265583276
244.58381017776762
215.09117265583276
178.5671778439002
166.16464484626536
152.59021896696422
125.34370946822308
89.1126878767071
74.17105363546197
73.68276493476768
46.14328221560998
20.752269779507134
27.100022888532845
22.60776684214542
3.2715342946517127
7.373159380483711
14.306858930342566
0.43945983062485694
-2.0996414129854277
8.74036774242771
2.197299153124285
-5.517662317845426
3.662165255207141
4.345769436179141
-5.0293736171511405
-0.6347753109025711
4.931715877012284
-2.5879301136797133
-3.36919203479057
3.8574807354848555
0.14648661020828566
-4.248111696040284
1.6113527122911422
2.197299153124285
-7.373159380483711
-12.45136186770428
-8.74036774242771
-2.9785610742351416
4.638742656595713
9.912260624093996
4.541084916456855
-0.537117570763714
2.783245593957427
2.490272373540856
-1.8066681925688564
0.14648661020828566
2.392614633401999
-1.1230640115968566
-1.416037232013428
1.7090104524299992
-0.04882887006942855
-2.0019836728465705
0.6347753109025711
0.7324330510414282
-1.8066681925688564
-0.34180209048599985
1.0254062714579995
-1.0254062714579995
-1.2207217517357138
0.7324330510414282
-0.24414435034714274
-1.416037232013428
0.24414435034714274
0.24414435034714274
-1.2207217517357138
-0.34180209048599985
0.537117570763714
-0.7324330510414282
-19.18974593728542
-81.20241092545967
-186.7704280155642
-329.5460440985733
-472.8099488822767
-520.4669260700389
-441.85244525825897
-310.69810025177384
-203.3722438391699
-142.53147173266194
-105.7145037003128
-74.85465781643397
-55.32310978866255
-43.604180971999696
-29.443808651865414
-19.385061417563133
-16.84596017395285
-12.060730907148852
-6.005951018539712
-5.71297779812314
-5.420004577706569
-1.416037232013428
-0.9277485313191425
-2.68558785381857
-0.43945983062485694
0.9277485313191425
-0.9277485313191425
-0.43945983062485694
1.416037232013428
0.24414435034714274
-0.43945983062485694
1.1230640115968566
0.9277485313191425
-0.43945983062485694
0.537117570763714
1.2207217517357138
0.04882887006942855
0.14648661020828566
1.2207217517357138
0.34180209048599985
-0.04882887006942855
0.9277485313191425
0.8300907911802854
0.04882887006942855
0.7324330510414282
1.2207217517357138
0.34180209048599985
0.34180209048599985
25.732814526588847
92.72602426184481
148.0979629205768
189.11421377889678
277.787441824979
345.0736247806516
321.3427939269093
295.4634927901121
300.1510643167773
275.5413138017853
218.6068513008316
157.47310597390708
118.11703669794767
98.48783093003739
67.92095826657511
40.186160067139696
36.67048142214084
29.736781872281988
12.84199282825971
11.670099946593423
14.990463111314565
4.736400396734569
0.9277485313191425
7.470817120622568
3.36919203479057
-2.783245593957427
2.5879301136797133
3.7598229953459983
-2.783245593957427
-0.6347753109025711
3.466849774929427
-1.2207217517357138
-2.490272373540856
2.2949568932631417
0.43945983062485694
-2.9785610742351416
0.6347753109025711
1.513694972152285
-2.2949568932631417
-0.9277485313191425
1.7090104524299992
-1.1230640115968566
-1.8066681925688564
1.2207217517357138
0.04882887006942855
-2.0019836728465705
0.24414435034714274
0.8300907911802854
-6.884870679789426
-21.045242999923705
-27.68596932936599
-24.756237125200276
-33.93606469825284
-43.40886549172198
-19.48271915770199
22.412451361867703
44.67841611352712
37.15877012283513
19.092088197146563
12.256046387426567
11.377126726176853
5.420004577706569
2.9785610742351416
5.615320057984283
2.9785610742351416
-0.43945983062485694
1.9043259327077133
2.197299153124285
-1.1230640115968566
-0.14648661020828566
1.7090104524299992
-6.298924238956283
-48.19409475852598
-137.06263828488594
-241.8493934538796
-351.3237201495384
-454.8409246967269
-482.4780651560235
-407.5745784695201
-286.9672693980316
-186.9657434958419
-132.57038223849852
-99.26909285114824
-68.50690470740825
-50.83085374227512
-41.5533684290837
-27.1976806286717
-17.236591134508277
-16.260013733119706
-11.47478446631571
-4.541084916456855
-5.322346837567712
-5.517662317845426
-0.7324330510414282
-0.537117570763714
-2.9785610742351416
-0.34180209048599985
1.3183794918745708
-1.3183794918745708
-0.6347753109025711
1.8066681925688564
0.14648661020828566
-0.7324330510414282
1.416037232013428
1.1230640115968566
-0.6347753109025711
0.7324330510414282
1.513694972152285
-0.24414435034714274
0.04882887006942855
1.513694972152285
0.43945983062485694
-0.14648661020828566
1.1230640115968566
0.8300907911802854
-0.14648661020828566
0.8300907911802854
1.3183794918745708
0.14648661020828566
0.34180209048599985
1.2207217517357138
0.43945983062485694
0.04882887006942855
0.9277485313191425
1.513694972152285
2.0019836728465705
21.14290074006256
97.51125352864881
191.3603418020905
201.8097199969482
183.1570916304265
232.47425040054932
264.0177004654002
236.57587548638134
247.3182269016556
277.2991531242847
244.1931792172122
185.01258869306477
154.34805828946364
147.51201647974364
129.34767681391622
81.10475318532082
48.38941023880369
47.412832837415124
33.05714503700313
12.939650568398566
17.52956435492485
18.310826276035705
2.5879301136797133
2.8809033340962844
10.986495765621424
1.513694972152285
-3.36919203479057
5.71297779812314
3.1738765545128556
-4.736400396734569
1.3183794918745708
4.345769436179141
-3.466849774929427
-1.8066681925688564
4.052796215762569
-1.0254062714579995
-3.5645075150682843
2.490272373540856
1.1230640115968566
-3.5645075150682843
0.24414435034714274
2.197299153124285
-2.490272373540856
-1.416037232013428
2.197299153124285
-0.8300907911802854
-2.392614633401999
1.3183794918745708
0.537117570763714
-2.392614633401999
0.04882887006942855
1.2207217517357138
-1.6113527122911422
-1.0254062714579995
1.2207217517357138
-3.1738765545128556
-24.267948424505988
-52.78400854505226
-46.04562447547112
-25.049210345616846
-43.79949645227741
-47.90112153810941
-4.541084916456855
31.2993057145037
42.04165712977798
37.64705882352941
31.787594415197987
32.27588311589227
21.63118944075685
7.666132600900283
9.81460288395514
10.693522545204852
1.513694972152285
1.416037232013428
6.39658197909514
0.9277485313191425
-2.197299153124285
3.1738765545128556
-5.908293278400855
-77.58907454032196
-230.0328068970779
-373.8826581216144
-432.8679331654841
-433.45387960631723
-397.6134889753567
-328.76478217746245
-240.18921187151903
-156.59418631265737
-109.8161287861448
-87.25719081406882
-59.42473487449455
-39.5025558861677
-35.49858854047456
-25.439841306172273
-12.256046387426567
-12.549019607843137
-12.256046387426567
-3.2715342946517127
-2.392614633401999
-6.298924238956283
-1.513694972152285
1.6113527122911422
-2.8809033340962844
-1.8066681925688564
2.5879301136797133
-0.14648661020828566
-1.9043259327077133
2.0019836728465705
1.513694972152285
-1.6113527122911422
0.7324330510414282
2.2949568932631417
-0.7324330510414282
-0.24414435034714274
2.2949568932631417
0.34180209048599985
-0.7324330510414282
1.6113527122911422
1.3183794918745708
-0.6347753109025711
0.7324330510414282
1.7090104524299992
-0.14648661020828566
0.04882887006942855
1.513694972152285
0.24414435034714274
-0.24414435034714274
32.471198596169984
139.6017395284962
253.37300679026475
281.7914091706722
299.36980239566645
357.08552681773097
358.6480506599527
295.17051956969556
240.67750057221332
210.50125886930647
182.57114518959335
132.96101319905395
82.17898832684826
63.6240177004654
51.90508888380255
28.95551995117113
21.14290074006256
23.682001983672848
12.353704127565424
4.150453955901427
10.009918364232853
7.275501640344854
-1.3183794918745708
2.5879301136797133
5.517662317845426
-1.6113527122911422
-1.3183794918745708
4.052796215762569
-0.04882887006942855
-2.9785610742351416
2.0019836728465705
1.416037232013428
-2.9785610742351416
0.04882887006942855
2.197299153124285
-1.9043259327077133
-1.513694972152285
1.8066681925688564
-0.537117570763714
-2.2949568932631417
0.9277485313191425
0.537117570763714
-2.0996414129854277
-0.14648661020828566
1.1230640115968566
-1.3183794918745708
-1.1230640115968566
1.0254062714579995
-0.43945983062485694
-18.994430457007706
-54.932478828107115
-66.26077668421455
-72.60852979324025
-114.79667353322652
-106.69108110170139
-5.810635538261997
91.1635004196231
113.72243839169909
77.00312809948882
40.479133287556266
32.08056763561456
23.779659723811704
10.400549324788281
11.47478446631571
13.232623788815136
3.5645075150682843
1.513694972152285
6.884870679789426
2.2949568932631417
-2.197299153124285
2.9785610742351416
2.68558785381857
-2.68558785381857
0.04882887006942855
2.8809033340962844
-1.7090104524299992
-11.767757686732281
-49.073014419775696
-151.12535286488136
-325.639734493019
-496.05249103532464
-545.5649652857252
-456.1104753185321
-314.3114366369116
-205.0324254215305
-146.34012359807735
-107.37468528267338
-74.95231555657283
-57.66689555199512
-45.16670481422141
-28.66254673075456
-19.87335011825742
-18.11551079575799
-11.377126726176853
-5.615320057984283
-6.982528419928283
-5.322346837567712
-0.7324330510414282
-1.8066681925688564
-3.076218814373999
0.34180209048599985
0.8300907911802854
-1.6113527122911422
0.04882887006942855
1.7090104524299992
-0.34180209048599985
-0.34180209048599985
1.7090104524299992
0.537117570763714
-0.6347753109025711
1.1230640115968566
1.2207217517357138
-0.24414435034714274
0.6347753109025711
1.513694972152285
0.04882887006942855
0.04882887006942855
1.3183794918745708
0.43945983062485694
-0.24414435034714274
0.8300907911802854
0.9277485313191425
-0.04882887006942855
0.537117570763714
1.1230640115968566
0.24414435034714274
6.787212939650568
72.5108720531014
234.23208972304874
387.0664530403601
432.1843289845121
420.36774242771037
376.61707484550243
285.50240329594874
200.83314259555962
157.6684214541848
137.3556115053025
115.57793545433738
78.17502098115511
48.97535667963683
42.04165712977798
31.201647974364842
15.576409552147707
14.990463111314565
15.283436331731137
5.127031357289998
3.076218814373999
7.763790341039139
2.68558785381857
-1.513694972152285
3.36919203479057
2.68558785381857
-2.5879301136797133
0.24414435034714274
2.783245593957427
-1.6113527122911422
-1.6113527122911422
2.197299153124285
-0.14648661020828566
-2.392614633401999
1.0254062714579995
0.8300907911802854
-2.0996414129854277
-0.24414435034714274
1.3183794918745708
-1.3183794918745708
-1.2207217517357138
1.1230640115968566
-0.34180209048599985
-1.7090104524299992
0.34180209048599985
0.34180209048599985
-1.513694972152285
-0.24414435034714274
0.6347753109025711
-0.9277485313191425
-0.8300907911802854
0.537117570763714
-0.34180209048599985
-1.1230640115968566
0.14648661020828566
0.04882887006942855
-1.0254062714579995
-0.24414435034714274
0.24414435034714274
-0.7324330510414282
-0.7324330510414282
0.14648661020828566
-0.34180209048599985
-0.8300907911802854
0.04882887006942855
-0.04882887006942855
-0.7324330510414282
-0.24414435034714274
0.04882887006942855
-0.537117570763714
-0.537117570763714
0.04882887006942855
-0.34180209048599985
-0.6347753109025711
-0.04882887006942855
-0.8300907911802854
-48.97535667963683
-194.87602044708933
-351.4213778896773
-419.8794537270161
-435.3093766689555
-417.73098344396124
-351.90966659037156
-259.03715571831844
-171.2428473334859
-117.53109025711451
-91.1635004196231
-64.60059510185397
-43.21355001144427
-36.475165941863125
-27.295338368810558
-14.50217441062028
-12.45136186770428
-12.353704127565424
-4.931715877012284
-2.5879301136797133
-5.71297779812314
-2.392614633401999
1.1230640115968566
-2.0996414129854277
-2.0996414129854277
1.7090104524299992
0.14648661020828566
-1.8066681925688564
1.1230640115968566
1.513694972152285
-1.1230640115968566
0.24414435034714274
2.0019836728465705
-0.14648661020828566
-0.34180209048599985
1.8066681925688564
0.6347753109025711
-0.537117570763714
1.2207217517357138
1.3183794918745708
-0.34180209048599985
0.43945983062485694
1.513694972152285
0.04882887006942855
0.04882887006942855
1.416037232013428
0.7324330510414282
-0.14648661020828566
7.763790341039139
51.02616922255284
124.66010528725108
176.90699626153963
241.6540779736019
344.780651560235
379.74212252994585
331.5968566414893
294.5845731288624
279.3499656672007
247.90417334248875
185.69619287403677
118.41000991836424
84.22980086976425
67.92095826657511
43.21355001144427
28.95551995117113
28.95551995117113
18.994430457007706
7.763790341039139
10.79118028534371
10.009918364232853
1.1230640115968566
2.197299153124285
6.103608758678568
0.14648661020828566
-1.7090104524299992
3.466849774929427
1.2207217517357138
-2.783245593957427
1.0254062714579995
2.0996414129854277
-2.2949568932631417
-0.8300907911802854
2.0996414129854277
-1.0254062714579995
-1.9043259327077133
1.416037232013428
0.14648661020828566
-2.197299153124285
0.24414435034714274
-17.724879835202564
-120.55848020141909
-307.76836804760813
-435.89532310978865
-425.8365758754864
-375.2498664835584
-339.40947585259784
-286.2836652170596
-214.50522621499962
-138.82047760738536
-48.78004119935912
59.03410391393912
161.08644235904478
274.27176317998016
401.81277180132753
463.1418326085298
408.1605249103533
282.4750133516442
177.8835736629282
131.98443579766536
98.58548867017625
62.2568093385214
50.14724956130312
44.28778515297169
23.87731746395056
14.990463111314565
19.48271915770199
10.986495765621424
1.8066681925688564
7.666132600900283
7.275501640344854
-29.736781872281988
-120.46082246128023
-227.4937056534676
-316.1669336995499
-405.81673914702066
-463.1418326085298
-433.0632486457618
-331.4015411612116
-215.4818036163882
-143.80102235446708
-112.5505455100328
-79.15159838254368
-51.80743114366369
-45.55733577477684
-34.61966887922484
-16.943617914091707
-15.283436331731137
-16.357671473258563
-5.71297779812314
-2.5879301136797133
-7.959105821316854
-3.1738765545128556
2.0996414129854277
-2.9785610742351416
-3.076218814373999
2.783245593957427
0.24414435034714274
-2.9785610742351416
1.7090104524299992
2.2949568932631417
-1.9043259327077133
0.14648661020828566
2.8809033340962844
-0.6347753109025711
-0.8300907911802854
2.490272373540856
0.7324330510414282
-1.2207217517357138
1.513694972152285
1.8066681925688564
-0.9277485313191425
0.34180209048599985
2.0996414129854277
-0.14648661020828566
-0.43945983062485694
1.7090104524299992
0.6347753109025711
-0.6347753109025711
11.865415426871138
65.08888380254825
138.0392156862745
163.82085908293277
188.72358281834136
267.1427481498436
298.68619821469446
267.24040588998247
279.05699244678414
306.2058442053864
266.7521171892882
193.70412756542305
146.9260700389105
133.15632867933166
115.57793545433738
72.31555657282368
44.77607385366598
44.28778515297169
29.736781872281988
11.670099946593423
16.55298695353628
16.357671473258563
1.8066681925688564
3.076218814373999
10.10757610437171
0.8300907911802854
-2.783245593957427
5.615320057984283
2.490272373540856
-4.443427176317998
1.6113527122911422
3.7598229953459983
-3.466849774929427
-1.416037232013428
3.662165255207141
-1.3183794918745708
-3.1738765545128556
2.392614633401999
0.6347753109025711
-3.36919203479057
0.537117570763714
1.9043259327077133
-2.490272373540856
-1.1230640115968566
2.0996414129854277
-1.0254062714579995
-2.0996414129854277
1.3183794918745708
0.14648661020828566
-2.2949568932631417
0.14648661020828566
1.0254062714579995
-1.6113527122911422
-0.8300907911802854
1.1230640115968566
-0.7324330510414282
-1.416037232013428
0.6347753109025711
0.04882887006942855
-1.513694972152285
0.04882887006942855
0.43945983062485694
-1.1230640115968566
-0.537117570763714
0.537117570763714
-0.6347753109025711
-1.0254062714579995
0.24414435034714274
-0.04882887006942855
-1.0254062714579995
-0.04882887006942855
0.14648661020828566
-0.8300907911802854
-0.43945983062485694
0.24414435034714274
-0.43945983062485694
-0.7324330510414282
-0.9277485313191425
-33.545433737697415
-165.48104066529336
-367.9255359731441
-490.38834210727094
-476.22796978713666
-398.8830395971618
-315.385671778439
-240.4821850919356
-171.7311360341802
-116.16388189517052
-85.98764019226367
-66.16311894407569
-44.09246967269398
-31.494621194781413
-26.90470740825513
-17.334248874647134
-9.81460288395514
-10.400549324788281
-7.959105821316854
-2.197299153124285
-2.8809033340962844
-4.052796215762569
-0.14648661020828566
0.24414435034714274
-2.197299153124285
-0.14648661020828566
1.7090104524299992
-0.537117570763714
-0.537117570763714
1.7090104524299992
0.43945983062485694
-0.7324330510414282
1.2207217517357138
1.2207217517357138
-0.537117570763714
0.537117570763714
1.6113527122911422
0.04882887006942855
0.04882887006942855
1.416037232013428
0.6347753109025711
-0.04882887006942855
1.0254062714579995
1.0254062714579995
-0.14648661020828566
0.43945983062485694
1.2207217517357138
0.24414435034714274
0.14648661020828566
6.6895551995117115
30.322728313115128
57.95986877241169
81.69069962615396
160.01220721751736
268.7052719920653
288.13916227969787
267.4357213702602
308.549629968719
339.40947585259784
297.7096208133059
231.5953307392996
185.98916609445334
160.98878461890592
124.95307850766766
77.00312809948882
55.420767528801406
49.17067215991455
29.150835431448844
16.748302433813993
21.045242999923705
14.11154345006485
2.68558785381857
7.177843900205997
8.74036774242771
-0.7324330510414282
0.14648661020828566
5.908293278400855
0.04882887006942855
-2.8809033340962844
3.2715342946517127
1.6113527122911422
-3.466849774929427
0.6347753109025711
2.5879301136797133
-2.490272373540856
-1.416037232013428
2.392614633401999
-0.9277485313191425
-2.490272373540856
1.416037232013428
0.537117570763714
-2.490272373540856
0.04882887006942855
1.3183794918745708
-1.7090104524299992
-1.0254062714579995
1.3183794918745708
-0.6347753109025711
-1.6113527122911422
0.7324330510414282
0.14648661020828566
-1.7090104524299992
-0.04882887006942855
0.6347753109025711
-1.2207217517357138
-0.7324330510414282
0.7324330510414282
-0.537117570763714
-1.1230640115968566
0.34180209048599985
0.04882887006942855
-1.1230640115968566
-0.14648661020828566
0.24414435034714274
-0.8300907911802854
-0.537117570763714
0.24414435034714274
-0.43945983062485694
-0.9277485313191425
0.04882887006942855
-9.228656443121995
-81.69069962615396
-243.70489051651788
-391.94934004730294
-443.21965362020296
-434.2351415274281
-390.9727626459144
-316.3622491798276
-229.05622949568934
-152.1995880064088
-107.27702754253453
-83.05790798809797
-57.86221103227283
-39.69787136644541
-33.44777599755856
-23.87731746395056
-12.939650568398566
-11.865415426871138
-10.693522545204852
-3.8574807354848555
-2.783245593957427
-5.0293736171511405
-1.416037232013428
0.7324330510414282
-2.0996414129854277
-1.3183794918745708
1.6113527122911422
-0.24414435034714274
-1.3183794918745708
1.416037232013428
1.0254062714579995
-1.0254062714579995
0.7324330510414282
1.8066681925688564
-0.34180209048599985
-0.04882887006942855
1.6113527122911422
0.34180209048599985
-0.24414435034714274
1.416037232013428
1.1230640115968566
-0.24414435034714274
0.6347753109025711
1.3183794918745708
0.04882887006942855
0.24414435034714274
1.2207217517357138
0.43945983062485694
0.04882887006942855
14.11154345006485
60.79194323643854
105.32387273975738
111.96459906919966
156.1058976119631
251.32219424734873
279.5452811474784
262.5528343633173
295.4634927901121
318.90135042343786
275.9319447623407
214.70054169527734
177.29762722209506
159.81689173723964
127.39452201113909
77.58907454032196
53.85824368657969
49.46364538033112
29.63912413214313
15.576409552147707
20.84992751964599
15.088120851453422
2.197299153124285
6.591897459372854
9.521629663538567
-0.6347753109025711
-0.537117570763714
6.298924238956283
0.43945983062485694
-3.5645075150682843
3.1738765545128556
2.197299153124285
-3.7598229953459983
0.24414435034714274
3.076218814373999
-2.392614633401999
-1.8066681925688564
2.68558785381857
-0.6347753109025711
-2.8809033340962844
1.416037232013428
0.9277485313191425
-2.68558785381857
-0.04882887006942855
1.6113527122911422
-1.7090104524299992
-1.3183794918745708
1.513694972152285
-0.43945983062485694
-1.9043259327077133
0.7324330510414282
0.43945983062485694
-1.8066681925688564
-0.24414435034714274
0.8300907911802854
-1.2207217517357138
-0.9277485313191425
0.7324330510414282
-0.43945983062485694
-1.3183794918745708
0.34180209048599985
0.04882887006942855
-1.2207217517357138
-0.14648661020828566
0.43945983062485694
-0.8300907911802854
-0.7324330510414282
0.34180209048599985
-0.34180209048599985
-0.9277485313191425
0.04882887006942855
-0.04882887006942855
-0.9277485313191425
-0.24414435034714274
0.04882887006942855
-0.6347753109025711
-0.537117570763714
0.04882887006942855
-0.34180209048599985
-31.201647974364842
-136.4766918440528
-292.6314183260853
-433.9421683070115
-504.06042572671095
-468.8059815365835
-362.65201800564586
-250.83390554665445
-168.02014190890364
-119.58190280003052
-89.60097657740138
-64.40527962157626
-46.533913176165406
-35.79156176089113
-25.146868085755703
-16.650644693675137
-13.330281528953995
-10.009918364232853
-5.517662317845426
-4.345769436179141
-4.150453955901427
-1.7090104524299992
-0.7324330510414282
-1.6113527122911422
-0.537117570763714
0.537117570763714
-0.34180209048599985
-0.34180209048599985
0.8300907911802854
0.34180209048599985
-0.14648661020828566
0.8300907911802854
1.0254062714579995
0.04882887006942855
0.43945983062485694
1.0254062714579995
0.34180209048599985
0.14648661020828566
0.9277485313191425
0.7324330510414282
0.24414435034714274
0.7324330510414282
0.8300907911802854
0.34180209048599985
0.537117570763714
0.9277485313191425
0.43945983062485694
0.43945983062485694
0.8300907911802854
0.6347753109025711
0.9277485313191425
40.96742198825055
169.19203479056992
298.88151369497217
324.6631570916304
329.5460440985733
381.98825055313955
403.6682688639658
342.8274967574578
237.06416418707562
154.25040054932478
114.50370031280995
83.54619668879225
54.54184786755169
44.38544289311055
36.67048142214084
20.263981078812847
14.306858930342566
16.064698252841993
8.349736781872283
2.5879301136797133
6.6895551995117115
4.931715877012284
-0.9277485313191425
1.6113527122911422
3.7598229953459983
-1.1230640115968566
-1.0254062714579995
2.68558785381857
-0.04882887006942855
-2.197299153124285
1.2207217517357138
0.9277485313191425
-2.197299153124285
-0.14648661020828566
1.3183794918745708
-1.416037232013428
-1.2207217517357138
1.2207217517357138
-0.34180209048599985
-1.7090104524299992
0.537117570763714
0.34180209048599985
-1.513694972152285
-0.24414435034714274
0.7324330510414282
-1.0254062714579995
-2.9785610742351416
-5.810635538261997
-8.44739452201114
-20.654612039368278
-43.79949645227741
-38.72129396505684
0.24414435034714274
30.029755092698558
31.68993667505913
17.627222095063708
8.545052262149996
8.44739452201114
5.127031357289998
1.416037232013428
3.36919203479057
3.36919203479057
-0.34180209048599985
0.34180209048599985
2.197299153124285
-0.24414435034714274
-1.0254062714579995
1.2207217517357138
0.24414435034714274
-1.416037232013428
0.24414435034714274
-12.158388647287708
-96.14404516670481
-267.04509040970476
-412.6527809567407
-450.8369573510338
-425.445944914931
-373.8826581216144
-301.8112458991379
-220.2670328831922
-146.63309681849393
-102.98008697642481
-80.51880674448768
-55.81139848935683
-37.35408560311284
-31.9829098954757
-23.19371328297856
-12.256046387426567
-11.279468986037996
-10.693522545204852
-3.7598229953459983
-2.490272373540856
-5.127031357289998
-1.513694972152285
1.0254062714579995
-2.197299153124285
-1.416037232013428
1.9043259327077133
-0.04882887006942855
-1.513694972152285
1.416037232013428
1.3183794918745708
-1.0254062714579995
0.537117570763714
1.7090104524299992
-0.43945983062485694
-0.14648661020828566
1.8066681925688564
0.537117570763714
-0.34180209048599985
1.3183794918745708
1.1230640115968566
-0.34180209048599985
0.6347753109025711
1.416037232013428
0.04882887006942855
0.14648661020828566
1.416037232013428
0.537117570763714
-0.04882887006942855
9.912260624093996
53.760585946440834
115.18730449378195
146.04715037766078
194.09475852597848
282.76798657206075
301.90890363927673
263.72472724498357
278.2757305256733
298.7838559548333
252.7870603494316
189.11421377889678
156.00823987182423
143.41039139391165
119.48424505989166
77.00312809948882
54.053559166857404
51.709773403524835
32.86182955672541
15.088120851453422
19.971007858396277
16.84596017395285
2.490272373540856
5.224689097428855
10.400549324788281
0.24414435034714274
-1.7090104524299992
6.201266498817426
1.6113527122911422
-4.150453955901427
2.490272373540856
3.1738765545128556
-3.7598229953459983
-0.537117570763714
3.5645075150682843
-1.9043259327077133
-2.5879301136797133
2.68558785381857
0.04882887006942855
-3.2715342946517127
0.9277485313191425
1.513694972152285
-2.68558785381857
-0.6347753109025711
2.0019836728465705
-1.416037232013428
-1.8066681925688564
1.513694972152285
-0.04882887006942855
-2.0996414129854277
0.43945983062485694
0.8300907911802854
-1.7090104524299992
-0.537117570763714
1.0254062714579995
-1.0254062714579995
-1.3183794918745708
0.7324330510414282
-0.14648661020828566
-1.416037232013428
0.14648661020828566
0.34180209048599985
-1.2207217517357138
-0.43945983062485694
0.537117570763714
-0.7324330510414282
-0.8300907911802854
0.34180209048599985
-0.24414435034714274
-1.0254062714579995
0.04882887006942855
0.04882887006942855
-0.9277485313191425
-0.43945983062485694
0.14648661020828566
-0.537117570763714
-4.345769436179141
-26.807049668116274
-109.62081330586709
-285.7953765163653
-486.87266346227204
-566.9520103761349
-484.82185091935605
-337.74929427023727
-220.65766384374763
-154.25040054932478
-112.74586099031052
-80.81177996490425
-61.28023193713283
-46.72922865644312
-31.201647974364842
-22.021820401312276
-18.40848401617456
-12.060730907148852
-6.884870679789426
-6.884870679789426
-5.322346837567712
-1.6113527122911422
-1.8066681925688564
-2.490272373540856
-0.04882887006942855
0.43945983062485694
-1.0254062714579995
0.04882887006942855
1.1230640115968566
-0.14648661020828566
-0.24414435034714274
1.2207217517357138
0.537117570763714
-0.14648661020828566
0.9277485313191425
1.0254062714579995
0.04882887006942855
0.537117570763714
1.1230640115968566
0.14648661020828566
0.24414435034714274
1.1230640115968566
0.537117570763714
0.04882887006942855
0.7324330510414282
0.8300907911802854
0.14648661020828566
0.537117570763714
12.158388647287708
35.596246280613414
50.928511482413974
103.4683756771191
238.82200350957504
341.9485770962081
337.16334782940413
329.44838635843445
348.6869611657893
321.0498207064927
250.83390554665445
184.23132677195392
144.38696879530022
118.60532539864195
80.12817578393225
49.75661860074769
44.67841611352712
33.838406958113985
15.771725032425422
15.381094071869994
16.84596017395285
5.127031357289998
2.5879301136797133
8.74036774242771
3.1738765545128556
-2.197299153124285
3.7598229953459983
3.36919203479057
-3.076218814373999
0.04882887006942855
3.466849774929427
-1.8066681925688564
-2.0996414129854277
2.68558785381857
-0.04882887006942855
-2.8809033340962844
1.1230640115968566
1.2207217517357138
-2.490272373540856
-0.34180209048599985
1.7090104524299992
-1.416037232013428
-1.513694972152285
1.3183794918745708
-0.34180209048599985
-2.0019836728465705
0.537117570763714
0.537117570763714
-1.7090104524299992
-0.34180209048599985
0.9277485313191425
-1.0254062714579995
-1.1230640115968566
0.7324330510414282
-0.24414435034714274
-1.3183794918745708
0.14648661020828566
0.24414435034714274
-1.1230640115968566
-0.34180209048599985
0.34180209048599985
-0.8300907911802854
-0.8300907911802854
0.24414435034714274
-0.24414435034714274
-0.9277485313191425
0.04882887006942855
0.04882887006942855
-0.8300907911802854
-0.34180209048599985
0.14648661020828566
-0.6347753109025711
-0.537117570763714
0.04882887006942855
-0.24414435034714274
-0.7324330510414282
-0.14648661020828566
-0.14648661020828566
-35.49858854047456
-158.05905241474022
-322.4170290684367
-434.4304570077058
-473.29823758297096
-442.4383916990921
-356.01129167620354
-255.42381933318075
-171.14518959334706
-118.60532539864195
-90.47989623865111
-65.47951476310368
-44.97138933394369
-35.596246280613414
-26.807049668116274
-15.869382772564279
-12.256046387426567
-11.279468986037996
-5.71297779812314
-3.076218814373999
-4.638742656595713
-2.490272373540856
0.24414435034714274
-1.416037232013428
-1.513694972152285
1.0254062714579995
0.34180209048599985
-1.0254062714579995
0.6347753109025711
1.1230640115968566
-0.43945983062485694
0.24414435034714274
1.416037232013428
0.04882887006942855
-0.14648661020828566
1.3183794918745708
0.7324330510414282
-0.14648661020828566
0.8300907911802854
1.0254062714579995
0.04882887006942855
0.43945983062485694
1.3183794918745708
0.43945983062485694
0.14648661020828566
20.947585259784848
78.56565194171054
113.42946517128252
93.8979171435111
117.72640573739223
191.06736858167392
201.61440451667048
187.16105897611962
222.90379186694133
230.32578011749447
191.5556572823682
191.84863050278477
202.6886396581979
165.3833829251545
131.49614709697107
122.31631952391852
102.98008697642481
80.81177996490425
70.26474402990769
77.68673228046082
85.10872053101396
57.27626459143969
30.615701533531702
39.69787136644541
34.81498435950255
8.642710002288853
10.400549324788281
19.385061417563133
2.8809033340962844
-2.197299153124285
10.986495765621424
4.248111696040284
-6.298924238956283
4.052796215762569
6.201266498817426
-5.517662317845426
-1.2207217517357138
6.298924238956283
-2.490272373540856
-4.541084916456855
4.443427176317998
0.8300907911802854
-5.224689097428855
1.513694972152285
3.076218814373999
-4.052796215762569
-1.2207217517357138
3.5645075150682843
-1.8066681925688564
-2.9785610742351416
2.5879301136797133
0.34180209048599985
-3.36919203479057
0.8300907911802854
1.7090104524299992
-2.68558785381857
-0.9277485313191425
2.0019836728465705
-1.2207217517357138
-2.0019836728465705
1.416037232013428
0.04882887006942855
-2.197299153124285
0.34180209048599985
0.9277485313191425
-1.7090104524299992
-0.6347753109025711
1.1230640115968566
-0.9277485313191425
-1.3183794918745708
0.7324330510414282
-0.04882887006942855
-1.513694972152285
0.04882887006942855
0.34180209048599985
-21.92416266117342
-103.4683756771191
-232.57190814068818
-360.1129167620356
-460.50507362478066
-488.0445563439384
-417.6333257038224
-301.8112458991379
-199.0753032730602
-135.7930876630808
-102.68711375600824
-74.36636911573969
-51.709773403524835
-41.16273746852827
-30.615701533531702
-18.506141756313422
-14.599832150759136
-12.939650568398566
-6.494239719233997
-3.8574807354848555
-5.420004577706569
-2.783245593957427
0.04882887006942855
-1.8066681925688564
-1.7090104524299992
1.0254062714579995
0.04882887006942855
-1.2207217517357138
0.8300907911802854
1.1230640115968566
-0.7324330510414282
0.24414435034714274
1.6113527122911422
0.04882887006942855
-0.04882887006942855
1.416037232013428
0.6347753109025711
-0.34180209048599985
0.8300907911802854
1.0254062714579995
-0.04882887006942855
0.537117570763714
1.416037232013428
0.34180209048599985
0.14648661020828566
1.1230640115968566
0.6347753109025711
0.04882887006942855
0.7324330510414282
0.8300907911802854
0.14648661020828566
0.537117570763714
1.0254062714579995
0.34180209048599985
0.24414435034714274
27.49065384908827
114.99198901350424
202.6886396581979
226.90775921263446
268.41229877164875
347.41741054398415
357.8667887388418
309.33089188982984
274.369420920119
249.75967040512703
211.28252079041732
149.56282902265966
94.28854810406654
72.99916075379568
57.08094911116198
33.15480277714199
25.830472266727703
25.92813000686656
13.232623788815136
6.201266498817426
11.279468986037996
6.982528419928283
-0.537117570763714
3.7598229953459983
5.224689097428855
-1.7090104524299992
-0.43945983062485694
3.9551384756237127
-0.537117570763714
-2.490272373540856
2.2949568932631417
0.8300907911802854
-2.8809033340962844
0.43945983062485694
1.8066681925688564
-2.0996414129854277
-1.1230640115968566
1.7090104524299992
-0.8300907911802854
-1.9043259327077133
1.1230640115968566
0.24414435034714274
-2.0019836728465705
0.04882887006942855
0.9277485313191425
-1.513694972152285
-0.7324330510414282
0.9277485313191425
-0.6347753109025711
-1.3183794918745708
0.537117570763714
0.04882887006942855
-16.45532921339742
-47.60814831769284
-49.073014419775696
-24.267948424505988
-20.84992751964599
-14.306858930342566
15.185778591592278
38.03768978408484
40.28381780727855
24.4632639047837
10.595864805065995
11.279468986037996
9.228656443121995
2.0019836728465705
3.36919203479057
5.615320057984283
0.24414435034714274
-0.7324330510414282
3.1738765545128556
0.7324330510414282
-2.0996414129854277
1.2207217517357138
1.416037232013428
-2.0019836728465705
-0.34180209048599985
1.6113527122911422
-19.18974593728542
-98.97611963073167
-218.89982452124818
-302.8854810406653
-353.47219043259327
-411.090257114519
-431.3054093232624
-371.5388723582818
-263.9200427252613
-171.43816281376363
-123.19523918516823
-92.43305104142824
-61.96383611810483
-46.43625543602655
-39.11192492561227
-24.267948424505988
-14.892805371175708
-15.674067292286564
-10.693522545204852
-3.36919203479057
-5.420004577706569
-5.71297779812314
0.04882887006942855
-0.24414435034714274
-3.36919203479057
0.04882887006942855
1.8066681925688564
-1.6113527122911422
-0.537117570763714
2.392614633401999
0.04882887006942855
-1.1230640115968566
1.8066681925688564
1.1230640115968566
-1.0254062714579995
0.8300907911802854
1.8066681925688564
-0.34180209048599985
0.14648661020828566
1.8066681925688564
0.14648661020828566
-0.43945983062485694
1.416037232013428
1.0254062714579995
-0.34180209048599985
0.7324330510414282
1.3183794918745708
-0.04882887006942855
0.14648661020828566
36.37750820172427
140.5783169298848
246.4393072404059
313.8231479362173
396.53925383382926
431.0124361028458
329.93667505912873
202.59098191805904
140.48065918974595
86.67124437323568
45.654993514915695
62.84275577935454
88.72205691615167
80.42114900434882
66.06546120393683
62.64744029907683
57.95986877241169
47.998779278248264
41.16273746852827
52.881666285191116
60.30365453574426
32.471198596169984
11.865415426871138
21.826504921034562
15.967040512703136
-1.1230640115968566
6.6895551995117115
12.060730907148852
-2.392614633401999
-1.9043259327077133
8.642710002288853
0.14648661020828566
-5.71297779812314
4.541084916456855
3.1738765545128556
-5.71297779812314
0.43945983062485694
4.736400396734569
-3.5645075150682843
-2.68558785381857
4.248111696040284
-0.6347753109025711
-4.150453955901427
2.2949568932631417
1.6113527122911422
-3.8574807354848555
-0.04882887006942855
2.5879301136797133
-2.490272373540856
-1.9043259327077133
2.392614633401999
-0.537117570763714
-2.68558785381857
1.2207217517357138
0.8300907911802854
-2.490272373540856
-0.04882887006942855
1.513694972152285
-1.6113527122911422
-1.2207217517357138
1.3183794918745708
-0.43945983062485694
-1.8066681925688564
0.537117570763714
0.24414435034714274
-1.7090104524299992
-0.14648661020828566
0.7324330510414282
-1.1230640115968566
-0.8300907911802854
0.7324330510414282
-0.43945983062485694
-1.2207217517357138
0.24414435034714274
0.04882887006942855
-30.029755092698558
-121.73037308308537
-231.00938429846647
-324.07721065079727
-425.6412603952087
-482.38040741588463
-432.28198672465095
-316.26459143968873
-205.13008316166935
-139.79705500877392
-106.98405432211796
-75.63591973754482
-52.588693064774546
-43.99481193255512
-31.592278934920273
-17.627222095063708
-15.47875181200885
-13.916227969787137
-5.71297779812314
-4.150453955901427
-6.884870679789426
-2.490272373540856
0.537117570763714
-2.490272373540856
-1.513694972152285
1.9043259327077133
-0.34180209048599985
-1.9043259327077133
1.3183794918745708
1.0254062714579995
-1.3183794918745708
1.0254062714579995
2.2949568932631417
-0.537117570763714
-0.43945983062485694
1.6113527122911422
0.24414435034714274
-0.6347753109025711
1.416037232013428
1.513694972152285
0.04882887006942855
0.8300907911802854
1.3183794918745708
-0.34180209048599985
-0.04882887006942855
1.3183794918745708
0.537117570763714
0.24414435034714274
1.513694972152285
1.0254062714579995
-0.34180209048599985
20.45929655909056
111.37865262836652
238.2360570687419
281.88906691081104
272.02563515678645
314.3114366369116
340.77668421454183
290.5806057831693
240.57984283207446
223.48973830777447
203.5675593194476
158.93797207598993
104.44495307850767
77.19844357976653
67.33501182574197
42.62760357061112
24.560921644922562
27.100022888532845
19.775692378118563
5.71297779812314
8.935683222705425
11.279468986037996
0.7324330510414282
0.34180209048599985
6.884870679789426
1.0254062714579995
-3.076218814373999
3.36919203479057
2.392614633401999
-3.5645075150682843
0.24414435034714274
3.076218814373999
-2.392614633401999
-1.9043259327077133
2.68558785381857
-0.43945983062485694
-2.8809033340962844
1.416037232013428
0.9277485313191425
-2.5879301136797133
-0.04882887006942855
1.6113527122911422
-1.6113527122911422
-1.3183794918745708
1.513694972152285
-0.43945983062485694
-1.9043259327077133
0.6347753109025711
0.34180209048599985
-1.8066681925688564
-0.24414435034714274
0.8300907911802854
-1.2207217517357138
-0.9277485313191425
0.7324330510414282
-0.43945983062485694
-1.3183794918745708
0.34180209048599985
0.14648661020828566
-1.2207217517357138
-0.24414435034714274
0.43945983062485694
-0.8300907911802854
-0.7324330510414282
0.34180209048599985
-0.43945983062485694
-1.0254062714579995
0.04882887006942855
-0.04882887006942855
-0.9277485313191425
-0.24414435034714274
0.04882887006942855
-0.6347753109025711
-0.537117570763714
0.04882887006942855
-3.076218814373999
-44.09246967269398
-147.31670099946592
-252.29877164873733
-333.4523537041276
-424.85999847409784
-471.2474250400549
-416.1684596017395
-301.42061493858245
-195.26665140764476
-134.9141680018311
-102.88242923628596
-71.92492561226825
-51.123826962691695
-42.822919050888835
-29.63912413214313
-16.84596017395285
-15.283436331731137
-12.646677347981994
-5.0293736171511405
-4.736400396734569
-6.6895551995117115
-1.8066681925688564
0.24414435034714274
-2.783245593957427
-0.8300907911802854
2.197299153124285
-0.6347753109025711
-1.6113527122911422
1.416037232013428
0.537117570763714
-1.416037232013428
0.9277485313191425
2.0019836728465705
-0.14648661020828566
0.34180209048599985
1.7090104524299992
-0.14648661020828566
-0.6347753109025711
1.3183794918745708
0.9277485313191425
-0.14648661020828566
1.1230640115968566
1.3183794918745708
-0.24414435034714274
0.14648661020828566
1.2207217517357138
0.14648661020828566
0.04882887006942855
1.6113527122911422
1.2207217517357138
0.04882887006942855
17.041275654230564
76.41718165865568
130.03128099488822
116.74982833600366
114.4060425726711
169.77798123140306
178.37186236362248
148.87922484168766
173.68429083695736
192.2392614633402
156.88715953307394
153.9574273289082
185.98916609445334
176.12573434042878
149.95345998321508
148.39093614099338
149.85580224307623
138.82047760738536
111.96459906919966
94.38620584420539
96.04638742656596
71.04600595101854
32.56885633630884
30.71335927367056
32.27588311589227
10.009918364232853
6.103608758678568
17.52956435492485
6.005951018539712
-3.662165255207141
7.861448081177996
6.591897459372854
-5.517662317845426
0.9277485313191425
6.884870679789426
-3.466849774929427
-3.36919203479057
5.517662317845426
-0.14648661020828566
-5.127031357289998
2.783245593957427
2.490272373540856
-4.638742656595713
-0.14648661020828566
3.5645075150682843
-2.68558785381857
-2.392614633401999
3.076218814373999
-0.34180209048599985
-3.466849774929427
1.416037232013428
1.2207217517357138
-3.076218814373999
-0.24414435034714274
2.0019836728465705
-1.8066681925688564
-1.6113527122911422
1.8066681925688564
-0.34180209048599985
-2.197299153124285
0.8300907911802854
0.6347753109025711
-2.0019836728465705
-0.24414435034714274
1.1230640115968566
-1.3183794918745708
-1.2207217517357138
0.9277485313191425
-0.34180209048599985
-1.513694972152285
0.34180209048599985
0.24414435034714274
-1.3183794918745708
-0.24414435034714274
0.537117570763714
-0.8300907911802854
-0.8300907911802854
0.43945983062485694
-3.2715342946517127
-50.53788052185855
-172.0241092545968
-299.2721446555276
-380.1327534905013
-438.2391088731212
-447.32127870603495
-380.42572671091784
-274.46707866025787
-179.64141298542762
-125.44136720836194
-96.14404516670481
-66.84672312504769
-46.92454413672083
-39.307240405889985
-27.1976806286717
-15.283436331731137
-14.404516670481422
-12.45136186770428
-4.931715877012284
-4.150453955901427
-6.103608758678568
-1.6113527122911422
0.7324330510414282
-2.2949568932631417
-1.1230640115968566
1.7090104524299992
-0.7324330510414282
-1.513694972152285
1.513694972152285
0.9277485313191425
-0.8300907911802854
1.2207217517357138
1.7090104524299992
-0.7324330510414282
-0.04882887006942855
1.6113527122911422
0.14648661020828566
-0.24414435034714274
1.8066681925688564
1.2207217517357138
-0.34180209048599985
0.6347753109025711
1.1230640115968566
-0.24414435034714274
0.14648661020828566
1.416037232013428
0.6347753109025711
0.24414435034714274
1.1230640115968566
0.537117570763714
-0.24414435034714274
29.2484931715877
133.83993286030366
249.5643549248493
270.951400015259
266.2638284885939
309.6238651102464
313.92080567635617
263.9200427252613
239.21263447013047
241.45876249332417
225.2475776302739
168.9967193102922
104.24963759822995
75.63591973754482
62.15915159838254
36.96345464255741
25.146868085755703
27.49065384908827
16.45532921339742
5.517662317845426
10.79118028534371
9.42397192339971
-0.34180209048599985
2.2949568932631417
6.494239719233997
-0.6347753109025711
-1.9043259327077133
4.150453955901427
0.6347753109025711
-3.466849774929427
1.6113527122911422
2.0996414129854277
-2.9785610742351416
-0.537117570763714
2.490272373540856
-1.513694972152285
-2.0019836728465705
1.9043259327077133
0.04882887006942855
-2.490272373540856
0.6347753109025711
1.0254062714579995
-2.0996414129854277
-0.537117570763714
1.3183794918745708
-1.2207217517357138
-1.416037232013428
1.0254062714579995
-0.14648661020828566
-1.7090104524299992
0.24414435034714274
0.43945983062485694
-25.342183566033416
-92.62836652170596
-139.30876630807964
-139.11345082780193
-171.82879377431905
-210.50125886930647
-156.59418631265737
-71.53429465171283
-22.705424582284277
54.932478828107115
163.91851682307163
220.75532158388648
190.6767376211185
115.67559319447624
71.04600595101854
61.475547417410546
39.893186846723125
21.14290074006256
25.732814526588847
20.84992751964599
4.638742656595713
7.373159380483711
12.158388647287708
0.9277485313191425
-1.0254062714579995
7.275501640344854
1.9043259327077133
-4.052796215762569
2.9785610742351416
3.36919203479057
-4.052796215762569
-0.6347753109025711
-9.619287403677424
-92.62836652170596
-263.13878080415043
-418.0239566643778
-460.50507362478066
-424.078736552987
-364.70283054856185
-296.44007019150075
-223.78271152819104
-150.1487754634928
-101.12458991378652
-81.20241092545967
-58.8387884336614
-35.98687724116884
-30.811017013809415
-25.537499046311133
-11.767757686732281
-9.228656443121995
-12.353704127565424
-5.127031357289998
-0.7324330510414282
-5.420004577706569
-3.1738765545128556
2.392614633401999
-0.7324330510414282
-2.783245593957427
1.8066681925688564
1.0254062714579995
-2.392614633401999
0.8300907911802854
2.5879301136797133
-0.8300907911802854
-0.04882887006942855
2.490272373540856
-0.04882887006942855
-1.3183794918745708
1.6113527122911422
1.1230640115968566
-0.9277485313191425
1.2207217517357138
2.2949568932631417
-0.34180209048599985
-0.24414435034714274
1.416037232013428
0.04882887006942855
-0.537117570763714
1.416037232013428
1.3183794918745708
0.04882887006942855
0.8300907911802854
23.682001983672848
81.69069962615396
130.22659647516593
168.60608834973678
231.88830395971618
230.42343785763333
122.51163500419624
53.760585946440834
77.29610131990539
96.43701838712138
116.6521705958648
172.7077134355688
192.14160372320134
168.21545738918135
174.85618371862364
195.07133592736704
176.5163653009842
135.20714122224766
111.37865262836652
116.26153963530938
106.69108110170139
60.01068131532769
35.010299839780274
41.26039520866713
25.146868085755703
6.005951018539712
16.260013733119706
16.16235599298085
-1.6113527122911422
2.490272373540856
11.47478446631571
-1.0254062714579995
-4.248111696040284
7.275501640344854
2.0996414129854277
-6.201266498817426
2.5879301136797133
4.541084916456855
-4.931715877012284
-1.3183794918745708
4.931715877012284
-17.920195315480278
-75.9288929579614
-124.07415884641794
-120.0701915007248
-122.21866178377967
-180.4226749065385
-224.95460440985732
-239.7985809109636
-285.50240329594874
-322.7100022888533
-294.29159990844585
-237.45479514763105
-191.16502632181277
-159.7192339971008
-128.9570458533608
-63.13572899977112
61.182574196993976
211.67315175097275
330.32730601968416
400.44556343938353
414.7035934996567
375.6404974441138
300.93232623788816
199.46593423361563
124.07415884641794
102.1011673151751
77.88204776073853
43.11589227130541
37.64705882352941
36.96345464255741
15.576409552147707
9.033340962844282
17.920195315480278
8.154421301594567
-1.6113527122911422
-5.908293278400855
-78.17502098115511
-262.748149843595
-474.0794995040818
-570.3700312809949
-506.50186923018236
-357.4761577782864
-226.32181277180132
-159.2309452964065
-120.55848020141909
-81.30006866559853
-60.401312275883114
-52.10040436408026
-33.3501182574197
-19.48271915770199
-20.45929655909056
-14.795147631036851
-4.150453955901427
-6.201266498817426
-8.154421301594567
-0.9277485313191425
-0.537117570763714
-5.0293736171511405
-0.7324330510414282
2.490272373540856
-1.7090104524299992
-1.0254062714579995
2.8809033340962844
-0.14648661020828566
-2.197299153124285
1.8066681925688564
1.6113527122911422
-1.416037232013428
1.0254062714579995
2.68558785381857
-0.537117570763714
-0.537117570763714
1.9043259327077133
0.14648661020828566
-1.0254062714579995
1.6113527122911422
1.7090104524299992
1.513694972152285
46.72922865644312
213.82162203402763
447.9072251468681
555.4283970397497
485.99374380102233
359.9176012817578
263.33409628442814
201.61440451667048
146.63309681849393
98.58548867017625
75.34294651712825
59.13176165407798
36.86579690241855
