ecg
-54.54184786755169
-38.818951705195694
-23.779659723811704
-20.068665598535134
-16.45532921339742
-7.959105821316854
-6.103608758678568
-7.568474860761425
-2.9785610742351416
-0.43945983062485694
-3.2715342946517127
-1.8066681925688564
1.3183794918745708
-0.6347753109025711
-1.416037232013428
1.513694972152285
0.9277485313191425
-1.1230640115968566
0.7324330510414282
1.6113527122911422
-0.43945983062485694
0.04882887006942855
1.7090104524299992
0.24414435034714274
-0.34180209048599985
1.3183794918745708
0.9277485313191425
-0.34180209048599985
0.8300907911802854
1.3183794918745708
-0.04882887006942855
0.14648661020828566
1.3183794918745708
8.154421301594567
24.267948424505988
56.690318150606544
154.73868925001906
288.43213550011444
330.81559472037844
308.9402609292744
327.3975738155184
335.0148775463493
278.9593347066453
214.70054169527734
181.1062790875105
163.5278858625162
129.34767681391622
80.61646448462653
56.1043717097734
49.365987640192266
30.322728313115128
17.236591134508277
20.752269779507134
14.795147631036851
3.2715342946517127
6.787212939650568
8.838025482566568
-0.04882887006942855
0.04882887006942855
5.615320057984283
0.43945983062485694
-2.8809033340962844
2.8809033340962844
1.8066681925688564
-3.2715342946517127
0.24414435034714274
2.5879301136797133
-2.0996414129854277
-1.513694972152285
2.2949568932631417
-0.6347753109025711
-2.490272373540856
1.1230640115968566
0.6347753109025711
-2.392614633401999
-0.04882887006942855
1.3183794918745708
-1.513694972152285
-1.1230640115968566
1.2207217517357138
-0.537117570763714
-1.6113527122911422
0.6347753109025711
0.24414435034714274
-1.6113527122911422
-0.24414435034714274
0.6347753109025711
-1.1230640115968566
-0.8300907911802854
0.6347753109025711
-0.43945983062485694
-1.1230640115968566
0.24414435034714274
0.04882887006942855
-1.1230640115968566
-0.14648661020828566
0.24414435034714274
-0.7324330510414282
-0.6347753109025711
0.24414435034714274
-0.34180209048599985
-0.8300907911802854
0.04882887006942855
-0.14648661020828566
-0.8300907911802854
-0.24414435034714274
0.04882887006942855
-0.6347753109025711
-0.537117570763714
0.04882887006942855
-0.34180209048599985
-10.888838025482567
-68.01861600671397
-212.94270237277792
-411.87151903562983
-541.8539711604486
-521.2481879911497
-397.8088044556344
-268.60761425192646
-181.39925230792707
-129.54299229419394
-94.28854810406654
-69.48348210879682
-52.49103532463569
-37.549401083390556
-25.92813000686656
-19.678034637979707
-14.599832150759136
-9.326314183260854
-6.787212939650568
-5.615320057984283
-3.076218814373999
-1.7090104524299992
-2.0019836728465705
-1.0254062714579995
0.04882887006942855
-0.43945983062485694
-0.34180209048599985
0.537117570763714
0.34180209048599985
-0.04882887006942855
0.537117570763714
0.7324330510414282
0.14648661020828566
0.43945983062485694
0.9277485313191425
0.43945983062485694
0.14648661020828566
0.6347753109025711
0.6347753109025711
0.34180209048599985
0.7324330510414282
0.8300907911802854
0.34180209048599985
0.34180209048599985
0.6347753109025711
0.43945983062485694
0.43945983062485694
0.7324330510414282
0.6347753109025711
0.34180209048599985
0.6347753109025711
0.7324330510414282
9.71694514381628
38.33066300450141
99.46440833142596
234.23208972304874
397.71114671549554
449.6650644693675
393.8048371099413
336.0891126878767
294.193942168307
242.24002441443503
175.1491569390402
115.77325093461509
85.20637827115281
65.28419928282597
42.43228809033341
31.00633249408713
27.588311589227132
17.041275654230564
9.42397192339971
11.08415350576028
8.05676356145571
1.7090104524299992
3.36919203479057
4.638742656595713
-0.04882887006942855
-0.14648661020828566
2.8809033340962844
0.14648661020828566
-1.7090104524299992
1.3183794918745708
0.8300907911802854
-1.8066681925688564
0.04882887006942855
1.2207217517357138
-1.2207217517357138
-1.0254062714579995
1.0254062714579995
-0.43945983062485694
-1.513694972152285
0.43945983062485694
0.24414435034714274
-1.416037232013428
-0.24414435034714274
0.537117570763714
-0.9277485313191425
-0.7324330510414282
0.43945983062485694
-0.34180209048599985
-8.74036774242771
-29.63912413214313
-56.59266041046769
-108.93720912489509
-192.33691920347906
-214.60288395513848
-155.42229343099106
-140.67597467002366
-182.08285648889907
-190.6767376211185
-200.14953841458762
-249.27138170443274
-267.04509040970476
-228.4702830548562
-183.64538033112078
-162.94193942168306
-151.7112993057145
-113.9177538719768
-58.936446173800256
-23.48668650339513
-2.392614633401999
56.29968719005112
217.2396429388876
439.2156862745098
562.5574120698864
501.22835126268404
341.16731517509726
220.0717174029145
163.23491264209963
114.4060425726711
75.04997329671168
65.38185702296482
51.416800183108265
26.416418707560844
22.021820401312276
23.974975204089418
9.81460288395514
4.150453955901427
11.47478446631571
5.810635538261997
-2.197299153124285
4.150453955901427
5.224689097428855
-2.9785610742351416
-0.34180209048599985
4.638742656595713
-24.560921644922562
-127.49217975127794
-293.9986266880293
-443.4149691004807
-503.47447928587775
-460.2121004043641
-358.94102388036924
-257.962920576791
-174.36789501792936
-117.72640573739223
-90.96818493934539
-68.89753566796368
-44.97138933394369
-34.22903791866941
-28.760204470893417
-16.84596017395285
-10.693522545204852
-11.963073167009995
-7.275501640344854
-1.9043259327077133
-4.248111696040284
-3.9551384756237127
0.537117570763714
-0.537117570763714
-2.68558785381857
0.537117570763714
1.3183794918745708
-1.416037232013428
0.04882887006942855
2.0996414129854277
-0.24414435034714274
-0.6347753109025711
1.7090104524299992
0.7324330510414282
-0.6347753109025711
1.2207217517357138
1.6113527122911422
-0.24414435034714274
0.43945983062485694
1.7090104524299992
0.14648661020828566
-0.04882887006942855
1.3183794918745708
0.6347753109025711
-0.14648661020828566
0.9277485313191425
1.1230640115968566
0.04882887006942855
1.1230640115968566
33.3501182574197
109.91378652628366
161.67238879987792
192.04394598306249
290.775921263447
397.51583123521783
406.98863202868694
352.6909285114824
278.08041504539557
194.77836270695047
139.6017395284962
117.43343251697566
108.35126268406195
96.92530708781567
65.18654154268711
36.57282368200198
33.545433737697415
27.100022888532845
10.888838025482567
10.79118028534371
14.209201190203707
3.8574807354848555
0.537117570763714
7.373159380483711
2.9785610742351416
-2.9785610742351416
2.68558785381857
3.466849774929427
-3.076218814373999
-0.537117570763714
3.466849774929427
-1.513694972152285
-2.490272373540856
2.490272373540856
0.24414435034714274
-2.9785610742351416
0.8300907911802854
1.513694972152285
-2.392614633401999
-0.7324330510414282
1.7090104524299992
-1.2207217517357138
-1.8066681925688564
1.2207217517357138
0.04882887006942855
-2.0019836728465705
0.34180209048599985
0.7324330510414282
-1.6113527122911422
-0.537117570763714
0.9277485313191425
-0.8300907911802854
-1.2207217517357138
0.6347753109025711
-0.14648661020828566
-1.416037232013428
0.04882887006942855
0.24414435034714274
-1.1230640115968566
-0.43945983062485694
0.43945983062485694
-0.6347753109025711
-0.8300907911802854
0.24414435034714274
-0.14648661020828566
-0.9277485313191425
-0.04882887006942855
0.04882887006942855
-0.8300907911802854
-0.43945983062485694
0.14648661020828566
-0.6347753109025711
-0.7324330510414282
0.04882887006942855
-0.24414435034714274
-0.7324330510414282
-0.14648661020828566
-0.04882887006942855
-0.6347753109025711
-0.34180209048599985
0.04882887006942855
-0.43945983062485694
-34.424353398947126
-152.88319218738079
-329.64370183871216
-477.39986266880294
-523.0060273136492
-452.7901121538109
-331.69451438162815
-225.63820859082932
-153.37148088807507
-110.59739070725567
-82.7649347676814
-60.2059967956054
-43.70183871213855
-32.6665140764477
-23.096055542839704
-15.771725032425422
-12.060730907148852
-8.935683222705425
-5.517662317845426
-4.150453955901427
-3.466849774929427
-1.7090104524299992
-0.8300907911802854
-1.2207217517357138
-0.537117570763714
0.24414435034714274
-0.14648661020828566
0.04882887006942855
0.7324330510414282
0.43945983062485694
0.04882887006942855
0.6347753109025711
0.7324330510414282
0.24414435034714274
0.43945983062485694
0.7324330510414282
0.43945983062485694
0.43945983062485694
0.8300907911802854
0.6347753109025711
0.34180209048599985
0.6347753109025711
0.537117570763714
0.24414435034714274
0.537117570763714
0.8300907911802854
0.537117570763714
0.43945983062485694
0.7324330510414282
0.537117570763714
0.34180209048599985
0.537117570763714
0.6347753109025711
0.7324330510414282
38.818951705195694
181.20393682764936
361.4801251239796
429.4499122606241
403.37529564354924
376.32410162508586
343.90173189898525
281.0101472495613
197.7080949111162
130.42191195544365
97.41359578850995
72.90150301365682
47.21751735713741
36.57282368200198
31.396963454642556
18.21316853589685
11.377126726176853
13.330281528953995
8.154421301594567
2.0996414129854277
4.931715877012284
4.834058136873426
-0.537117570763714
0.6347753109025711
3.1738765545128556
-0.43945983062485694
-1.513694972152285
1.9043259327077133
0.34180209048599985
-2.0019836728465705
0.537117570763714
1.1230640115968566
-1.7090104524299992
-0.537117570763714
1.2207217517357138
-0.8300907911802854
-1.3183794918745708
0.8300907911802854
-36.86579690241855
-197.7080949111162
-449.4697489890898
-599.2767223620966
-545.7602807660029
-385.3086137178607
-246.82993820096132
-171.63347829404134
-125.92965590905622
-87.7454795147631
-66.94438086518655
-53.56527046616312
-34.32669565880827
-22.90074006256199
-21.338216220340275
19.385061417563133
179.64141298542762
431.6960402838178
591.6594186312657
549.2759594110017
389.5078965438315
247.3182269016556
172.80537117570765
127.88281071183337
87.35484855420768
66.74906538490883
55.32310978866255
34.81498435950255
22.314793621728846
22.412451361867703
14.892805371175708
5.71297779812314
8.252079041733426
8.05676356145571
0.7324330510414282
1.416037232013428
4.931715877012284
-39.40489814602884
-206.10666056305791
-454.74326695658806
-598.7884336614023
-541.6586556801709
-378.6678873884184
-242.82597085526817
-171.53582055390248
-124.56244754711223
-85.6946669718471
-67.43266956588083
-53.66292820630198
-32.6665140764477
-22.90074006256199
-22.21713588158999
-13.037308308537423
-5.908293278400855
-8.935683222705425
-6.787212939650568
-0.24414435034714274
-2.197299153124285
-4.150453955901427
0.8300907911802854
1.0254062714579995
-2.5879301136797133
0.04882887006942855
2.2949568932631417
-1.0254062714579995
-0.8300907911802854
2.2949568932631417
0.43945983062485694
-1.0254062714579995
1.7090104524299992
1.416037232013428
-1.0254062714579995
0.43945983062485694
1.9043259327077133
-0.24414435034714274
-0.14648661020828566
1.8066681925688564
0.537117570763714
-0.43945983062485694
19.18974593728542
85.30403601129167
158.05905241474022
180.32501716639965
209.5246814679179
269.97482261387046
270.85374227512017
239.50560769054704
264.7013046463722
292.24078736552985
258.2558937972076
196.8291752498665
154.54337376974135
137.45326924544136
111.37865262836652
67.62798504615854
46.33859769588769
43.89715419241627
26.318760967421987
12.646677347981994
18.21316853589685
13.81857022964828
1.416037232013428
5.322346837567712
8.935683222705425
-0.537117570763714
-1.0254062714579995
5.810635538261997
0.6347753109025711
-3.662165255207141
2.68558785381857
2.2949568932631417
-3.662165255207141
0.04882887006942855
2.9785610742351416
-2.197299153124285
-2.0019836728465705
2.5879301136797133
-0.34180209048599985
-2.783245593957427
1.2207217517357138
1.0254062714579995
-2.5879301136797133
-0.24414435034714274
1.6113527122911422
-1.6113527122911422
-1.416037232013428
1.416037232013428
-0.34180209048599985
-1.9043259327077133
0.6347753109025711
0.43945983062485694
-1.7090104524299992
-0.24414435034714274
0.8300907911802854
-1.1230640115968566
-1.0254062714579995
0.6347753109025711
-0.34180209048599985
-1.3183794918745708
0.24414435034714274
0.14648661020828566
-1.1230640115968566
-0.24414435034714274
0.34180209048599985
-0.7324330510414282
-0.7324330510414282
0.34180209048599985
-0.34180209048599985
-0.9277485313191425
0.04882887006942855
-0.04882887006942855
-0.9277485313191425
-11.279468986037996
-77.00312809948882
-250.34561684596017
-473.2005798428321
-581.210040436408
-510.5058365758755
-358.94102388036924
-233.15785458152132
-161.4770733196002
-118.31235217822538
-84.71808957045853
-63.6240177004654
-49.26832990005341
-33.15480277714199
-22.705424582284277
-19.092088197146563
-13.13496604867628
-7.275501640344854
-7.080186160067139
-5.908293278400855
-1.9043259327077133
-1.513694972152285
-2.68558785381857
-0.34180209048599985
0.537117570763714
-1.0254062714579995
-0.24414435034714274
1.3183794918745708
0.04882887006942855
-0.34180209048599985
1.2207217517357138
0.7324330510414282
-0.34180209048599985
0.7324330510414282
1.0254062714579995
0.04882887006942855
0.43945983062485694
1.3183794918745708
0.34180209048599985
0.04882887006942855
1.0254062714579995
0.6347753109025711
-0.04882887006942855
0.7324330510414282
1.0254062714579995
0.14648661020828566
0.34180209048599985
0.9277485313191425
0.43945983062485694
0.24414435034714274
31.592278934920273
163.43022812237734
359.0386816205081
460.2121004043641
437.94613565270464
385.40627145799954
332.475776302739
267.1427481498436
190.6767376211185
126.61326009002823
93.80025940337224
71.53429465171283
46.826886396581976
34.61966887922484
30.22507057297627
18.506141756313422
10.693522545204852
12.158388647287708
8.545052262149996
2.0996414129854277
4.052796215762569
4.931715877012284
0.04882887006942855
0.04882887006942855
3.076218814373999
0.04882887006942855
-1.6113527122911422
1.513694972152285
0.7324330510414282
-2.0019836728465705
0.04882887006942855
1.1230640115968566
-1.416037232013428
-0.9277485313191425
1.1230640115968566
-0.537117570763714
-1.416037232013428
0.537117570763714
0.14648661020828566
-1.416037232013428
-0.14648661020828566
0.537117570763714
-1.0254062714579995
-0.8300907911802854
0.43945983062485694
-14.795147631036851
-89.01503013656824
-211.47783627069504
-280.52185854886704
-288.43213550011444
-323.68657969024184
-352.8862439917601
-317.2411688410773
-264.2130159456779
-229.93514915693905
-200.6378271152819
-156.78950179293508
-101.31990539406424
-67.43266956588083
-54.83482108796826
-7.275501640344854
144.1916533150225
385.60158693827725
562.8503852903029
550.9361409933623
402.5940337224384
256.8886854352636
179.4460975051499
131.98443579766536
88.23376821545739
68.01861600671397
57.764553292133975
35.4009308003357
22.21713588158999
23.779659723811704
15.47875181200885
5.127031357289998
8.74036774242771
8.838025482566568
0.14648661020828566
1.3183794918745708
5.71297779812314
0.04882887006942855
-10.498207064927138
-53.85824368657969
-189.60250247959107
-397.02754253452355
-542.0492866407263
-532.5764858472572
-413.0434119172961
-276.7132066834516
-183.1570916304265
-133.5469596398871
-97.90188448920424
-68.99519340810254
-53.467612726024264
-40.67444876783398
-25.732814526588847
-18.89677271686885
-16.45532921339742
-9.71694514381628
-5.420004577706569
-6.591897459372854
-4.345769436179141
-0.6347753109025711
-2.0019836728465705
-2.392614633401999
0.6347753109025711
0.34180209048599985
-1.416037232013428
0.43945983062485694
1.416037232013428
-0.43945983062485694
0.04882887006942855
1.7090104524299992
0.24414435034714274
-0.34180209048599985
1.1230640115968566
0.9277485313191425
-0.04882887006942855
0.8300907911802854
1.2207217517357138
0.04882887006942855
0.24414435034714274
1.2207217517357138
0.34180209048599985
0.04882887006942855
1.1230640115968566
0.9277485313191425
0.04882887006942855
0.7324330510414282
1.0254062714579995
0.14648661020828566
0.24414435034714274
44.38544289311055
188.6259250782025
352.39795529106584
423.3951323720149
433.5515373464561
412.3598077363241
343.1204699778744
252.3964293888762
173.48897535667965
124.8554207675288
99.17143511100939
70.16708628976883
45.654993514915695
38.33066300450141
29.541466392004274
15.47875181200885
13.037308308537423
13.623254749370565
5.615320057984283
2.5879301136797133
6.39658197909514
3.076218814373999
-1.1230640115968566
2.392614633401999
2.68558785381857
-1.8066681925688564
-0.24414435034714274
2.2949568932631417
-0.9277485313191425
-1.6113527122911422
1.513694972152285
0.04882887006942855
-2.0019836728465705
0.43945983062485694
0.9277485313191425
-1.7090104524299992
-0.6347753109025711
1.0254062714579995
-0.9277485313191425
-1.3183794918745708
0.7324330510414282
-0.04882887006942855
-1.416037232013428
0.04882887006942855
0.34180209048599985
-1.1230640115968566
-0.43945983062485694
0.537117570763714
-29.834439612420844
-135.59777218280308
-257.279316395819
-282.6703288319219
-252.10345616845962
-248.39246204318303
-213.82162203402763
-129.73830777447165
-71.92492561226825
-2.2949568932631417
145.75417715724421
292.04547188525214
329.5460440985733
257.47463187609674
165.67635614557108
119.87487602044709
89.30800335698481
53.27229724574655
41.74868390936141
40.67444876783398
21.92416266117342
11.279468986037996
17.627222095063708
11.08415350576028
0.24414435034714274
6.103608758678568
7.861448081177996
-1.8066681925688564
-0.14648661020828566
5.810635538261997
-15.185778591592278
-101.71053635461966
-267.8263523308156
-439.8992904554818
-518.9044022278172
-477.2045471885252
-368.51148241397726
-263.13878080415043
-179.4460975051499
-120.55848020141909
-91.94476234073396
-71.24132143129626
-46.826886396581976
-34.22903791866941
-29.346150911726557
-18.11551079575799
-10.498207064927138
-11.865415426871138
-8.252079041733426
-2.0996414129854277
-3.7598229953459983
-4.443427176317998
0.24414435034714274
0.14648661020828566
-2.68558785381857
0.04882887006942855
1.7090104524299992
-1.2207217517357138
-0.6347753109025711
2.0019836728465705
0.14648661020828566
-0.8300907911802854
1.6113527122911422
1.1230640115968566
-0.7324330510414282
0.7324330510414282
1.6113527122911422
-0.24414435034714274
0.04882887006942855
1.7090104524299992
0.34180209048599985
-0.34180209048599985
1.1230640115968566
0.9277485313191425
-0.14648661020828566
0.7324330510414282
1.3183794918745708
0.04882887006942855
0.24414435034714274
1.1230640115968566
0.34180209048599985
13.916227969787137
101.6128786144808
290.5806057831693
453.86434729533835
470.7591363393606
406.30502784771494
344.1947051194019
283.3539330128939
214.01693751430534
144.38696879530022
99.07377737087053
78.07736324101626
55.420767528801406
35.69390402075227
30.615701533531702
23.974975204089418
12.060730907148852
10.10757610437171
11.181811245899137
4.443427176317998
1.6113527122911422
5.224689097428855
2.5879301136797133
-1.2207217517357138
1.8066681925688564
2.2949568932631417
-1.6113527122911422
-0.34180209048599985
2.0019836728465705
-0.7324330510414282
-1.6113527122911422
1.2207217517357138
0.04882887006942855
-1.9043259327077133
0.24414435034714274
0.7324330510414282
-1.513694972152285
-0.6347753109025711
0.9277485313191425
-0.7324330510414282
-1.1230640115968566
0.537117570763714
-0.14648661020828566
-1.416037232013428
0.04882887006942855
0.24414435034714274
-1.0254062714579995
-0.537117570763714
0.43945983062485694
-0.6347753109025711
-0.8300907911802854
0.24414435034714274
-0.14648661020828566
-0.9277485313191425
-0.04882887006942855
0.04882887006942855
-0.8300907911802854
-0.43945983062485694
0.04882887006942855
-0.537117570763714
-0.6347753109025711
0.04882887006942855
-0.14648661020828566
-0.7324330510414282
-0.14648661020828566
-0.04882887006942855
-0.537117570763714
-0.34180209048599985
0.04882887006942855
-0.43945983062485694
-0.537117570763714
-0.14648661020828566
-0.24414435034714274
-0.537117570763714
-0.24414435034714274
-0.14648661020828566
-0.43945983062485694
-0.34180209048599985
-6.494239719233997
-70.55771725032426
-258.4512092774853
-493.7087052719921
-592.3430228122378
-506.5995269703212
-349.2729076066224
-227.39604791332874
-160.1098649576562
-115.9685664148928
-82.56961928740368
-63.91699092088197
-48.584725719081405
-31.396963454642556
-22.803082322423133
-19.48271915770199
-11.963073167009995
-6.982528419928283
-7.666132600900283
-5.224689097428855
-1.3183794918745708
-2.490272373540856
-2.783245593957427
0.34180209048599985
0.14648661020828566
-1.6113527122911422
0.34180209048599985
1.416037232013428
-0.537117570763714
-0.04882887006942855
1.513694972152285
0.14648661020828566
-0.43945983062485694
1.1230640115968566
0.9277485313191425
-0.14648661020828566
0.7324330510414282
1.3183794918745708
0.04882887006942855
0.14648661020828566
1.2207217517357138
0.43945983062485694
0.04882887006942855
1.0254062714579995
0.8300907911802854
0.04882887006942855
0.7324330510414282
1.1230640115968566
0.24414435034714274
0.34180209048599985
0.9277485313191425
0.34180209048599985
0.14648661020828566
29.053177691309987
128.76173037308308
239.1149767299916
268.1193255512322
285.20943007553217
346.831464103151
357.37850003814754
299.0768291752499
248.0018310826276
221.8295567254139
194.38773174639505
143.5080491340505
89.69863431754024
67.23735408560312
54.7371633478294
32.08056763561456
22.510109102006563
24.365606164644845
13.720912489509422
4.834058136873426
9.81460288395514
7.861448081177996
-0.537117570763714
2.392614633401999
5.615320057984283
-0.9277485313191425
-1.416037232013428
3.7598229953459983
0.24414435034714274
-2.8809033340962844
1.6113527122911422
1.513694972152285
-2.783245593957427
-0.24414435034714274
2.0019836728465705
-1.6113527122911422
-1.6113527122911422
1.7090104524299992
-0.24414435034714274
-2.197299153124285
0.7324330510414282
0.6347753109025711
-2.0019836728465705
-0.34180209048599985
1.0254062714579995
-1.2207217517357138
-1.1230640115968566
0.9277485313191425
-0.24414435034714274
-1.513694972152285
0.24414435034714274
0.24414435034714274
-1.3183794918745708
-0.34180209048599985
0.537117570763714
-0.9277485313191425
-0.9277485313191425
0.34180209048599985
-0.34180209048599985
-1.0254062714579995
0.04882887006942855
0.04882887006942855
-0.9277485313191425
-0.34180209048599985
0.14648661020828566
-0.6347753109025711
-0.6347753109025711
0.14648661020828566
-0.34180209048599985
-0.7324330510414282
-0.14648661020828566
-0.14648661020828566
-0.7324330510414282
-0.34180209048599985
0.04882887006942855
-0.537117570763714
-3.1738765545128556
-28.857862211032273
-124.95307850766766
-309.6238651102464
-499.17753871976805
-560.7019150072481
-470.3685053788052
-326.323338673991
-214.9935149156939
-150.44174868390937
-109.62081330586709
-79.3469138628214
-59.91302357518883
-44.873731593804834
-30.420386053253985
-21.728847180895706
-17.43190661478599
-11.572442206454566
-7.275501640344854
-6.591897459372854
-4.736400396734569
-1.8066681925688564
-1.9043259327077133
-2.0019836728465705
-0.14648661020828566
0.04882887006942855
-1.0254062714579995
0.04882887006942855
0.9277485313191425
0.04882887006942855
0.04882887006942855
1.0254062714579995
0.34180209048599985
0.04882887006942855
0.8300907911802854
0.7324330510414282
0.04882887006942855
0.6347753109025711
1.0254062714579995
0.24414435034714274
0.24414435034714274
0.9277485313191425
0.6347753109025711
0.34180209048599985
0.8300907911802854
0.7324330510414282
0.14648661020828566
0.537117570763714
0.8300907911802854
0.43945983062485694
0.43945983062485694
0.8300907911802854
0.7324330510414282
0.537117570763714
0.7324330510414282
7.568474860761425
27.392996108949415
74.26871137560083
197.31746395056078
363.33562218661785
423.3951323720149
369.7810330357824
328.56946669718474
317.82711528191044
282.1820401312276
210.01297016861218
136.76966506446936
97.3159380483711
75.44060425726711
49.46364538033112
34.81498435950255
31.885252155336843
20.752269779507134
10.498207064927138
12.256046387426567
10.10757610437171
2.197299153124285
3.36919203479057
5.810635538261997
0.43945983062485694
-0.7324330510414282
3.1738765545128556
0.7324330510414282
-2.197299153124285
1.1230640115968566
1.513694972152285
-2.0019836728465705
-0.43945983062485694
1.7090104524299992
-1.1230640115968566
-1.513694972152285
1.2207217517357138
-0.04882887006942855
-1.8066681925688564
0.24414435034714274
0.537117570763714
-1.6113527122911422
-0.537117570763714
0.8300907911802854
-13.037308308537423
-64.20996414129854
-122.41397726405738
-123.29289692530709
-106.8863965819791
-120.16784924086366
-80.81177996490425
12.256046387426567
47.31517509727627
37.549401083390556
53.85824368657969
82.0813305867094
88.4290836957351
68.11627374685283
50.53788052185855
53.07698176546884
43.604180971999696
19.385061417563133
15.869382772564279
19.87335011825742
6.982528419928283
1.513694972152285
9.912260624093996
5.0293736171511405
-3.1738765545128556
3.36919203479057
5.127031357289998
-3.2715342946517127
-0.8300907911802854
4.541084916456855
-1.3183794918745708
-3.1738765545128556
2.9785610742351416
0.7324330510414282
-3.7598229953459983
0.7324330510414282
2.0996414129854277
-2.783245593957427
-29.053177691309987
-138.62516212710764
-338.23758297093156
-514.7051194018463
-551.3267719539177
-453.9620050354772
-317.0458533607996
-209.03639276722362
-144.58228427557793
-107.5700007629511
-78.76096742198825
-56.88563363088426
-43.311207751583126
-31.2993057145037
-20.84992751964599
-15.967040512703136
-12.45136186770428
-7.470817120622568
-5.224689097428855
-4.931715877012284
-2.490272373540856
-0.8300907911802854
-1.7090104524299992
-1.0254062714579995
0.43945983062485694
-0.04882887006942855
-0.43945983062485694
0.7324330510414282
0.7324330510414282
-0.04882887006942855
0.43945983062485694
0.8300907911802854
0.14648661020828566
0.34180209048599985
1.1230640115968566
0.6347753109025711
0.24414435034714274
0.8300907911802854
0.6347753109025711
0.04882887006942855
0.537117570763714
0.8300907911802854
0.34180209048599985
0.43945983062485694
0.9277485313191425
0.537117570763714
0.24414435034714274
23.291371023117417
115.28496223392081
233.15785458152132
264.8966201266499
253.86129549095904
295.4634927901121
315.97161821927216
271.0490577553979
242.43533989471274
238.62668802929733
207.86449988555734
154.54337376974135
111.86694132906081
96.53467612726024
84.81574731059739
52.881666285191116
31.68993667505913
32.86182955672541
22.60776684214542
7.666132600900283
11.865415426871138
12.84199282825971
1.0254062714579995
1.6113527122911422
7.959105821316854
0.7324330510414282
-2.8809033340962844
4.248111696040284
2.0996414129854277
-3.9551384756237127
0.9277485313191425
3.1738765545128556
-2.783245593957427
-1.513694972152285
2.9785610742351416
-0.9277485313191425
-2.783245593957427
1.8066681925688564
0.7324330510414282
-2.8809033340962844
0.14648661020828566
1.6113527122911422
-2.0996414129854277
-1.2207217517357138
1.6113527122911422
-0.7324330510414282
-1.9043259327077133
0.9277485313191425
0.24414435034714274
-1.9043259327077133
0.04882887006942855
0.8300907911802854
-1.3183794918745708
-0.8300907911802854
0.9277485313191425
-0.6347753109025711
-1.3183794918745708
0.34180209048599985
0.04882887006942855
-1.3183794918745708
-0.04882887006942855
0.34180209048599985
-0.9277485313191425
-0.6347753109025711
0.43945983062485694
-0.43945983062485694
-0.9277485313191425
0.14648661020828566
-0.04882887006942855
-1.0254062714579995
-0.24414435034714274
0.04882887006942855
-0.7324330510414282
-0.537117570763714
0.04882887006942855
-0.43945983062485694
-0.6347753109025711
0.04882887006942855
-0.14648661020828566
-0.6347753109025711
-0.14648661020828566
0.04882887006942855
-0.537117570763714
-0.43945983062485694
0.04882887006942855
-0.34180209048599985
-0.6347753109025711
-0.14648661020828566
-0.24414435034714274
-14.599832150759136
-75.9288929579614
-196.8291752498665
-352.2026398107881
-485.2124818799115
-516.0723277637903
-430.5241474021515
-303.3737697413596
-200.93080033569848
-139.4064240482185
-103.17540245670253
-74.85465781643397
-54.44419012741283
-41.651026169222554
-29.63912413214313
-19.775692378118563
-15.47875181200885
-11.767757686732281
-6.884870679789426
-5.224689097428855
-4.736400396734569
-2.2949568932631417
-1.0254062714579995
-1.7090104524299992
-0.8300907911802854
0.43945983062485694
-0.24414435034714274
-0.34180209048599985
0.8300907911802854
0.537117570763714
-0.14648661020828566
0.6347753109025711
0.9277485313191425
0.04882887006942855
0.43945983062485694
1.1230640115968566
0.537117570763714
0.24414435034714274
0.8300907911802854
0.6347753109025711
0.14648661020828566
0.6347753109025711
0.8300907911802854
0.34180209048599985
0.537117570763714
0.8300907911802854
0.43945983062485694
0.34180209048599985
0.7324330510414282
0.537117570763714
0.34180209048599985
12.256046387426567
80.32349126420996
199.7589074540322
271.0490577553979
297.31898985275046
365.7770656900893
419.29350728618294
380.42572671091784
289.11573968108644
206.69260700389106
157.47310597390708
121.04676890211337
80.2258335240711
56.39734493018997
48.38941023880369
32.27588311589227
18.310826276035705
18.89677271686885
14.892805371175708
4.834058136873426
5.810635538261997
8.05676356145571
1.3183794918745708
-0.04882887006942855
4.443427176317998
1.3183794918745708
-2.197299153124285
1.7090104524299992
1.9043259327077133
-2.2949568932631417
-0.34180209048599985
2.0019836728465705
-1.3183794918745708
-1.6113527122911422
1.513694972152285
-0.04882887006942855
-2.0019836728465705
0.537117570763714
0.7324330510414282
-1.7090104524299992
-0.43945983062485694
1.0254062714579995
-63.6240177004654
-276.9085221637293
-527.7912565804531
-607.5776302738994
-497.9079880979629
-331.69451438162815
-215.97009231708248
-156.9848172732128
-112.06225680933852
-78.56565194171054
-64.11230640115969
-47.90112153810941
-28.076600289921416
-22.510109102006563
-16.260013733119706
76.41718165865568
316.65522240024416
554.5494773785
597.9095140001526
467.1457999542229
300.6393530174716
197.21980621042192
148.5862516212711
104.05432211795224
71.92492561226825
62.061493858243686
45.26436255436027
24.4632639047837
22.21713588158999
20.84992751964599
8.05676356145571
5.615320057984283
10.498207064927138
3.8574807354848555
-22.90074006256199
-93.40962844281681
-211.96612497138932
-352.59327077134355
-470.66147859922177
-500.1541161211566
-425.445944914931
-301.029983978027
-194.2900740062562
-137.1602960250248
-104.1519798580911
-71.04600595101854
-51.80743114366369
-43.99481193255512
-29.150835431448844
-17.13893339436942
-17.13893339436942
-12.84199282825971
-4.052796215762569
-4.736400396734569
-6.591897459372854
-1.2207217517357138
-0.34180209048599985
-3.8574807354848555
-0.8300907911802854
2.0996414129854277
-0.8300907911802854
-0.7324330510414282
2.2949568932631417
0.24414435034714274
-1.6113527122911422
1.2207217517357138
1.3183794918745708
-1.0254062714579995
0.8300907911802854
2.392614633401999
-0.04882887006942855
-0.34180209048599985
1.513694972152285
0.34180209048599985
-0.7324330510414282
1.2207217517357138
1.6113527122911422
0.04882887006942855
0.537117570763714
1.2207217517357138
-0.14648661020828566
-0.14648661020828566
15.47875181200885
64.11230640115969
120.46082246128023
166.16464484626536
251.02922102693216
341.0696574349584
335.79613946746014
288.43213550011444
282.08438239108875
278.8616769665064
244.3884946974899
188.91889829861907
138.23453116655222
109.91378652628366
80.9094377050431
48.78004119935912
38.42832074464027
34.32669565880827
18.310826276035705
11.47478446631571
15.381094071869994
8.545052262149996
1.0254062714579995
5.908293278400855
5.615320057984283
-1.513694972152285
0.7324330510414282
4.345769436179141
-1.0254062714579995
-1.9043259327077133
2.8809033340962844
0.43945983062485694
-2.8809033340962844
0.9277485313191425
1.416037232013428
-2.490272373540856
-0.6347753109025711
1.8066681925688564
-1.2207217517357138
-1.7090104524299992
1.3183794918745708
-0.04882887006942855
-2.0019836728465705
0.43945983062485694
0.7324330510414282
-1.7090104524299992
-0.537117570763714
0.9277485313191425
-0.9277485313191425
-1.2207217517357138
0.6347753109025711
-0.14648661020828566
-1.416037232013428
0.14648661020828566
0.24414435034714274
-1.1230640115968566
-0.43945983062485694
0.43945983062485694
-0.7324330510414282
-0.9277485313191425
0.24414435034714274
-0.24414435034714274
-1.0254062714579995
-0.04882887006942855
0.04882887006942855
-0.8300907911802854
-0.34180209048599985
0.14648661020828566
-0.537117570763714
-0.6347753109025711
0.04882887006942855
-0.24414435034714274
-0.8300907911802854
-0.14648661020828566
-0.04882887006942855
-0.6347753109025711
-0.34180209048599985
0.04882887006942855
-0.43945983062485694
-0.537117570763714
-0.04882887006942855
-0.24414435034714274
-0.537117570763714
-0.14648661020828566
-25.24452582589456
-154.54337376974135
-395.5626764324407
-578.2803082322423
-565.0965133134966
-420.0747692072938
-273.39284351873044
-184.81727321278706
-135.01182574196994
-95.9487296864271
-71.1436636911574
-56.59266041046769
-38.91660944533455
-25.24452582589456
-21.24055848020142
-15.47875181200885
-7.861448081177996
-7.470817120622568
-7.568474860761425
-2.5879301136797133
-1.416037232013428
-3.36919203479057
-0.6347753109025711
1.416037232013428
-1.2207217517357138
-1.2207217517357138
1.2207217517357138
0.04882887006942855
-1.0254062714579995
1.2207217517357138
1.6113527122911422
-0.04882887006942855
0.6347753109025711
1.416037232013428
-0.34180209048599985
-0.24414435034714274
1.2207217517357138
0.6347753109025711
0.14648661020828566
1.513694972152285
1.1230640115968566
-0.24414435034714274
0.34180209048599985
1.0254062714579995
0.04882887006942855
0.24414435034714274
1.513694972152285
0.9277485313191425
0.14648661020828566
4.248111696040284
51.80743114366369
169.19203479056992
293.2173647669184
387.45708400091553
457.6729991607538
457.6729991607538
376.4217593652247
265.1895933470665
173.87960631723507
123.58587014572366
93.60494392309452
64.9912260624094
47.31517509727627
38.818951705195694
26.025787747005417
15.967040512703136
14.892805371175708
11.279468986037996
4.736400396734569
4.931715877012284
5.615320057984283
1.2207217517357138
0.43945983062485694
2.9785610742351416
0.7324330510414282
-1.2207217517357138
1.1230640115968566
0.9277485313191425
-1.513694972152285
-0.14648661020828566
1.1230640115968566
-0.9277485313191425
-1.0254062714579995
0.8300907911802854
-0.24414435034714274
-1.3183794918745708
0.24414435034714274
0.24414435034714274
-1.1230640115968566
-0.34180209048599985
0.34180209048599985
-27.881284809643702
-113.72243839169909
-190.38376440070192
-188.6259250782025
-174.4655527580682
-176.3210498207065
-120.55848020141909
-43.99481193255512
-34.0337224383917
-42.72526131074998
-32.56885633630884
-57.86221103227283
-92.5307087815671
-78.37033646143283
-56.690318150606544
-44.873731593804834
17.43190661478599
123.58587014572366
203.07927061875333
227.6890211337453
212.25909819180592
189.79781795986878
156.9848172732128
95.85107194628824
56.39734493018997
56.39734493018997
40.38147554741741
15.771725032425422
20.752269779507134
22.314793621728846
3.36919203479057
3.1738765545128556
13.330281528953995
2.2949568932631417
-4.150453955901427
6.884870679789426
4.248111696040284
-52.39337758449683
-198.48935683222706
-382.2812237735561
-494.00167849240864
-489.6070801861601
-405.62142366674294
-309.0379186694133
-221.6342412451362
-144.58228427557793
-103.07774471656367
-84.91340505073624
-57.56923781185626
-36.57282368200198
-33.93606469825284
-24.756237125200276
-10.498207064927138
-11.47478446631571
-12.74433508812085
-3.1738765545128556
-1.7090104524299992
-6.6895551995117115
-1.513694972152285
2.68558785381857
-2.392614633401999
-2.197299153124285
2.5879301136797133
-0.43945983062485694
-2.783245593957427
1.8066681925688564
1.8066681925688564
-1.7090104524299992
0.9277485313191425
2.783245593957427
-0.9277485313191425
-0.8300907911802854
2.197299153124285
0.24414435034714274
-1.0254062714579995
2.0019836728465705
1.9043259327077133
-0.7324330510414282
0.43945983062485694
1.7090104524299992
-0.34180209048599985
-0.14648661020828566
1.8066681925688564
0.7324330510414282
-0.04882887006942855
1.3183794918745708
0.9277485313191425
-0.537117570763714
0.43945983062485694
1.3183794918745708
0.04882887006942855
0.34180209048599985
23.87731746395056
93.11665522240024
168.89906157015335
230.81406881818876
328.4718089570459
413.62935835812925
396.83222705424583
328.08117799649045
273.9787899595636
229.3492027161059
180.03204394598308
122.02334630350195
80.12817578393225
65.08888380254825
47.90112153810941
27.881284809643702
24.267948424505988
21.728847180895706
9.619287403677424
6.591897459372854
10.400549324788281
4.345769436179141
-0.14648661020828566
4.443427176317998
3.36919203479057
-2.0019836728465705
0.7324330510414282
3.076218814373999
-1.6113527122911422
-1.416037232013428
2.2949568932631417
-0.24414435034714274
-2.2949568932631417
1.1230640115968566
0.8300907911802854
-2.197299153124285
-0.14648661020828566
1.3183794918745708
-1.416037232013428
-1.2207217517357138
1.1230640115968566
-0.43945983062485694
-1.7090104524299992
0.43945983062485694
0.34180209048599985
-1.513694972152285
-0.24414435034714274
0.6347753109025711
-1.0254062714579995
-0.8300907911802854
0.537117570763714
-0.34180209048599985
-1.1230640115968566
0.04882887006942855
0.04882887006942855
-1.1230640115968566
-0.24414435034714274
0.24414435034714274
-0.7324330510414282
-0.6347753109025711
0.14648661020828566
-0.34180209048599985
-0.8300907911802854
0.04882887006942855
-0.04882887006942855
-0.8300907911802854
-0.34180209048599985
0.04882887006942855
-0.6347753109025711
-0.537117570763714
0.04882887006942855
-0.34180209048599985
-0.6347753109025711
-0.04882887006942855
-0.14648661020828566
-0.6347753109025711
-0.24414435034714274
-0.04882887006942855
-0.43945983062485694
-0.43945983062485694
-0.04882887006942855
-0.34180209048599985
-41.065079728389414
-176.02807660028992
-358.8433661402304
-489.9977111467155
-514.1191729610132
-434.33279926756694
-316.3622491798276
-216.94666971847104
-147.8049897001602
-106.69108110170139
-80.61646448462653
-58.1551842526894
-41.358052948805984
-31.396963454642556
-22.314793621728846
-14.697489890897993
-11.865415426871138
-9.326314183260854
-5.224689097428855
-3.7598229953459983
-3.5645075150682843
-1.2207217517357138
0.04882887006942855
-1.1230640115968566
-0.9277485313191425
0.24414435034714274
-0.24414435034714274
-0.43945983062485694
0.7324330510414282
0.8300907911802854
0.14648661020828566
0.6347753109025711
0.8300907911802854
0.04882887006942855
0.14648661020828566
0.8300907911802854
0.43945983062485694
0.537117570763714
1.2207217517357138
0.8300907911802854
0.04882887006942855
0.34180209048599985
0.6347753109025711
0.24414435034714274
0.537117570763714
1.2207217517357138
0.8300907911802854
0.34180209048599985
0.537117570763714
8.349736781872283
38.525978484779124
118.41000991836424
271.83031967650874
412.06683451590754
427.0084687571527
375.73815518425266
340.09308003356983
299.4674601358053
236.28290226596476
163.03959716182192
108.64423590447852
82.86259250782025
61.08491645685512
39.307240405889985
31.592278934920273
26.318760967421987
14.404516670481422
9.912260624093996
11.47478446631571
6.103608758678568
1.6113527122911422
4.638742656595713
3.662165255207141
-0.8300907911802854
0.9277485313191425
2.68558785381857
-0.8300907911802854
-0.9277485313191425
1.8066681925688564
-0.14648661020828566
-1.8066681925688564
0.7324330510414282
0.6347753109025711
-1.7090104524299992
-0.24414435034714274
0.9277485313191425
-1.1230640115968566
-1.0254062714579995
0.8300907911802854
-0.34180209048599985
-1.3183794918745708
0.24414435034714274
0.14648661020828566
-1.3183794918745708
-0.34180209048599985
0.43945983062485694
-0.8300907911802854
-0.7324330510414282
0.34180209048599985
-0.34180209048599985
-0.9277485313191425
0.04882887006942855
0.04882887006942855
-0.8300907911802854
-0.34180209048599985
0.04882887006942855
-0.6347753109025711
-0.6347753109025711
0.04882887006942855
-0.34180209048599985
-0.7324330510414282
-0.04882887006942855
-0.04882887006942855
-0.6347753109025711
-0.24414435034714274
0.04882887006942855
-0.537117570763714
-0.43945983062485694
0.04882887006942855
-0.34180209048599985
-0.6347753109025711
-5.420004577706569
-51.31914244296941
-200.73548485542076
-426.42252231631954
-570.4676890211338
-535.7991912718395
-394.1954680704967
-259.52544441901273
-177.29762722209506
-128.37109941252766
-91.65178912031739
-68.31158922713054
-52.78400854505226
-36.0845349813077
-24.65857938506142
-20.752269779507134
-14.795147631036851
-8.154421301594567
-7.275501640344854
-6.201266498817426
-1.9043259327077133
-1.3183794918745708
-2.8809033340962844
-0.8300907911802854
0.24414435034714274
-1.2207217517357138
-0.43945983062485694
1.3183794918745708
0.34180209048599985
-0.14648661020828566
1.1230640115968566
0.6347753109025711
-0.537117570763714
0.537117570763714
1.1230640115968566
0.04882887006942855
0.43945983062485694
1.513694972152285
0.43945983062485694
-0.14648661020828566
0.6347753109025711
0.537117570763714
0.04882887006942855
0.7324330510414282
1.3183794918745708
0.6347753109025711
0.43945983062485694
0.7324330510414282
0.14648661020828566
0.04882887006942855
0.8300907911802854
0.9277485313191425
0.6347753109025711
1.0254062714579995
0.9277485313191425
0.14648661020828566
0.24414435034714274
26.123445487144274
116.6521705958648
226.02883955138475
285.01411459525445
340.5813687342641
401.12916762035553
384.8203250171664
313.72549019607845
251.32219424734873
202.4933241779202
160.01220721751736
111.6716258487831
71.63195239185168
57.27626459143969
44.77607385366598
25.63515678644999
20.16632333867399
20.16632333867399
9.81460288395514
4.736400396734569
8.935683222705425
5.224689097428855
-0.6347753109025711
3.076218814373999
3.9551384756237127
-1.6113527122911422
-0.24414435034714274
3.1738765545128556
-0.7324330510414282
-2.0996414129854277
1.8066681925688564
0.43945983062485694
-2.392614633401999
0.34180209048599985
1.3183794918745708
-1.8066681925688564
-0.8300907911802854
1.416037232013428
-0.8300907911802854
-1.513694972152285
0.8300907911802854
0.04882887006942855
-1.7090104524299992
0.04882887006942855
0.537117570763714
-1.3183794918745708
-0.6347753109025711
0.6347753109025711
-0.6347753109025711
-1.1230640115968566
0.34180209048599985
-0.04882887006942855
-1.1230640115968566
-0.04882887006942855
0.24414435034714274
-0.9277485313191425
-0.537117570763714
0.24414435034714274
-0.537117570763714
-0.8300907911802854
0.04882887006942855
-0.14648661020828566
-0.8300907911802854
-0.14648661020828566
0.04882887006942855
-0.6347753109025711
-0.43945983062485694
0.04882887006942855
-0.43945983062485694
-0.6347753109025711
-0.04882887006942855
-0.24414435034714274
-0.7324330510414282
-0.24414435034714274
-0.04882887006942855
-0.537117570763714
-0.34180209048599985
-0.04882887006942855
-0.34180209048599985
-0.43945983062485694
-3.5645075150682843
-51.416800183108265
-217.43495841916533
-458.8448920424201
-591.5617608911268
-530.9163042648967
-375.34752422369723
-243.31425955596245
-168.70374608987564
-122.99992370489052
-87.15953307392996
-65.96780346379796
-51.31914244296941
-34.0337224383917
-23.48668650339513
-20.45929655909056
-13.623254749370565
-7.275501640344854
-7.470817120622568
-5.71297779812314
-1.0254062714579995
-1.8066681925688564
-3.36919203479057
-0.43945983062485694
0.43945983062485694
-1.6113527122911422
-0.14648661020828566
1.9043259327077133
0.14648661020828566
-0.34180209048599985
1.3183794918745708
0.34180209048599985
-0.7324330510414282
0.8300907911802854
1.2207217517357138
-0.04882887006942855
0.6347753109025711
1.416037232013428
0.04882887006942855
-0.24414435034714274
1.0254062714579995
0.537117570763714
0.04882887006942855
1.1230640115968566
1.2207217517357138
0.04882887006942855
0.24414435034714274
0.8300907911802854
0.14648661020828566
0.04882887006942855
1.0254062714579995
10.595864805065995
41.26039520866713
110.20675974670024
253.86129549095904
418.5122453650721
470.46616311894405
416.36377508201724
345.36659800106816
279.6429388876173
216.06775005722133
152.3949034866865
101.90585183489738
77.39375906004425
58.936446173800256
37.74471656366827
28.369573510337986
24.95155260547799
14.599832150759136
8.545052262149996
10.400549324788281
6.787212939650568
1.416037232013428
3.5645075150682843
4.052796215762569
-0.43945983062485694
0.04882887006942855
2.5879301136797133
-0.24414435034714274
-1.513694972152285
1.416037232013428
0.43945983062485694
-1.8066681925688564
0.14648661020828566
1.0254062714579995
-1.416037232013428
-0.7324330510414282
1.0254062714579995
-0.6347753109025711
-1.3183794918745708
0.43945983062485694
0.04882887006942855
-1.416037232013428
-0.04882887006942855
0.34180209048599985
-1.0254062714579995
-0.6347753109025711
0.43945983062485694
-13.037308308537423
-75.73357747768368
-177.49294270237277
-242.82597085526817
-280.4242008087282
-344.5853360799573
-361.4801251239796
-292.143129625391
-226.51712825207903
-156.39887083237966
-7.470817120622568
167.14122224765393
286.9672693980316
343.3157854581521
343.70641641870753
300.4440375371939
223.58739604791333
138.7228198672465
95.06981002517739
80.61646448462653
52.97932402532997
32.27588311589227
33.64309147783627
24.65857938506142
8.349736781872283
11.181811245899137
13.427939269092851
1.7090104524299992
0.9277485313191425
7.959105821316854
1.513694972152285
-3.1738765545128556
-7.666132600900283
-69.9717708094911
-231.20469977874419
-437.1648737315938
-557.3815518425268
-519.2950331883726
-381.2069886320287
-248.6854352635996
-172.61005569542993
-127.49217975127794
-87.7454795147631
-65.28419928282597
-53.760585946440834
-35.49858854047456
-22.21713588158999
-21.14290074006256
-15.185778591592278
-6.005951018539712
-6.884870679789426
-7.568474860761425
-1.513694972152285
-1.0254062714579995
-4.248111696040284
-0.6347753109025711
1.8066681925688564
-1.416037232013428
-0.8300907911802854
2.2949568932631417
0.04882887006942855
-1.513694972152285
1.513694972152285
1.3183794918745708
-0.9277485313191425
0.9277485313191425
2.0996414129854277
-0.43945983062485694
-0.24414435034714274
1.6113527122911422
0.24414435034714274
-0.537117570763714
1.3183794918745708
1.3183794918745708
-0.04882887006942855
0.8300907911802854
1.416037232013428
-0.04882887006942855
0.04882887006942855
1.3183794918745708
0.43945983062485694
0.04882887006942855
1.2207217517357138
15.674067292286564
53.17463950560769
105.61684596017395
205.13008316166935
335.79613946746014
379.644464789807
341.4602883955138
325.44441901274126
326.42099641412983
290.87357900358586
214.9935149156939
138.62516212710764
98.48783093003739
76.90547035934996
50.14724956130312
35.20561532005799
32.56885633630884
21.24055848020142
10.400549324788281
12.549019607843137
10.400549324788281
2.0019836728465705
3.2715342946517127
6.103608758678568
0.34180209048599985
-0.8300907911802854
3.466849774929427
0.9277485313191425
-2.2949568932631417
1.2207217517357138
1.7090104524299992
-2.197299153124285
-0.537117570763714
1.8066681925688564
-1.2207217517357138
-1.6113527122911422
1.3183794918745708
-0.04882887006942855
-1.9043259327077133
0.34180209048599985
0.7324330510414282
-1.6113527122911422
-0.43945983062485694
0.9277485313191425
-0.9277485313191425
-1.2207217517357138
0.537117570763714
-0.24414435034714274
-1.416037232013428
0.04882887006942855
0.24414435034714274
-1.1230640115968566
-0.43945983062485694
0.43945983062485694
-0.6347753109025711
-0.8300907911802854
0.24414435034714274
-0.24414435034714274
-1.0254062714579995
-0.04882887006942855
0.04882887006942855
-8.642710002288853
-24.65857938506142
-23.87731746395056
-2.8809033340962844
13.916227969787137
15.967040512703136
9.130998702983138
3.8574807354848555
3.8574807354848555
2.68558785381857
0.43945983062485694
1.3183794918745708
1.7090104524299992
-0.24414435034714274
-0.24414435034714274
0.8300907911802854
-0.14648661020828566
-0.9277485313191425
0.34180209048599985
0.04882887006942855
-0.9277485313191425
-0.14648661020828566
0.24414435034714274
-0.7324330510414282
-0.537117570763714
-11.181811245899137
-92.43305104142824
-293.41268024719614
-513.9238574807355
-584.5304036011291
-485.1148241397726
-330.62027924010073
-216.55603875791562
-153.66445410849164
-110.9880216678111
-79.54222934309911
-62.061493858243686
-46.43625543602655
-29.9320973525597
-22.510109102006563
-18.799114976729992
-10.888838025482567
-6.787212939650568
-7.666132600900283
-4.736400396734569
-1.2207217517357138
-2.68558785381857
-2.490272373540856
0.537117570763714
0.04882887006942855
-1.3183794918745708
0.537117570763714
1.0254062714579995
-0.8300907911802854
0.04882887006942855
1.513694972152285
0.04882887006942855
-0.04882887006942855
1.513694972152285
0.8300907911802854
-0.24414435034714274
0.8300907911802854
1.1230640115968566
-0.04882887006942855
0.34180209048599985
1.416037232013428
0.537117570763714
0.14648661020828566
0.9277485313191425
0.43945983062485694
0.04882887006942855
22.314793621728846
138.9181353475242
356.20660715648125
522.420080872816
531.2092774853132
432.8679331654841
312.4559395742733
220.2670328831922
155.51995117112992
107.17936980239567
80.32349126420996
62.84275577935454
42.33463035019455
29.346150911726557
25.146868085755703
17.041275654230564
9.42397192339971
9.521629663538567
7.861448081177996
2.490272373540856
2.5879301136797133
4.052796215762569
0.7324330510414282
-0.24414435034714274
2.0019836728465705
0.6347753109025711
-1.416037232013428
0.537117570763714
0.9277485313191425
-1.2207217517357138
-0.43945983062485694
0.9277485313191425
-0.7324330510414282
-1.0254062714579995
0.537117570763714
-0.04882887006942855
-1.2207217517357138
0.04882887006942855
0.24414435034714274
-1.1230640115968566
-0.537117570763714
0.34180209048599985
-0.6347753109025711
-0.8300907911802854
0.14648661020828566
-0.14648661020828566
-7.080186160067139
-60.2059967956054
-228.17730983443963
-465.1926451514458
-589.9015793087663
-523.78728923476
-369.19508659494926
-239.50560769054704
-165.28572518501565
-120.94911116197451
-86.57358663309682
-65.08888380254825
-50.14724956130312
-33.74074921797513
-23.19371328297856
-19.678034637979707
-13.525597009231708
-7.568474860761425
-7.177843900205997
-5.810635538261997
-1.7090104524299992
27.68596932936599
170.1686121919585
426.129549095903
598.1048294804303
557.283894102388
399.76195925841154
257.7676050965133
175.24681467917907
128.37109941252766
92.04242008087282
68.60456244754711
53.85824368657969
36.96345464255741
24.560921644922562
20.654612039368278
14.990463111314565
8.05676356145571
7.373159380483711
6.884870679789426
2.490272373540856
-9.619287403677424
-67.23735408560312
-223.39208056763562
-443.02433813992525
-571.0536354619669
-522.5177386129549
-378.6678873884184
-246.4393072404059
-167.33653772793164
-123.68352788586252
-88.81971465629053
-64.3076218814374
-50.635538261997404
-35.889219501029984
-22.998397802700847
-19.092088197146563
-14.892805371175708
-7.763790341039139
-6.005951018539712
-6.39658197909514
-2.5879301136797133
-0.9277485313191425
-2.8809033340962844
-1.416037232013428
0.8300907911802854
-0.6347753109025711
-0.8300907911802854
1.513694972152285
1.0254062714579995
-0.6347753109025711
0.7324330510414282
1.2207217517357138
-0.34180209048599985
0.24414435034714274
1.513694972152285
0.43945983062485694
0.04882887006942855
1.2207217517357138
0.537117570763714
-0.24414435034714274
0.6347753109025711
1.0254062714579995
0.04882887006942855
0.537117570763714
16.55298695353628
57.66689555199512
93.01899748226138
133.25398641947052
234.81803616388189
332.9640650034333
345.7572289616236
339.311818112459
350.54245822842756
329.1554131380179
260.40436408026244
173.3913176165408
114.21072709239338
89.50331883726253
64.11230640115969
40.38147554741741
35.10795757991913
28.66254673075456
13.81857022964828
11.08415350576028
13.525597009231708
5.420004577706569
1.416037232013428
6.298924238956283
3.466849774929427
-1.9043259327077133
1.9043259327077133
3.1738765545128556
-1.9043259327077133
-0.7324330510414282
2.68558785381857
-0.7324330510414282
-2.0996414129854277
1.6113527122911422
0.43945983062485694
-2.392614633401999
0.14648661020828566
1.2207217517357138
-1.8066681925688564
-0.9277485313191425
1.3183794918745708
-0.7324330510414282
-1.6113527122911422
0.7324330510414282
0.04882887006942855
-1.6113527122911422
0.04882887006942855
0.537117570763714
-1.3183794918745708
-0.7324330510414282
0.6347753109025711
-0.6347753109025711
-1.1230640115968566
0.34180209048599985
-0.04882887006942855
-1.1230640115968566
-0.04882887006942855
0.24414435034714274
-0.8300907911802854
-0.537117570763714
0.24414435034714274
-0.537117570763714
-0.8300907911802854
0.04882887006942855
-0.14648661020828566
-0.8300907911802854
-0.14648661020828566
0.04882887006942855
-0.6347753109025711
-0.43945983062485694
0.04882887006942855
-0.43945983062485694
-0.6347753109025711
-0.04882887006942855
-0.14648661020828566
-0.6347753109025711
-0.24414435034714274
-16.84596017395285
-125.92965590905622
-361.6754406042573
-567.4402990768292
-579.7451743343252
-442.34073395895325
-289.6040283817807
-193.50881208514534
-140.96894789044023
-99.95269703212024
-72.60852979324025
-58.25284199282826
-41.065079728389414
-25.92813000686656
-22.021820401312276
-17.334248874647134
-8.545052262149996
-6.982528419928283
-7.763790341039139
-2.783245593957427
-0.8300907911802854
-3.5645075150682843
-1.7090104524299992
1.1230640115968566
-1.0254062714579995
-1.416037232013428
1.7090104524299992
0.8300907911802854
-1.1230640115968566
0.7324330510414282
1.3183794918745708
-0.7324330510414282
0.04882887006942855
1.6113527122911422
0.14648661020828566
-0.14648661020828566
1.416037232013428
0.7324330510414282
-0.34180209048599985
0.9277485313191425
1.2207217517357138
-0.04882887006942855
0.34180209048599985
1.3183794918745708
0.24414435034714274
0.04882887006942855
1.1230640115968566
0.6347753109025711
-0.04882887006942855
0.7324330510414282
34.717326619363696
139.89471274891278
276.81086442359043
397.51583123521783
478.6694132906081
472.8099488822767
383.16014343480583
268.8029297322042
177.39528496223392
125.5390249485008
94.67917906462196
66.84672312504769
48.38941023880369
38.818951705195694
26.709391927977418
16.84596017395285
14.795147631036851
11.377126726176853
5.322346837567712
4.834058136873426
5.322346837567712
1.6113527122911422
0.537117570763714
2.490272373540856
0.9277485313191425
-0.8300907911802854
0.8300907911802854
0.9277485313191425
-1.0254062714579995
-0.24414435034714274
0.8300907911802854
-0.6347753109025711
-0.8300907911802854
0.537117570763714
-0.24414435034714274
-1.2207217517357138
0.04882887006942855
0.14648661020828566
-1.0254062714579995
-0.34180209048599985
0.24414435034714274
-0.6347753109025711
-0.7324330510414282
0.14648661020828566
-0.24414435034714274
-0.8300907911802854
-0.04882887006942855
-0.04882887006942855
-49.75661860074769
-211.67315175097275
-404.25421530479895
-493.31807431143665
-474.0794995040818
-397.418173495079
-304.15503166247044
-219.2904554818036
-129.73830777447165
2.68558785381857
179.64141298542762
341.65560387579154
438.9227130540932
444.19623102159153
368.706797894255
269.1935606927596
179.54375524528876
118.89829861905852
91.8471046005951
69.67879758907453
45.362020294499125
35.10795757991913
29.736781872281988
17.041275654230564
10.986495765621424
12.646677347981994
7.373159380483711
1.9043259327077133
4.834058136873426
4.345769436179141
-0.537117570763714
0.7324330510414282
3.076218814373999
-22.90074006256199
-116.16388189517052
-253.08003356984818
-356.01129167620354
-411.57854581521326
-434.33279926756694
-404.44953078507666
-323.3936064698253
-223.58739604791333
-147.41435873960478
-109.32784008545052
-81.69069962615396
-54.346532387273975
-41.74868390936141
-34.52201113908598
-20.55695429922942
-13.330281528953995
-14.306858930342566
-8.74036774242771
-2.8809033340962844
-5.322346837567712
-4.834058136873426
0.34180209048599985
-0.6347753109025711
-2.9785610742351416
0.537117570763714
1.416037232013428
-1.6113527122911422
-0.04882887006942855
2.197299153124285
-0.24414435034714274
-0.6347753109025711
1.9043259327077133
0.7324330510414282
-0.8300907911802854
1.1230640115968566
1.416037232013428
-0.537117570763714
0.34180209048599985
1.8066681925688564
0.24414435034714274
-0.04882887006942855
1.416037232013428
0.6347753109025711
-0.34180209048599985
0.9277485313191425
1.2207217517357138
-0.04882887006942855
0.43945983062485694
1.2207217517357138
0.24414435034714274
0.04882887006942855
39.79552910658427
159.52391851682307
275.83428702220186
311.4793621728847
344.5853360799573
392.92591744869156
375.2498664835584
302.10421911955444
229.54451819638362
178.7624933241779
142.33615625238423
98.48783093003739
62.64744029907683
52.49103532463569
40.67444876783398
21.533531700617992
18.21316853589685
18.89677271686885
7.959105821316854
3.7598229953459983
9.033340962844282
4.443427176317998
-1.416037232013428
3.36919203479057
3.8574807354848555
-2.197299153124285
-0.14648661020828566
3.2715342946517127
-1.2207217517357138
-2.0996414129854277
2.197299153124285
0.24414435034714274
-2.68558785381857
0.7324330510414282
1.3183794918745708
-2.197299153124285
-0.6347753109025711
1.6113527122911422
-1.0254062714579995
-1.6113527122911422
1.0254062714579995
-0.04882887006942855
-1.9043259327077133
0.24414435034714274
0.6347753109025711
-1.513694972152285
-0.537117570763714
0.8300907911802854
-0.8300907911802854
-1.1230640115968566
0.537117570763714
-0.14648661020828566
-1.3183794918745708
0.04882887006942855
0.24414435034714274
-12.84199282825971
-47.11985961699855
-71.53429465171283
-75.04997329671168
-100.0503547722591
-110.20675974670024
-34.81498435950255
70.06942854962998
114.01541161211567
90.57755397878996
49.658960860608836
32.27588311589227
26.90470740825513
14.795147631036851
9.912260624093996
12.939650568398566
7.275501640344854
1.1230640115968566
4.931715877012284
4.541084916456855
-1.1230640115968566
0.6347753109025711
3.466849774929427
-0.8300907911802854
-1.513694972152285
2.197299153124285
0.24414435034714274
-10.79118028534371
-65.28419928282597
-228.4702830548562
-457.0870527199207
-579.0615701533532
-519.4903486686503
-373.29671168078124
-244.48615243762876
-166.16464484626536
-121.63271534294651
-88.52674143587396
-64.89356832227054
-49.658960860608836
-35.4009308003357
-23.779659723811704
-18.60379949645228
-14.11154345006485
-8.349736781872283
-6.201266498817426
-5.615320057984283
-2.8809033340962844
-1.513694972152285
-2.2949568932631417
-1.1230640115968566
0.43945983062485694
-0.24414435034714274
-0.34180209048599985
0.8300907911802854
0.43945983062485694
-0.34180209048599985
0.537117570763714
0.9277485313191425
0.04882887006942855
0.34180209048599985
1.1230640115968566
0.34180209048599985
0.04882887006942855
0.8300907911802854
0.537117570763714
0.04882887006942855
0.7324330510414282
0.9277485313191425
0.34180209048599985
0.43945983062485694
0.8300907911802854
15.283436331731137
60.49897001602197
118.41000991836424
205.0324254215305
352.983901731899
466.65751125352864
447.2236209658961
356.3042648966201
277.103837644007
219.2904554818036
167.04356450751507
114.11306935225453
78.6633096818494
62.84275577935454
44.580758373388264
27.783627069504846
24.17029068436713
19.48271915770199
9.326314183260854
7.666132600900283
9.228656443121995
3.466849774929427
0.8300907911802854
4.248111696040284
2.197299153124285
-1.3183794918745708
1.3183794918745708
2.0019836728465705
-1.513694972152285
-0.537117570763714
1.8066681925688564
-0.6347753109025711
-1.513694972152285
1.0254062714579995
0.14648661020828566
-1.8066681925688564
0.04882887006942855
0.6347753109025711
-1.416037232013428
-0.6347753109025711
0.8300907911802854
-0.6347753109025711
-1.1230640115968566
0.43945983062485694
0.04882887006942855
-1.2207217517357138
-0.04882887006942855
0.24414435034714274
-13.427939269092851
-47.90112153810941
-65.08888380254825
-53.467612726024264
-82.17898832684826
-144.6799420157168
-150.53940642404822
-131.98443579766536
-159.0356298161288
-165.96932936598765
-121.14442664225223
-92.5307087815671
-52.881666285191116
55.713740749217976
172.41474021515222
222.90379186694133
202.8839551384756
159.62157625696193
133.35164415960938
100.44098573281453
56.59266041046769
42.529945830472265
41.943999389639124
22.119478141451133
11.181811245899137
18.799114976729992
11.572442206454566
-0.14648661020828566
6.494239719233997
8.44739452201114
-2.2949568932631417
-0.24414435034714274
6.494239719233997
-0.7324330510414282
-3.5645075150682843
-12.939650568398566
-115.48027771419852
-338.8235294117647
-539.5101853971161
-573.5927367055772
-461.0910200656138
-308.64728770885785
-200.73548485542076
-146.82841229877164
-107.08171206225681
-73.78042267490653
-58.643472953383686
-45.654993514915695
-27.295338368810558
-20.16632333867399
-19.18974593728542
-10.400549324788281
-4.931715877012284
-7.763790341039139
-5.127031357289998
0.04882887006942855
-2.392614633401999
-3.5645075150682843
1.0254062714579995
0.6347753109025711
-2.197299153124285
0.6347753109025711
2.0019836728465705
-1.0254062714579995
-0.24414435034714274
2.2949568932631417
0.14648661020828566
-0.8300907911802854
1.7090104524299992
1.2207217517357138
-0.8300907911802854
0.7324330510414282
1.6113527122911422
-0.24414435034714274
0.14648661020828566
1.8066681925688564
0.43945983062485694
-0.14648661020828566
1.1230640115968566
0.7324330510414282
-0.43945983062485694
0.537117570763714
19.58037689784085
78.76096742198825
150.73472190432594
215.18883039597162
302.98313878080415
368.80445563439383
355.2300297550927
323.49126420996413
307.6707103074693
272.51392385748073
210.50125886930647
139.79705500877392
92.82368200198367
73.68276493476768
52.881666285191116
32.86182955672541
28.66254673075456
23.58434424353399
11.181811245899137
8.935683222705425
11.181811245899137
4.345769436179141
0.9277485313191425
5.127031357289998
2.8809033340962844
-1.7090104524299992
1.416037232013428
2.68558785381857
-1.7090104524299992
-0.7324330510414282
2.2949568932631417
-0.6347753109025711
-1.9043259327077133
1.3183794918745708
0.34180209048599985
-2.0996414129854277
0.14648661020828566
1.0254062714579995
-1.6113527122911422
-0.9277485313191425
1.0254062714579995
-0.7324330510414282
-1.416037232013428
0.6347753109025711
0.04882887006942855
-1.416037232013428
-0.04882887006942855
0.537117570763714
-1.0254062714579995
-0.6347753109025711
0.43945983062485694
-0.6347753109025711
-1.0254062714579995
0.14648661020828566
-0.04882887006942855
-1.0254062714579995
-0.14648661020828566
0.14648661020828566
-0.7324330510414282
-0.537117570763714
0.14648661020828566
-0.43945983062485694
-0.7324330510414282
0.04882887006942855
-0.14648661020828566
-0.7324330510414282
-0.24414435034714274
-0.04882887006942855
-0.6347753109025711
-0.43945983062485694
0.04882887006942855
-0.43945983062485694
-0.537117570763714
-0.04882887006942855
-0.24414435034714274
-0.537117570763714
-0.24414435034714274
-0.04882887006942855
-0.43945983062485694
-0.34180209048599985
-0.04882887006942855
-0.34180209048599985
-20.752269779507134
-96.24170290684367
-225.05226214999618
-374.5662623025864
-490.8766308079652
-502.98619058518346
-410.406652933547
-286.7719539177539
-190.1884489204242
-133.35164415960938
-98.87846189059282
-45.947966735332265
62.2568093385214
166.35996032654307
165.3833829251545
71.63195239185168
-43.40886549172198
-123.58587014572366
-139.6017395284962
-116.26153963530938
-80.9094377050431
-47.31517509727627
-32.6665140764477
-28.66254673075456
-18.21316853589685
-10.79118028534371
-11.963073167009995
-8.349736781872283
-2.197299153124285
-3.8574807354848555
-4.638742656595713
0.04882887006942855
0.04882887006942855
-2.5879301136797133
0.14648661020828566
1.8066681925688564
-1.1230640115968566
-0.6347753109025711
1.9043259327077133
0.14648661020828566
-0.7324330510414282
1.7090104524299992
1.2207217517357138
-0.8300907911802854
0.6347753109025711
1.6113527122911422
-0.14648661020828566
0.04882887006942855
1.6113527122911422
0.43945983062485694
-0.14648661020828566
1.3183794918745708
1.0254062714579995
-0.14648661020828566
0.7324330510414282
1.2207217517357138
0.04882887006942855
0.24414435034714274
27.392996108949415
119.48424505989166
246.24399176012818
356.40192263675897
447.2236209658961
478.6694132906081
414.8989089799344
301.42061493858245
198.09872587167163
135.50011444266423
102.88242923628596
73.78042267490653
51.416800183108265
41.651026169222554
30.615701533531702
18.11551079575799
14.990463111314565
13.330281528953995
6.298924238956283
4.052796215762569
6.005951018539712
2.783245593957427
0.04882887006942855
2.392614633401999
1.9043259327077133
-1.1230640115968566
0.24414435034714274
1.6113527122911422
-0.8300907911802854
-0.9277485313191425
1.1230640115968566
-0.14648661020828566
-1.513694972152285
0.34180209048599985
0.24414435034714274
-10.693522545204852
-47.80346379797055
-113.2341496910048
-212.35675593194478
-359.2339971007858
-487.4586099031052
-497.9079880979629
-400.3479056992447
-277.2991531242847
-188.72358281834136
-137.64858472571908
-98.58548867017625
-69.19050888838025
-54.44419012741283
-40.67444876783398
-25.537499046311133
-19.678034637979707
-16.748302433813993
-9.130998702983138
-5.615320057984283
-6.982528419928283
-3.9551384756237127
-0.6347753109025711
-2.5879301136797133
35.596246280613414
200.6378271152819
453.0830853742275
598.4954604409858
543.0258640421149
383.55077439536126
245.16975661860076
170.3639276722362
125.92965590905622
87.64782177462425
66.45609216449226
53.760585946440834
34.91264209964141
22.803082322423133
21.43587396047913
14.697489890897993
6.591897459372854
7.861448081177996
7.470817120622568
1.416037232013428
1.513694972152285
4.150453955901427
0.43945983062485694
-38.72129396505684
-182.96177615014878
-410.01602197299155
-561.3855191882201
-538.8265812161441
-406.30502784771494
-275.053025101091
-187.25871671625848
-131.2031738765545
-95.55809872587167
-72.99916075379568
-53.467612726024264
-36.96345464255741
-27.588311589227132
-20.752269779507134
-13.427939269092851
-9.81460288395514
-8.349736781872283
-5.0293736171511405
-2.783245593957427
-2.9785610742351416
-1.9043259327077133
-0.14648661020828566
-0.6347753109025711
-0.9277485313191425
0.24414435034714274
0.24414435034714274
-0.24414435034714274
0.537117570763714
1.0254062714579995
0.14648661020828566
0.24414435034714274
0.9277485313191425
0.43945983062485694
0.14648661020828566
0.8300907911802854
0.7324330510414282
0.14648661020828566
0.6347753109025711
0.9277485313191425
0.34180209048599985
0.43945983062485694
0.8300907911802854
0.537117570763714
0.43945983062485694
0.8300907911802854
0.6347753109025711
18.017853055619135
122.41397726405738
334.3312733653773
509.5292591744869
523.8849469748989
429.15693904020753
319.2919813839933
234.42740520332646
170.75455863279163
117.82406347753108
84.71808957045853
66.55374990463112
46.533913176165406
30.71335927367056
25.92813000686656
19.385061417563133
10.302891584649425
9.033340962844282
8.838025482566568
3.466849774929427
1.9043259327077133
4.150453955901427
1.6113527122911422
-0.7324330510414282
1.513694972152285
1.416037232013428
-1.2207217517357138
0.04882887006942855
1.3183794918745708
-0.8300907911802854
-0.9277485313191425
0.9277485313191425
-0.14648661020828566
-1.416037232013428
0.14648661020828566
0.24414435034714274
-1.2207217517357138
-0.34180209048599985
0.43945983062485694
-0.7324330510414282
-0.8300907911802854
0.34180209048599985
-0.24414435034714274
-1.0254062714579995
0.04882887006942855
0.04882887006942855
-0.9277485313191425
-0.34180209048599985
0.14648661020828566
-0.6347753109025711
-0.6347753109025711
0.04882887006942855
-0.24414435034714274
-0.7324330510414282
-0.04882887006942855
-0.04882887006942855
-0.6347753109025711
-0.34180209048599985
-0.04882887006942855
-0.537117570763714
-0.537117570763714
-0.04882887006942855
-0.34180209048599985
-0.537117570763714
-0.14648661020828566
-0.14648661020828566
-0.537117570763714
-0.34180209048599985
-0.04882887006942855
-0.43945983062485694
-0.43945983062485694
-0.14648661020828566
-0.34180209048599985
-0.537117570763714
-0.24414435034714274
-0.24414435034714274
-2.9785610742351416
-43.604180971999696
-182.4734874494545
-392.632944228275
-541.4633401998932
-536.9710841535058
-417.3403524834058
-283.7445639734493
-191.75097276264592
-135.3047989623865
-97.70656900892652
-72.90150301365682
-54.83482108796826
-38.818951705195694
-27.588311589227132
-21.045242999923705
-14.892805371175708
-9.619287403677424
-7.666132600900283
-5.908293278400855
-3.1738765545128556
-2.392614633401999
-2.2949568932631417
-0.8300907911802854
-0.04882887006942855
-0.537117570763714
0.04882887006942855
0.6347753109025711
0.04882887006942855
0.04882887006942855
0.6347753109025711
0.537117570763714
0.04882887006942855
0.537117570763714
0.7324330510414282
0.34180209048599985
0.537117570763714
0.8300907911802854
0.43945983062485694
0.24414435034714274
0.7324330510414282
0.7324330510414282
0.537117570763714
0.7324330510414282
0.8300907911802854
0.43945983062485694
0.537117570763714
0.7324330510414282
0.537117570763714
0.537117570763714
0.8300907911802854
28.076600289921416
162.55130846112763
402.20340276188296
569.1004806591898
546.9321736476692
411.6762035553521
277.5921263447013
192.04394598306249
138.7228198672465
97.41359578850995
72.80384527351796
57.37392233157855
38.818951705195694
26.123445487144274
22.510109102006563
15.869382772564279
8.349736781872283
8.252079041733426
7.373159380483711
2.392614633401999
2.0019836728465705
3.7598229953459983
0.8300907911802854
-0.537117570763714
1.7090104524299992
0.8300907911802854
-1.416037232013428
0.24414435034714274
0.9277485313191425
-1.1230640115968566
-0.6347753109025711
0.8300907911802854
-0.537117570763714
-1.1230640115968566
0.43945983062485694
0.04882887006942855
-1.2207217517357138
-0.14648661020828566
0.24414435034714274
-0.9277485313191425
-0.6347753109025711
0.34180209048599985
-0.43945983062485694
-0.8300907911802854
0.04882887006942855
-0.04882887006942855
-0.8300907911802854
-0.14648661020828566
-3.5645075150682843
-62.9404135194934
-229.64217593652248
-406.01205462729837
-466.7551689936675
-441.16884107728697
-385.60158693827725
-311.38170443274583
-230.13046463721676
-143.3127336537728
-27.68596932936599
135.20714122224766
310.40512703135727
438.5320820935378
466.16922255283436
394.1954680704967
287.94384679942016
190.8720531013962
125.63668268863965
96.72999160753795
73.58510719462882
48.09643701838712
37.256427862973986
31.396963454642556
18.11551079575799
11.670099946593423
13.427939269092851
7.959105821316854
2.197299153124285
5.127031357289998
4.736400396734569
-0.537117570763714
0.7324330510414282
3.2715342946517127
-0.43945983062485694
-31.2993057145037
-146.53543907835507
-346.4408331425956
-518.5137712672617
-548.7876707103075
-446.9306477454795
-311.6746776531624
-207.4738689250019
-142.92210269321737
-105.32387273975738
-78.46799420157168
-56.690318150606544
-41.74868390936141
-30.908674753948272
-21.338216220340275
-15.185778591592278
-11.865415426871138
-8.154421301594567
-5.127031357289998
-4.248111696040284
-2.9785610742351416
-1.3183794918745708
-1.1230640115968566
-1.1230640115968566
-0.04882887006942855
0.14648661020828566
-0.14648661020828566
0.14648661020828566
0.537117570763714
0.04882887006942855
0.04882887006942855
0.6347753109025711
0.43945983062485694
0.14648661020828566
0.537117570763714
0.6347753109025711
0.34180209048599985
0.537117570763714
0.7324330510414282
0.43945983062485694
0.34180209048599985
0.6347753109025711
0.537117570763714
0.43945983062485694
0.7324330510414282
0.6347753109025711
0.43945983062485694
0.6347753109025711
0.7324330510414282
0.537117570763714
0.43945983062485694
52.78400854505226
232.2789349202716
448.20019836728466
530.3303578240635
475.15373464560923
372.2224765392538
276.7132066834516
202.20035095750362
139.50408178835735
96.72999160753795
76.12420843823911
55.90905622949569
35.79156176089113
28.66254673075456
23.58434424353399
12.84199282825971
9.130998702983138
10.498207064927138
5.322346837567712
1.513694972152285
4.345769436179141
3.1738765545128556
-0.8300907911802854
0.9277485313191425
2.2949568932631417
-0.9277485313191425
-0.8300907911802854
1.6113527122911422
-0.14648661020828566
-1.6113527122911422
0.7324330510414282
0.43945983062485694
-1.6113527122911422
-0.14648661020828566
0.8300907911802854
-1.1230640115968566
-0.9277485313191425
0.6347753109025711
-0.43945983062485694
-1.2207217517357138
0.24414435034714274
0.04882887006942855
-1.1230640115968566
-0.24414435034714274
0.34180209048599985
-0.7324330510414282
-0.6347753109025711
0.24414435034714274
-0.43945983062485694
-0.9277485313191425
0.04882887006942855
-0.04882887006942855
-0.8300907911802854
-0.24414435034714274
0.04882887006942855
-0.6347753109025711
-0.537117570763714
0.04882887006942855
-0.34180209048599985
-0.6347753109025711
-0.04882887006942855
-0.14648661020828566
-0.7324330510414282
-0.34180209048599985
-0.04882887006942855
-0.537117570763714
-0.43945983062485694
-0.04882887006942855
-0.34180209048599985
-0.537117570763714
-0.14648661020828566
-0.14648661020828566
-0.537117570763714
-0.24414435034714274
-0.14648661020828566
-0.43945983062485694
-0.43945983062485694
-0.24414435034714274
-26.709391927977418
-163.03959716182192
-414.11764705882354
-593.6125734340429
-564.3152513923858
-408.5511558709087
-262.5528343633173
-178.86015106431677
-131.59380483710993
-92.92133974212253
-69.19050888838025
-55.420767528801406
-37.256427862973986
-23.974975204089418
-21.24055848020142
-15.47875181200885
-7.373159380483711
-7.373159380483711
-7.373159380483711
-1.9043259327077133
-1.1230640115968566
-3.5645075150682843
-0.8300907911802854
1.1230640115968566
-1.416037232013428
-0.8300907911802854
1.8066681925688564
0.14648661020828566
-1.1230640115968566
1.3183794918745708
1.1230640115968566
-0.6347753109025711
0.6347753109025711
1.7090104524299992
-0.14648661020828566
0.04882887006942855
1.513694972152285
0.43945983062485694
-0.24414435034714274
1.0254062714579995
0.8300907911802854
-0.24414435034714274
0.6347753109025711
1.3183794918745708
0.14648661020828566
0.24414435034714274
1.3183794918745708
10.498207064927138
78.85862516212711
262.748149843595
488.6305027847715
584.9210345616846
503.66979476615546
350.34714274814985
227.98199435416188
159.32860303654536
116.45685511558709
83.25322346837568
63.33104448004883
48.68238345922026
32.37354085603113
22.803082322423133
19.385061417563133
12.84199282825971
7.275501640344854
7.470817120622568
5.71297779812314
1.7090104524299992
2.0996414129854277
2.8809033340962844
0.24414435034714274
-0.14648661020828566
1.513694972152285
0.24414435034714274
-1.0254062714579995
0.43945983062485694
0.43945983062485694
-1.1230640115968566
-0.34180209048599985
0.43945983062485694
-0.7324330510414282
-0.8300907911802854
0.34180209048599985
-0.24414435034714274
-0.9277485313191425
0.04882887006942855
0.04882887006942855
-0.8300907911802854
-0.34180209048599985
0.14648661020828566
-0.6347753109025711
-0.7324330510414282
0.04882887006942855
-0.34180209048599985
-0.7324330510414282
-0.04882887006942855
-0.04882887006942855
-0.6347753109025711
-0.34180209048599985
0.04882887006942855
-0.43945983062485694
-0.537117570763714
-0.04882887006942855
-0.24414435034714274
-0.537117570763714
-0.14648661020828566
-0.24414435034714274
-0.537117570763714
-0.34180209048599985
-0.14648661020828566
-0.43945983062485694
-0.43945983062485694
-0.14648661020828566
-0.34180209048599985
-0.43945983062485694
-0.14648661020828566
-0.14648661020828566
-0.43945983062485694
-0.34180209048599985
-0.24414435034714274
-0.43945983062485694
-0.43945983062485694
-0.24414435034714274
-0.34180209048599985
-0.43945983062485694
-0.24414435034714274
-25.537499046311133
-150.63706416418708
-383.062485694667
-565.4871442740521
-563.4363317311361
-427.5944151979858
-282.4750133516442
-190.28610666056306
-137.3556115053025
-97.80422674906538
-72.41321431296254
-56.88563363088426
-39.600213626306555
-26.025787747005417
-21.533531700617992
-15.967040512703136
-8.642710002288853
-7.470817120622568
-7.177843900205997
-2.783245593957427
-1.416037232013428
-3.076218814373999
-1.0254062714579995
0.8300907911802854
-0.9277485313191425
-0.8300907911802854
1.2207217517357138
0.24414435034714274
-0.6347753109025711
1.0254062714579995
1.0254062714579995
-0.34180209048599985
0.43945983062485694
1.3183794918745708
0.04882887006942855
0.04882887006942855
1.416037232013428
0.7324330510414282
-0.04882887006942855
0.8300907911802854
0.9277485313191425
0.04882887006942855
0.537117570763714
1.1230640115968566
0.24414435034714274
0.24414435034714274
1.0254062714579995
0.537117570763714
0.14648661020828566
0.7324330510414282
0.7324330510414282
0.14648661020828566
0.537117570763714
0.9277485313191425
0.34180209048599985
0.34180209048599985
15.967040512703136
83.6438544289311
186.37979705500877
257.47463187609674
323.9795529106584
410.406652933547
433.2585641260395
370.56229495689325
279.838254367895
201.61440451667048
150.44174868390937
108.83955138475623
72.12024109254597
55.32310978866255
44.67841611352712
27.49065384908827
18.89677271686885
18.701457236591136
11.377126726176853
4.834058136873426
7.373159380483711
6.005951018539712
0.24414435034714274
1.7090104524299992
3.8574807354848555
-0.34180209048599985
-0.9277485313191425
2.2949568932631417
0.14648661020828566
-2.0019836728465705
0.8300907911802854
1.0254062714579995
-1.8066681925688564
-0.34180209048599985
1.2207217517357138
-1.0254062714579995
-1.2207217517357138
0.9277485313191425
-0.14648661020828566
-1.513694972152285
0.24414435034714274
0.24414435034714274
-1.3183794918745708
-0.43945983062485694
0.537117570763714
-0.8300907911802854
-0.9277485313191425
0.43945983062485694
-0.24414435034714274
-1.0254062714579995
0.04882887006942855
0.04882887006942855
-0.9277485313191425
-0.34180209048599985
0.14648661020828566
-0.7324330510414282
-0.7324330510414282
0.04882887006942855
-0.24414435034714274
-0.8300907911802854
-0.04882887006942855
0.04882887006942855
-0.7324330510414282
-0.34180209048599985
0.04882887006942855
-0.43945983062485694
-0.537117570763714
-0.04882887006942855
-0.34180209048599985
-0.6347753109025711
-0.14648661020828566
-0.14648661020828566
-0.537117570763714
-0.34180209048599985
-0.04882887006942855
-6.787212939650568
-70.65537499046312
-250.34561684596017
-470.27084763866634
-569.3934538796063
-504.1580834668498
-363.33562218661785
-243.02128633554588
-168.9967193102922
-120.26550698100252
-86.76890211337454
-66.65140764476998
-49.46364538033112
-33.252460517280845
-24.756237125200276
-19.58037689784085
-12.256046387426567
-8.154421301594567
-7.763790341039139
-4.834058136873426
-1.9043259327077133
-2.68558785381857
-2.197299153124285
0.04882887006942855
-0.24414435034714274
-1.1230640115968566
0.43945983062485694
0.7324330510414282
-0.34180209048599985
0.34180209048599985
1.3183794918745708
0.14648661020828566
0.04882887006942855
1.1230640115968566
0.6347753109025711
-0.04882887006942855
0.7324330510414282
0.8300907911802854
0.04882887006942855
0.43945983062485694
1.1230640115968566
0.43945983062485694
0.34180209048599985
0.9277485313191425
0.6347753109025711
0.14648661020828566
0.6347753109025711
0.6347753109025711
0.14648661020828566
2.9785610742351416
26.90470740825513
115.28496223392081
296.24475471122304
493.80636301213093
565.3894865339132
478.6694132906081
333.4523537041276
219.2904554818036
152.68787670710307
111.37865262836652
80.9094377050431
60.8896009765774
45.85030899519341
31.494621194781413
22.412451361867703
17.82253757534142
12.158388647287708
7.666132600900283
6.787212939650568
5.0293736171511405
2.197299153124285
2.0019836728465705
2.2949568932631417
0.537117570763714
0.04882887006942855
1.0254062714579995
0.14648661020828566
-0.537117570763714
0.24414435034714274
0.14648661020828566
-0.6347753109025711
-0.24414435034714274
0.14648661020828566
-0.537117570763714
-0.6347753109025711
0.04882887006942855
-0.24414435034714274
-0.7324330510414282
-0.04882887006942855
-0.04882887006942855
-0.6347753109025711
-0.34180209048599985
0.04882887006942855
-0.43945983062485694
-0.537117570763714
-0.04882887006942855
-0.34180209048599985
-0.6347753109025711
-0.24414435034714274
-0.14648661020828566
-0.537117570763714
-0.34180209048599985
-0.14648661020828566
-0.34180209048599985
-0.43945983062485694
-0.14648661020828566
-0.24414435034714274
-0.43945983062485694
-0.24414435034714274
-0.24414435034714274
-0.43945983062485694
-0.34180209048599985
-0.24414435034714274
-0.43945983062485694
-0.34180209048599985
-0.24414435034714274
-0.34180209048599985
-0.43945983062485694
-0.24414435034714274
-0.24414435034714274
-0.34180209048599985
-30.518043793392845
-146.53543907835507
-338.628213931487
-507.7714198519875
-548.4946974898909
-453.37605859464406
-315.97161821927216
-210.50125886930647
-145.85183489738307
-106.2027924010071
-78.6633096818494
-58.44815747310597
-42.72526131074998
-30.322728313115128
-21.92416266117342
-16.064698252841993
-11.181811245899137
-7.861448081177996
-5.908293278400855
-4.150453955901427
-2.5879301136797133
-1.8066681925688564
-1.3183794918745708
-0.537117570763714
-0.24414435034714274
-0.14648661020828566
0.04882887006942855
0.24414435034714274
0.14648661020828566
0.24414435034714274
0.43945983062485694
0.34180209048599985
0.34180209048599985
0.6347753109025711
0.6347753109025711
0.43945983062485694
0.537117570763714
0.6347753109025711
0.537117570763714
0.6347753109025711
0.7324330510414282
0.6347753109025711
0.43945983062485694
0.537117570763714
0.537117570763714
0.537117570763714
0.537117570763714
0.537117570763714
0.537117570763714
0.537117570763714
0.537117570763714
0.43945983062485694
12.646677347981994
55.81139848935683
147.6096742198825
307.76836804760813
459.43083848325324
478.8647287708858
401.2268253604944
320.3662165255207
251.6151674677653
189.89547570000764
132.76569771877624
90.08926527809568
69.48348210879682
52.10040436408026
33.3501182574197
25.732814526588847
22.021820401312276
12.45136186770428
7.959105821316854
9.42397192339971
5.517662317845426
1.2207217517357138
3.5645075150682843
3.2715342946517127
-0.537117570763714
0.34180209048599985
2.197299153124285
-0.537117570763714
-1.1230640115968566
1.3183794918745708
0.04882887006942855
-1.6113527122911422
0.34180209048599985
0.6347753109025711
-1.3183794918745708
-0.43945983062485694
0.8300907911802854
-0.7324330510414282
-1.0254062714579995
0.43945983062485694
-0.24414435034714274
-1.2207217517357138
0.04882887006942855
0.14648661020828566
-1.0254062714579995
-0.43945983062485694
0.34180209048599985
-0.6347753109025711
-0.7324330510414282
0.14648661020828566
-0.24414435034714274
-0.8300907911802854
-0.04882887006942855
0.04882887006942855
-18.799114976729992
-62.9404135194934
-76.31952391851682
-26.709391927977418
30.811017013809415
49.46364538033112
35.303273060196844
18.11551079575799
13.13496604867628
9.81460288395514
4.248111696040284
4.345769436179141
5.322346837567712
1.513694972152285
0.34180209048599985
2.5879301136797133
0.9277485313191425
-1.0254062714579995
0.8300907911802854
1.0254062714579995
-1.2207217517357138
-0.24414435034714274
1.0254062714579995
-0.7324330510414282
-1.0254062714579995
0.537117570763714
-0.14648661020828566
-15.185778591592278
-75.73357747768368
-211.86846723125046
-398.8830395971618
-530.1350423437858
-519.1973754482337
-402.9846646829938
-273.4905012588693
-182.57114518959335
-130.5195696955825
-95.85107194628824
-69.38582436865796
-52.10040436408026
-38.818951705195694
-26.318760967421987
-19.092088197146563
-15.185778591592278
-9.912260624093996
-6.298924238956283
-5.71297779812314
-3.8574807354848555
-1.416037232013428
-1.6113527122911422
-1.6113527122911422
-0.04882887006942855
0.04882887006942855
-0.6347753109025711
0.14648661020828566
0.7324330510414282
-0.04882887006942855
0.04882887006942855
0.9277485313191425
0.43945983062485694
0.04882887006942855
0.7324330510414282
0.6347753109025711
0.24414435034714274
0.6347753109025711
0.9277485313191425
0.34180209048599985
0.43945983062485694
0.8300907911802854
0.43945983062485694
0.34180209048599985
0.9277485313191425
0.7324330510414282
0.24414435034714274
0.537117570763714
0.8300907911802854
3.662165255207141
18.994430457007706
85.10872053101396
252.49408712901504
444.39154650186924
506.79484245059894
444.9774929427024
355.4253452353704
273.78347447928587
203.86053253986418
141.7502098115511
96.72999160753795
75.04997329671168
56.1043717097734
35.889219501029984
27.97894254978256
23.779659723811704
13.330281528953995
8.74036774242771
10.205233844510566
5.810635538261997
1.416037232013428
3.9551384756237127
3.466849774929427
-0.7324330510414282
0.537117570763714
2.392614633401999
-0.6347753109025711
-1.1230640115968566
1.513694972152285
0.04882887006942855
-1.7090104524299992
0.43945983062485694
0.7324330510414282
-1.513694972152285
-0.43945983062485694
0.8300907911802854
-0.9277485313191425
-1.1230640115968566
0.537117570763714
-0.14648661020828566
-1.3183794918745708
0.04882887006942855
0.24414435034714274
-1.0254062714579995
-0.34180209048599985
0.34180209048599985
-0.6347753109025711
-0.7324330510414282
0.24414435034714274
-0.24414435034714274
-0.9277485313191425
-0.04882887006942855
0.04882887006942855
-0.8300907911802854
-0.34180209048599985
0.04882887006942855
-0.537117570763714
-0.6347753109025711
0.04882887006942855
-0.24414435034714274
-0.6347753109025711
-0.14648661020828566
-0.04882887006942855
-0.6347753109025711
-0.34180209048599985
-0.04882887006942855
-0.537117570763714
-0.537117570763714
-0.14648661020828566
-0.24414435034714274
-0.537117570763714
-0.24414435034714274
-0.14648661020828566
-0.43945983062485694
-15.674067292286564
-83.4485389486534
-229.54451819638362
-417.6333257038224
-537.6546883344778
-512.2636758983749
-389.01960784313724
-262.064545662623
-176.80933852140078
-126.80857557030595
-92.43305104142824
-67.82330052643626
-51.31914244296941
-37.06111238269627
-25.24452582589456
-18.994430457007706
-14.306858930342566
-9.130998702983138
-6.6895551995117115
-5.71297779812314
-3.36919203479057
-1.8066681925688564
-2.0996414129854277
-1.2207217517357138
0.04882887006942855
-0.24414435034714274
-0.43945983062485694
0.537117570763714
0.43945983062485694
-0.04882887006942855
0.43945983062485694
0.8300907911802854
0.14648661020828566
0.34180209048599985
0.8300907911802854
0.43945983062485694
0.24414435034714274
0.8300907911802854
0.7324330510414282
0.34180209048599985
0.6347753109025711
0.8300907911802854
0.34180209048599985
0.43945983062485694
0.7324330510414282
0.537117570763714
0.34180209048599985
0.7324330510414282
0.7324330510414282
0.43945983062485694
0.43945983062485694
0.537117570763714
0.34180209048599985
0.537117570763714
36.37750820172427
163.13725490196077
317.436484321355
389.5078965438315
409.33241779201956
416.2661173418784
377.49599450675214
293.3150225070573
198.8799877927825
132.66803997863738
100.53864347295338
73.3897917143511
48.68238345922026
39.307240405889985
31.396963454642556
17.627222095063708
12.939650568398566
13.720912489509422
7.080186160067139
2.68558785381857
5.810635538261997
3.9551384756237127
-0.6347753109025711
1.6113527122911422
2.8809033340962844
-1.0254062714579995
-0.6347753109025711
2.0996414129854277
-0.24414435034714274
-1.7090104524299992
0.9277485313191425
0.43945983062485694
-1.8066681925688564
-0.04882887006942855
0.9277485313191425
-1.2207217517357138
-0.8300907911802854
0.8300907911802854
-0.43945983062485694
-1.3183794918745708
0.43945983062485694
0.04882887006942855
-1.3183794918745708
-0.24414435034714274
0.34180209048599985
-0.9277485313191425
-0.6347753109025711
0.34180209048599985
-0.43945983062485694
-0.9277485313191425
0.14648661020828566
-0.04882887006942855
-0.9277485313191425
-0.14648661020828566
0.14648661020828566
-0.6347753109025711
-0.537117570763714
0.04882887006942855
-0.43945983062485694
-0.7324330510414282
-0.04882887006942855
-0.14648661020828566
-0.7324330510414282
-0.24414435034714274
0.04882887006942855
-0.537117570763714
-0.43945983062485694
-0.04882887006942855
-0.34180209048599985
-0.537117570763714
-0.14648661020828566
-0.14648661020828566
-0.537117570763714
-0.34180209048599985
-0.14648661020828566
-0.537117570763714
-0.43945983062485694
-0.14648661020828566
-0.34180209048599985
-0.43945983062485694
-14.892805371175708
-119.19127183947509
-355.034714274815
-566.7566948958572
-583.4561684596017
-446.63767452506295
-292.3384451056687
-194.68070496681162
-142.04318303196766
-101.12458991378652
-73.3897917143511
-59.03410391393912
-41.943999389639124
-26.123445487144274
-21.728847180895706
-17.334248874647134
-8.642710002288853
-6.787212939650568
-7.861448081177996
-3.1738765545128556
-0.8300907911802854
-3.36919203479057
-1.7090104524299992
1.2207217517357138
-0.8300907911802854
-1.513694972152285
1.3183794918745708
0.7324330510414282
-1.1230640115968566
0.9277485313191425
1.7090104524299992
-0.34180209048599985
0.24414435034714274
1.9043259327077133
0.34180209048599985
-0.24414435034714274
1.3183794918745708
0.9277485313191425
-0.24414435034714274
0.8300907911802854
1.2207217517357138
-0.04882887006942855
0.34180209048599985
1.2207217517357138
0.24414435034714274
0.04882887006942855
1.1230640115968566
0.8300907911802854
0.04882887006942855
1.7090104524299992
49.073014419775696
207.66918440527962
404.25421530479895
489.3141069657435
461.67696650644695
391.7540245670252
308.64728770885785
226.90775921263446
154.4457160296025
106.2027924010071
82.56961928740368
60.30365453574426
39.40489814602884
31.787594415197987
25.537499046311133
14.11154345006485
10.400549324788281
11.279468986037996
5.615320057984283
2.0019836728465705
4.834058136873426
3.1738765545128556
-0.7324330510414282
1.2207217517357138
2.2949568932631417
-1.0254062714579995
-0.6347753109025711
1.7090104524299992
-0.34180209048599985
-1.513694972152285
0.8300907911802854
0.34180209048599985
-1.6113527122911422
-0.04882887006942855
0.7324330510414282
-1.1230640115968566
-0.8300907911802854
0.6347753109025711
-0.537117570763714
-1.2207217517357138
0.24414435034714274
0.04882887006942855
-1.1230640115968566
-0.14648661020828566
0.24414435034714274
-0.8300907911802854
-0.6347753109025711
0.24414435034714274
-0.43945983062485694
-17.627222095063708
-57.56923781185626
-84.22980086976425
-110.79270618753338
-172.0241092545968
-186.67277027542534
-121.92568856336308
-75.83123521782254
-43.89715419241627
50.34256504158083
160.7934691386282
196.8291752498665
150.1487754634928
85.40169375143053
58.8387884336614
48.877698939497975
27.392996108949415
18.89677271686885
23.096055542839704
12.939650568398566
3.1738765545128556
9.228656443121995
7.959105821316854
-1.416037232013428
1.8066681925688564
6.005951018539712
-1.2207217517357138
-2.0019836728465705
4.052796215762569
-18.994430457007706
-127.68749523155566
-327.2022583352407
-503.66979476615546
-542.244602121004
-451.61821927214464
-322.80766002899213
-226.41947051194018
-159.52391851682307
-108.2536049439231
-81.39772640573739
-64.9912260624094
-42.92057679102769
-29.053177691309987
-26.123445487144274
-17.52956435492485
-8.642710002288853
-9.81460288395514
-8.545052262149996
-1.9043259327077133
-2.2949568932631417
-4.638742656595713
-0.34180209048599985
1.1230640115968566
-2.0996414129854277
-0.537117570763714
2.197299153124285
-0.43945983062485694
-1.2207217517357138
1.8066681925688564
0.8300907911802854
-1.0254062714579995
1.0254062714579995
1.6113527122911422
-0.6347753109025711
0.14648661020828566
1.9043259327077133
0.14648661020828566
-0.24414435034714274
1.513694972152285
0.9277485313191425
-0.24414435034714274
0.9277485313191425
1.2207217517357138
-0.14648661020828566
0.34180209048599985
1.3183794918745708
0.24414435034714274
0.04882887006942855
1.2207217517357138
0.8300907911802854
0.04882887006942855
0.6347753109025711
0.8300907911802854
0.04882887006942855
12.45136186770428
88.52674143587396
232.57190814068818
336.87037460898756
369.9763485160601
401.81277180132753
414.31296253910125
360.9918364232853
262.9434653238727
170.94987411306934
119.87487602044709
92.23773556115053
62.84275577935454
44.38544289311055
38.525978484779124
26.123445487144274
14.306858930342566
14.50217441062028
12.060730907148852
3.8574807354848555
4.052796215762569
6.494239719233997
1.2207217517357138
-0.34180209048599985
3.36919203479057
1.2207217517357138
-1.9043259327077133
1.0254062714579995
1.6113527122911422
-1.8066681925688564
-0.6347753109025711
1.6113527122911422
-0.9277485313191425
-1.513694972152285
1.0254062714579995
0.04882887006942855
-1.7090104524299992
0.14648661020828566
0.6347753109025711
-1.416037232013428
-0.537117570763714
0.8300907911802854
-0.7324330510414282
-1.1230640115968566
0.43945983062485694
-0.14648661020828566
-1.2207217517357138
0.04882887006942855
0.24414435034714274
-1.0254062714579995
-0.43945983062485694
0.34180209048599985
-0.537117570763714
-0.8300907911802854
0.14648661020828566
-0.14648661020828566
-0.8300907911802854
-0.04882887006942855
0.04882887006942855
-0.8300907911802854
-0.43945983062485694
0.04882887006942855
-0.43945983062485694
-0.6347753109025711
0.04882887006942855
-0.24414435034714274
-0.6347753109025711
-0.14648661020828566
-0.04882887006942855
-0.537117570763714
-0.34180209048599985
-0.04882887006942855
-0.43945983062485694
-0.43945983062485694
-0.04882887006942855
-0.24414435034714274
-0.537117570763714
-0.24414435034714274
-0.24414435034714274
-0.537117570763714
-0.34180209048599985
-0.14648661020828566
-0.34180209048599985
-0.43945983062485694
-0.14648661020828566
-19.48271915770199
-130.71488517586022
-360.503547722591
-559.8229953459983
-574.4716563668269
-442.34073395895325
-292.143129625391
-195.36430914778362
-141.2619211108568
-100.7339589532311
-73.68276493476768
-58.350499732967116
-41.16273746852827
-26.61173418783856
-21.92416266117342
-16.943617914091707
-8.935683222705425
-7.373159380483711
-7.568474860761425
-3.076218814373999
-1.2207217517357138
-3.1738765545128556
-1.416037232013428
0.9277485313191425
-0.8300907911802854
-1.0254062714579995
1.416037232013428
0.6347753109025711
-0.8300907911802854
0.9277485313191425
1.3183794918745708
-0.43945983062485694
0.14648661020828566
1.416037232013428
0.14648661020828566
-0.04882887006942855
1.2207217517357138
0.7324330510414282
-0.14648661020828566
0.8300907911802854
1.2207217517357138
0.04882887006942855
0.43945983062485694
1.2207217517357138
0.34180209048599985
0.14648661020828566
1.0254062714579995
0.537117570763714
0.04882887006942855
0.7324330510414282
2.5879301136797133
18.21316853589685
100.24567025253681
287.55321583886473
471.9310292210269
507.2831311512932
428.0827038986801
336.87037460898756
261.1856260013733
196.04791332875564
135.9884031433585
93.11665522240024
72.80384527351796
53.56527046616312
34.0337224383917
27.392996108949415
22.90074006256199
12.353704127565424
8.545052262149996
10.10757610437171
5.224689097428855
1.3183794918745708
4.150453955901427
3.076218814373999
-0.9277485313191425
0.7324330510414282
2.2949568932631417
-0.9277485313191425
-0.9277485313191425
1.6113527122911422
-0.14648661020828566
-1.6113527122911422
0.6347753109025711
0.537117570763714
-1.6113527122911422
-0.14648661020828566
0.8300907911802854
-1.0254062714579995
-0.9277485313191425
0.6347753109025711
-0.43945983062485694
-1.3183794918745708
0.14648661020828566
0.14648661020828566
-1.1230640115968566
-0.24414435034714274
0.34180209048599985
-0.7324330510414282
-0.7324330510414282
0.24414435034714274
-0.34180209048599985
-0.8300907911802854
0.04882887006942855
0.04882887006942855
-0.8300907911802854
-0.34180209048599985
0.04882887006942855
-0.6347753109025711
-0.6347753109025711
0.04882887006942855
-0.34180209048599985
-0.6347753109025711
-0.04882887006942855
-0.14648661020828566
-0.6347753109025711
-0.24414435034714274
-0.04882887006942855
-0.43945983062485694
-0.43945983062485694
-0.04882887006942855
-0.34180209048599985
-0.537117570763714
-0.14648661020828566
-0.24414435034714274
-0.537117570763714
-0.34180209048599985
-0.14648661020828566
-2.5879301136797133
-41.16273746852827
-158.5473411154345
-324.37018387121384
-463.1418326085298
-512.3613336385138
-452.2041657129778
-336.577401388571
-229.93514915693905
-155.91058213168535
-112.25757228961623
-83.74151216906996
-60.59662775616083
-44.19012741283284
-33.252460517280845
-23.291371023117417
-15.967040512703136
-12.549019607843137
-9.033340962844282
-5.322346837567712
-4.248111696040284
-3.5645075150682843
-1.513694972152285
-0.7324330510414282
-1.2207217517357138
-0.34180209048599985
0.34180209048599985
-0.14648661020828566
-0.04882887006942855
0.6347753109025711
0.34180209048599985
0.04882887006942855
0.7324330510414282
0.7324330510414282
0.14648661020828566
0.43945983062485694
0.8300907911802854
0.34180209048599985
0.537117570763714
0.9277485313191425
0.6347753109025711
0.34180209048599985
0.7324330510414282
0.6347753109025711
0.24414435034714274
0.537117570763714
0.9277485313191425
0.537117570763714
0.43945983062485694
0.6347753109025711
0.43945983062485694
0.34180209048599985
0.7324330510414282
0.7324330510414282
0.537117570763714
0.6347753109025711
19.678034637979707
80.61646448462653
177.49294270237277
316.069275959411
443.21965362020296
423.10215915159836
294.77988860914013
231.79064621957733
239.21263447013047
221.92721446555277
168.60608834973678
119.48424505989166
96.72999160753795
80.2258335240711
50.83085374227512
32.6665140764477
31.68993667505913
21.24055848020142
8.935683222705425
11.865415426871138
11.279468986037996
1.6113527122911422
2.392614633401999
6.787212939650568
0.537117570763714
-1.7090104524299992
3.7598229953459983
1.513694972152285
-2.9785610742351416
1.1230640115968566
2.2949568932631417
-2.392614633401999
-1.0254062714579995
2.2949568932631417
-1.0254062714579995
-2.0996414129854277
1.513694972152285
0.24414435034714274
-2.2949568932631417
0.24414435034714274
1.1230640115968566
-1.7090104524299992
-0.8300907911802854
1.2207217517357138
-0.7324330510414282
-1.513694972152285
0.6347753109025711
0.04882887006942855
-1.6113527122911422
0.04882887006942855
0.537117570763714
-1.2207217517357138
-0.6347753109025711
0.6347753109025711
-0.6347753109025711
-1.0254062714579995
0.34180209048599985
-0.04882887006942855
-1.0254062714579995
-0.04882887006942855
0.14648661020828566
-0.8300907911802854
-0.537117570763714
0.14648661020828566
-0.537117570763714
-0.8300907911802854
0.04882887006942855
-0.14648661020828566
-0.8300907911802854
-0.14648661020828566
0.04882887006942855
-0.6347753109025711
-0.43945983062485694
0.04882887006942855
-0.43945983062485694
-0.537117570763714
-0.04882887006942855
-0.24414435034714274
-0.537117570763714
-0.14648661020828566
-0.04882887006942855
-0.537117570763714
-0.43945983062485694
-0.14648661020828566
-0.43945983062485694
-7.080186160067139
-48.78004119935912
-170.26626993209734
-364.3121995880064
-524.3732356755932
-541.4633401998932
-431.6960402838178
-294.77988860914013
-196.63385976958878
-139.01579308766307
-100.92927443350881
-73.87808041504539
-56.006713969634546
-40.86976424811169
-27.881284809643702
-20.752269779507134
-15.967040512703136
-10.302891584649425
-7.177843900205997
-6.298924238956283
-3.8574807354848555
-1.8066681925688564
-2.0019836728465705
-1.513694972152285
0.04882887006942855
-0.14648661020828566
-0.537117570763714
0.43945983062485694
0.537117570763714
-0.14648661020828566
0.34180209048599985
0.8300907911802854
0.24414435034714274
0.24414435034714274
0.9277485313191425
0.537117570763714
0.04882887006942855
0.7324330510414282
0.8300907911802854
0.24414435034714274
0.537117570763714
0.8300907911802854
0.34180209048599985
0.34180209048599985
0.8300907911802854
0.6347753109025711
0.34180209048599985
0.6347753109025711
0.7324330510414282
1.416037232013428
30.22507057297627
160.7934691386282
395.367360952163
571.6395819028
559.7253376058594
419.1958495460441
275.44365606164644
186.47745479514762
135.1094834821088
96.14404516670481
71.33897917143511
56.20202944991226
38.818951705195694
25.732814526588847
21.63118944075685
15.967040512703136
8.545052262149996
7.666132600900283
7.275501640344854
2.783245593957427
1.7090104524299992
3.466849774929427
1.2207217517357138
-0.537117570763714
1.3183794918745708
1.0254062714579995
-1.2207217517357138
-0.04882887006942855
0.9277485313191425
-0.8300907911802854
-0.8300907911802854
0.7324330510414282
-0.24414435034714274
-1.1230640115968566
0.14648661020828566
-8.642710002288853
-110.69504844739453
-364.01922636758985
-591.2687876707103
-597.4212252994583
-442.6337071793698
-281.0101472495613
-187.74700541695276
-140.28534370946824
-98.09719996948196
-70.75303273060197
-59.42473487449455
-29.541466392004274
34.0337224383917
82.17898832684826
53.760585946440834
-22.021820401312276
-71.63195239185168
-68.50690470740825
-35.98687724116884
-18.89677271686885
-19.971007858396277
-11.377126726176853
-3.2715342946517127
-8.642710002288853
28.27191577019913
193.8017853055619
444.4892042420081
594.1008621347372
547.71343556878
388.8242923628595
245.26741435873961
171.34050507362477
128.85938811322194
87.25719081406882
65.47951476310368
55.81139848935683
35.4009308003357
21.338216220340275
22.314793621728846
15.869382772564279
5.322346837567712
7.666132600900283
8.74036774242771
0.7324330510414282
-26.61173418783856
-123.87884336614023
-302.8854810406653
-481.69680323491264
-546.4438849469749
-472.3216601815824
-339.7024490730144
-222.80613412680248
-150.63706416418708
-113.52712291142137
-83.35088120851454
-58.057526512550545
-45.26436255436027
-34.131380178530556
-21.045242999923705
-15.869382772564279
-14.11154345006485
-7.763790341039139
-4.443427176317998
-5.908293278400855
-3.5645075150682843
-0.34180209048599985
-1.8066681925688564
-1.9043259327077133
0.9277485313191425
0.24414435034714274
-1.2207217517357138
0.7324330510414282
1.3183794918745708
-0.537117570763714
0.14648661020828566
1.6113527122911422
0.14648661020828566
-0.24414435034714274
1.3183794918745708
0.8300907911802854
-0.24414435034714274
0.7324330510414282
1.1230640115968566
0.04882887006942855
0.537117570763714
1.3183794918745708
0.24414435034714274
0.04882887006942855
0.9277485313191425
0.6347753109025711
0.04882887006942855
0.9277485313191425
1.0254062714579995
0.04882887006942855
18.017853055619135
124.26947432669566
346.92912184328986
541.9516289005875
557.1862363622491
435.40703440909436
300.93232623788816
211.7708094911116
155.51995117112992
109.23018234531166
78.6633096818494
62.54978255893797
44.19012741283284
28.27191577019913
23.779659723811704
18.60379949645228
9.521629663538567
7.861448081177996
8.44739452201114
3.36919203479057
1.3183794918745708
3.9551384756237127
1.9043259327077133
-0.9277485313191425
1.2207217517357138
1.6113527122911422
-1.2207217517357138
-0.34180209048599985
1.416037232013428
-0.6347753109025711
-1.3183794918745708
0.7324330510414282
0.04882887006942855
-1.416037232013428
0.04882887006942855
0.43945983062485694
-1.1230640115968566
-0.537117570763714
0.537117570763714
-0.6347753109025711
-0.9277485313191425
0.34180209048599985
-0.14648661020828566
-1.1230640115968566
-0.04882887006942855
0.04882887006942855
-0.9277485313191425
-0.43945983062485694
0.14648661020828566
-0.537117570763714
-0.7324330510414282
0.04882887006942855
-0.14648661020828566
-0.7324330510414282
-0.14648661020828566
0.04882887006942855
-0.6347753109025711
-0.43945983062485694
0.04882887006942855
-0.537117570763714
-0.6347753109025711
-0.04882887006942855
-0.24414435034714274
-0.537117570763714
-0.14648661020828566
-0.14648661020828566
-0.537117570763714
-0.34180209048599985
-0.04882887006942855
-0.34180209048599985
-0.43945983062485694
-0.14648661020828566
-0.24414435034714274
-0.537117570763714
-0.34180209048599985
-0.24414435034714274
-0.43945983062485694
-0.34180209048599985
-0.14648661020828566
-0.34180209048599985
-0.43945983062485694
-0.14648661020828566
-0.24414435034714274
-0.43945983062485694
-0.24414435034714274
-0.24414435034714274
-0.34180209048599985
-0.34180209048599985
-0.24414435034714274
-0.34180209048599985
-0.43945983062485694
-0.34180209048599985
-0.34180209048599985
-39.600213626306555
-185.98916609445334
-402.3010605020218
-546.4438849469749
-535.3109025711452
-413.14106965743497
-281.1078049897002
-191.16502632181277
-134.4258793011368
-96.92530708781567
-73.29213397421225
-54.83482108796826
-38.03768978408484
-27.49065384908827
-21.338216220340275
-14.404516670481422
-9.521629663538567
-8.05676356145571
-5.615320057984283
-2.783245593957427
-2.5879301136797133
-2.2949568932631417
-0.43945983062485694
-0.24414435034714274
-0.8300907911802854
0.04882887006942855
0.6347753109025711
-0.04882887006942855
0.14648661020828566
0.9277485313191425
0.34180209048599985
0.04882887006942855
0.9277485313191425
0.8300907911802854
0.14648661020828566
0.6347753109025711
0.9277485313191425
0.34180209048599985
0.43945983062485694
0.9277485313191425
0.537117570763714
0.24414435034714274
0.6347753109025711
0.6347753109025711
0.34180209048599985
0.6347753109025711
0.8300907911802854
0.34180209048599985
0.9277485313191425
37.84237430380713
168.1177996490425
366.26535439078356
520.1739528496223
539.2172121766995
435.21171892881665
301.90890363927673
203.07927061875333
141.16426337071795
102.49179827573053
76.8078126192111
56.88563363088426
40.772106507972836
29.63912413214313
21.826504921034562
15.381094071869994
10.888838025482567
8.349736781872283
5.810635538261997
3.7598229953459983
2.9785610742351416
2.197299153124285
1.1230640115968566
0.8300907911802854
0.7324330510414282
0.14648661020828566
-0.04882887006942855
0.04882887006942855
-0.04882887006942855
-0.34180209048599985
-0.04882887006942855
-0.04882887006942855
-0.43945983062485694
-0.24414435034714274
-0.04882887006942855
-0.34180209048599985
-0.34180209048599985
-0.14648661020828566
-0.24414435034714274
-0.43945983062485694
-0.24414435034714274
-0.24414435034714274
-0.43945983062485694
-0.34180209048599985
-0.24414435034714274
-0.34180209048599985
-0.34180209048599985
-10.498207064927138
-56.59266041046769
-116.45685511558709
-126.41794460975052
-124.46478980697337
-170.07095445181963
-190.09079118028535
-162.8442816815442
-177.29762722209506
-214.3099107347219
-217.33730067902647
-231.00938429846647
-258.54886701762416
-247.02525368123904
-199.46593423361563
-130.22659647516593
-21.43587396047913
128.85938811322194
283.3539330128939
397.6134889753567
433.0632486457618
390.4844739452201
307.47539482719156
206.5949492637522
130.03128099488822
102.49179827573053
79.44457160296025
47.21751735713741
37.74471656366827
35.98687724116884
18.11551079575799
9.81460288395514
16.16235599298085
9.228656443121995
-0.14648661020828566
6.005951018539712
6.787212939650568
-2.2949568932631417
0.14648661020828566
5.420004577706569
-8.252079041733426
-79.54222934309911
-260.3067063401236
-477.9858091096361
-568.7098496986343
-493.31807431143665
-353.76516365300984
-242.43533989471274
-168.21545738918135
-115.9685664148928
-86.8665598535134
-68.21393148699168
-46.63157091630426
-32.08056763561456
-27.002365148393988
-18.60379949645228
-10.302891584649425
-9.912260624093996
-8.44739452201114
-2.783245593957427
-2.490272373540856
-4.150453955901427
-0.7324330510414282
0.6347753109025711
-1.7090104524299992
-0.6347753109025711
1.513694972152285
-0.24414435034714274
-0.8300907911802854
1.416037232013428
0.7324330510414282
-0.7324330510414282
0.8300907911802854
1.416037232013428
-0.24414435034714274
0.14648661020828566
1.513694972152285
0.24414435034714274
-0.04882887006942855
1.2207217517357138
0.9277485313191425
-0.04882887006942855
0.8300907911802854
1.1230640115968566
0.04882887006942855
0.34180209048599985
1.0254062714579995
0.34180209048599985
0.14648661020828566
1.0254062714579995
0.7324330510414282
0.14648661020828566
3.9551384756237127
34.22903791866941
107.86297398336767
212.0637827115282
348.198672465095
469.39192797741663
478.47409781033036
390.6797894254978
288.82276646066987
208.93873502708476
155.1293202105745
112.06225680933852
76.51483939879454
58.1551842526894
45.16670481422141
28.95551995117113
20.752269779507134
18.701457236591136
11.572442206454566
6.103608758678568
7.373159380483711
5.420004577706569
0.9277485313191425
2.0996414129854277
3.1738765545128556
-0.14648661020828566
-0.34180209048599985
1.9043259327077133
0.04882887006942855
-1.3183794918745708
0.7324330510414282
0.537117570763714
-1.416037232013428
-0.14648661020828566
0.8300907911802854
-0.9277485313191425
-0.9277485313191425
0.537117570763714
-0.34180209048599985
-1.1230640115968566
0.14648661020828566
0.04882887006942855
-1.0254062714579995
-0.24414435034714274
0.34180209048599985
-0.7324330510414282
-0.6347753109025711
0.24414435034714274
-0.34180209048599985
-0.9277485313191425
-0.04882887006942855
-0.04882887006942855
-0.8300907911802854
-0.24414435034714274
0.04882887006942855
-0.537117570763714
-0.537117570763714
0.04882887006942855
-0.34180209048599985
-0.6347753109025711
-0.04882887006942855
-0.14648661020828566
-0.537117570763714
-0.24414435034714274
-0.04882887006942855
-0.537117570763714
-0.537117570763714
-0.14648661020828566
-0.34180209048599985
-0.537117570763714
-0.14648661020828566
-0.24414435034714274
-0.43945983062485694
-0.24414435034714274
-0.14648661020828566
-0.43945983062485694
-0.34180209048599985
-0.14648661020828566
-0.34180209048599985
-0.43945983062485694
-0.24414435034714274
-0.24414435034714274
-0.43945983062485694
-0.34180209048599985
-0.24414435034714274
-36.0845349813077
-177.29762722209506
-398.101777676051
-552.1080338750286
-542.6352330815595
-416.36377508201724
-280.91248950942247
-190.77439536125735
-135.1094834821088
-97.02296482795452
-72.99916075379568
-55.22545204852369
-38.23300526436255
-27.002365148393988
-21.338216220340275
-14.697489890897993
-9.228656443121995
-8.05676356145571
-6.103608758678568
-2.68558785381857
-2.2949568932631417
-2.5879301136797133
-0.6347753109025711
0.04882887006942855
-1.0254062714579995
-0.14648661020828566
0.8300907911802854
0.04882887006942855
-0.04882887006942855
1.0254062714579995
0.537117570763714
-0.04882887006942855
0.7324330510414282
0.9277485313191425
0.04882887006942855
0.43945983062485694
0.9277485313191425
0.34180209048599985
0.24414435034714274
0.9277485313191425
0.6347753109025711
0.14648661020828566
0.6347753109025711
0.7324330510414282
0.24414435034714274
0.537117570763714
0.9277485313191425
0.537117570763714
0.43945983062485694
0.8300907911802854
0.6347753109025711
0.34180209048599985
47.31517509727627
192.72755016403448
351.03074692912185
426.81315327687497
446.2470435645075
422.22323949034865
349.0775921263447
254.34958419165332
168.50843060959792
116.55451285572595
90.38223849851225
64.20996414129854
43.40886549172198
36.182192721446555
26.90470740825513
14.795147631036851
12.646677347981994
12.158388647287708
5.127031357289998
2.9785610742351416
5.71297779812314
2.490272373540856
-0.537117570763714
2.2949568932631417
2.0019836728465705
-1.416037232013428
0.04882887006942855
1.8066681925688564
-0.9277485313191425
-1.2207217517357138
1.2207217517357138
-0.14648661020828566
-1.7090104524299992
0.43945983062485694
0.537117570763714
-1.416037232013428
-0.34180209048599985
0.7324330510414282
-0.8300907911802854
-0.9277485313191425
0.537117570763714
-0.24414435034714274
-1.2207217517357138
0.04882887006942855
0.04882887006942855
-1.0254062714579995
-0.34180209048599985
0.24414435034714274
-0.6347753109025711
-0.7324330510414282
0.14648661020828566
-0.24414435034714274
-9.42397192339971
-28.66254673075456
-46.63157091630426
-88.72205691615167
-151.0276951247425
-129.25001907377737
-5.908293278400855
99.3667505912871
117.72640573739223
79.15159838254368
43.70183871213855
32.56885633630884
22.998397802700847
12.060730907148852
12.45136186770428
12.060730907148852
3.9551384756237127
2.783245593957427
6.103608758678568
1.8066681925688564
-1.0254062714579995
2.783245593957427
1.9043259327077133
-2.0019836728465705
0.34180209048599985
2.0019836728465705
-1.416037232013428
-1.1230640115968566
-31.9829098954757
-186.67277027542534
-441.5594720378424
-597.9095140001526
-549.9595635919737
-393.0235751888304
-251.51750972762645
-171.9264515144579
-127.98046845197223
-90.38223849851225
-66.55374990463112
-53.66292820630198
-36.475165941863125
-22.998397802700847
-20.55695429922942
-15.47875181200885
-6.982528419928283
-6.6895551995117115
-7.275501640344854
-2.0019836728465705
-0.8300907911802854
-3.5645075150682843
-1.0254062714579995
1.416037232013428
-1.2207217517357138
-1.0254062714579995
1.9043259327077133
0.537117570763714
-0.9277485313191425
1.3183794918745708
1.416037232013428
-0.6347753109025711
0.43945983062485694
1.8066681925688564
0.04882887006942855
0.04882887006942855
1.7090104524299992
0.537117570763714
-0.43945983062485694
0.9277485313191425
1.0254062714579995
-0.24414435034714274
0.537117570763714
1.3183794918745708
0.24414435034714274
0.14648661020828566
1.1230640115968566
0.43945983062485694
-0.14648661020828566
0.7324330510414282
0.8300907911802854
0.9277485313191425
24.17029068436713
136.57434958419165
357.8667887388418
535.4085603112841
521.736476691844
395.7579919127184
290.48294804303043
226.22415503166246
173.48897535667965
119.97253376058595
83.54619668879225
66.55374990463112
46.92454413672083
29.346150911726557
25.537499046311133
20.45929655909056
9.81460288395514
8.252079041733426
9.71694514381628
3.662165255207141
1.0254062714579995
4.541084916456855
2.197299153124285
-1.416037232013428
1.416037232013428
2.0996414129854277
-1.513694972152285
-0.43945983062485694
1.9043259327077133
-0.7324330510414282
-1.513694972152285
1.1230640115968566
0.14648661020828566
-1.8066681925688564
0.14648661020828566
0.7324330510414282
-1.416037232013428
-0.7324330510414282
0.7324330510414282
-0.7324330510414282
-1.2207217517357138
0.43945983062485694
-0.04882887006942855
-1.2207217517357138
0.04882887006942855
0.34180209048599985
-1.0254062714579995
-0.537117570763714
0.34180209048599985
-0.537117570763714
-0.8300907911802854
0.14648661020828566
-0.14648661020828566
-0.9277485313191425
-0.14648661020828566
0.04882887006942855
-0.8300907911802854
-0.43945983062485694
0.04882887006942855
-0.43945983062485694
-0.6347753109025711
0.04882887006942855
-0.14648661020828566
-0.6347753109025711
-0.14648661020828566
-0.04882887006942855
-0.537117570763714
-0.34180209048599985
0.04882887006942855
-0.43945983062485694
-0.537117570763714
-0.14648661020828566
-0.34180209048599985
-0.537117570763714
-0.24414435034714274
-0.14648661020828566
-0.43945983062485694
-0.34180209048599985
-0.14648661020828566
-37.74471656366827
-196.1455710688945
-445.1728084229801
-594.1985198748761
-543.5141527428092
-387.5547417410544
-251.02922102693216
-173.29365987640193
-126.12497138933395
-89.21034561684596
-67.82330052643626
-53.17463950560769
-35.010299839780274
-23.974975204089418
-20.947585259784848
-13.916227969787137
-7.177843900205997
-7.763790341039139
-6.39658197909514
-1.6113527122911422
-1.9043259327077133
-3.36919203479057
-0.24414435034714274
0.6347753109025711
-1.6113527122911422
-0.24414435034714274
1.513694972152285
-0.43945983062485694
-0.7324330510414282
1.513694972152285
0.8300907911802854
-0.43945983062485694
0.9277485313191425
1.2207217517357138
-0.34180209048599985
0.24414435034714274
1.416037232013428
0.14648661020828566
0.04882887006942855
1.416037232013428
0.9277485313191425
0.04882887006942855
0.8300907911802854
1.0254062714579995
0.04882887006942855
0.43945983062485694
1.1230640115968566
0.34180209048599985
0.24414435034714274
1.0254062714579995
0.537117570763714
11.377126726176853
94.67917906462196
296.0494392309453
498.8845654993515
542.7328908216983
448.9814602883955
330.424963759823
241.1657892729076
178.17654688334477
124.66010528725108
86.96421759365225
68.60456244754711
50.14724956130312
31.787594415197987
25.732814526588847
21.338216220340275
11.377126726176853
8.05676356145571
9.521629663538567
4.736400396734569
1.2207217517357138
3.8574807354848555
2.783245593957427
-0.9277485313191425
0.8300907911802854
2.197299153124285
-0.9277485313191425
-0.8300907911802854
1.513694972152285
-0.24414435034714274
-1.513694972152285
0.6347753109025711
0.43945983062485694
-1.513694972152285
-0.14648661020828566
0.7324330510414282
-1.1230640115968566
-0.9277485313191425
0.537117570763714
-0.43945983062485694
-1.2207217517357138
0.24414435034714274
0.04882887006942855
-1.1230640115968566
-0.24414435034714274
0.34180209048599985
-21.92416266117342
-101.12458991378652
-202.39566643778133
-259.4277866788739
-300.1510643167773
-332.57343404287786
-274.6623941405356
-149.07454032196537
-39.5025558861677
88.81971465629053
246.73228046082247
338.43289845120927
310.89341573205155
210.98954757000075
129.05470359349965
97.21828030823224
71.63195239185168
43.40886549172198
37.35408560311284
33.545433737697415
15.967040512703136
10.498207064927138
15.47875181200885
7.275501640344854
0.24414435034714274
6.591897459372854
5.420004577706569
-2.392614633401999
1.1230640115968566
4.638742656595713
-1.7090104524299992
-1.9043259327077133
3.466849774929427
0.04882887006942855
-47.11985961699855
-195.95025558861676
-406.2073701075761
-541.560997940032
-525.4474708171206
-406.30502784771494
-282.57267109178304
-193.21583886472877
-131.69146257724879
-96.82764934767681
-75.63591973754482
-53.17463950560769
-36.57282368200198
-29.541466392004274
-21.045242999923705
-12.256046387426567
-10.693522545204852
-9.130998702983138
-3.8574807354848555
-2.783245593957427
-4.150453955901427
-1.3183794918745708
0.43945983062485694
-1.513694972152285
-0.8300907911802854
1.3183794918745708
-0.04882887006942855
-0.8300907911802854
1.0254062714579995
0.9277485313191425
-0.43945983062485694
0.6347753109025711
1.2207217517357138
-0.14648661020828566
0.04882887006942855
1.3183794918745708
0.43945983062485694
0.04882887006942855
1.2207217517357138
0.9277485313191425
-0.04882887006942855
0.6347753109025711
1.0254062714579995
0.14648661020828566
0.43945983062485694
1.2207217517357138
0.537117570763714
0.24414435034714274
0.9277485313191425
0.7324330510414282
11.279468986037996
87.25719081406882
264.2130159456779
431.40306706340124
463.6301213092241
413.5317006179904
359.5269703212024
298.1002517738613
224.95460440985732
152.1995880064088
103.56603341725796
80.9094377050431
58.44815747310597
37.74471656366827
31.396963454642556
25.146868085755703
13.13496604867628
10.10757610437171
11.377126726176853
5.127031357289998
1.7090104524299992
5.127031357289998
2.9785610742351416
-1.0254062714579995
1.513694972152285
2.490272373540856
-1.3183794918745708
-0.537117570763714
2.0019836728465705
-0.43945983062485694
-1.6113527122911422
1.0254062714579995
0.24414435034714274
-1.8066681925688564
0.04882887006942855
0.8300907911802854
-1.3183794918745708
-0.7324330510414282
0.8300907911802854
-0.537117570763714
-1.2207217517357138
0.43945983062485694
0.04882887006942855
-1.2207217517357138
-0.04882887006942855
0.34180209048599985
-0.9277485313191425
-0.6347753109025711
0.34180209048599985
-0.537117570763714
-0.9277485313191425
0.14648661020828566
-0.04882887006942855
-0.9277485313191425
-0.14648661020828566
0.04882887006942855
-0.7324330510414282
-0.43945983062485694
0.04882887006942855
-0.43945983062485694
-0.6347753109025711
0.04882887006942855
-0.14648661020828566
-0.6347753109025711
-0.24414435034714274
-0.04882887006942855
-0.6347753109025711
-0.43945983062485694
-0.04882887006942855
-0.34180209048599985
-0.537117570763714
-0.14648661020828566
-0.24414435034714274
-0.537117570763714
-0.24414435034714274
-0.14648661020828566
-0.43945983062485694
-0.34180209048599985
-0.04882887006942855
-0.34180209048599985
-0.43945983062485694
-26.514076447699704
-151.41832608529793
-378.86320286869613
-558.2604715037766
-560.6042572671092
-430.1335164415961
-286.2836652170596
-192.62989242389563
-138.23453116655222
-98.87846189059282
-72.90150301365682
-56.7879758907454
-39.99084458686198
-26.709391927977418
-21.63118944075685
-16.064698252841993
-9.130998702983138
-7.470817120622568
-6.787212939650568
-2.8809033340962844
-1.513694972152285
-2.8809033340962844
-1.1230640115968566
0.537117570763714
-0.9277485313191425
-0.8300907911802854
1.0254062714579995
0.34180209048599985
-0.537117570763714
0.8300907911802854
1.0254062714579995
-0.14648661020828566
0.537117570763714
1.416037232013428
0.24414435034714274
0.14648661020828566
1.1230640115968566
0.537117570763714
0.04882887006942855
0.8300907911802854
0.9277485313191425
0.04882887006942855
0.6347753109025711
1.2207217517357138
0.34180209048599985
0.24414435034714274
0.8300907911802854
