ecg
-53.36995498588541
-158.93797207598993
-330.5226214999619
-486.5796902418555
-531.1116197451744
-452.8877698939498
-320.07324330510414
-206.10666056305791
-144.1916533150225
-110.01144426642253
-76.41718165865568
-54.83482108796826
-45.85030899519341
-31.103990234225986
-18.11551079575799
-17.13893339436942
-13.623254749370565
-5.127031357289998
-5.224689097428855
-6.982528419928283
-1.513694972152285
0.04882887006942855
-3.466849774929427
-1.0254062714579995
2.0019836728465705
-1.0254062714579995
-1.513694972152285
1.8066681925688564
0.43945983062485694
-1.416037232013428
1.1230640115968566
1.6113527122911422
-0.9277485313191425
0.24414435034714274
2.0019836728465705
0.04882887006942855
-0.14648661020828566
1.7090104524299992
0.7324330510414282
-0.537117570763714
1.0254062714579995
1.2207217517357138
-0.34180209048599985
0.34180209048599985
1.416037232013428
0.24414435034714274
0.04882887006942855
1.3183794918745708
0.7324330510414282
-0.04882887006942855
9.619287403677424
66.06546120393683
171.7311360341802
254.74021515220875
318.02243076218815
402.39871824216067
437.7508201724269
384.03906309605554
291.55718318455786
207.37621118486305
153.9574273289082
114.4060425726711
76.02655069810025
55.81139848935683
46.533913176165406
29.9320973525597
18.701457236591136
18.799114976729992
13.232623788815136
4.931715877012284
6.494239719233997
7.080186160067139
0.8300907911802854
0.8300907911802854
4.052796215762569
0.43945983062485694
-1.6113527122911422
1.9043259327077133
1.0254062714579995
-2.0996414129854277
0.24414435034714274
1.513694972152285
-1.513694972152285
-0.9277485313191425
1.416037232013428
-0.537117570763714
-1.6113527122911422
0.6347753109025711
0.14648661020828566
-1.7090104524299992
-0.14648661020828566
0.6347753109025711
-1.1230640115968566
-0.8300907911802854
0.6347753109025711
-0.43945983062485694
-1.1230640115968566
0.24414435034714274
0.04882887006942855
-1.1230640115968566
-0.14648661020828566
0.24414435034714274
-0.9277485313191425
-0.6347753109025711
0.24414435034714274
-0.43945983062485694
-0.8300907911802854
0.04882887006942855
-0.04882887006942855
-0.8300907911802854
-0.14648661020828566
0.04882887006942855
-0.6347753109025711
-0.43945983062485694
0.04882887006942855
-0.34180209048599985
-0.7324330510414282
-0.14648661020828566
-0.24414435034714274
-0.6347753109025711
-0.24414435034714274
-0.04882887006942855
-0.537117570763714
-0.43945983062485694
-0.04882887006942855
-0.34180209048599985
-0.537117570763714
-24.853894865339132
-134.9141680018311
-338.72587167162584
-522.9083695735103
-560.2136263065538
-454.54795147631035
-311.4793621728847
-207.18089570458534
-145.75417715724421
-105.32387273975738
-77.29610131990539
-58.8387884336614
-42.92057679102769
-29.2484931715877
-21.92416266117342
-16.748302433813993
-10.693522545204852
-7.568474860761425
-6.6895551995117115
-3.9551384756237127
-1.9043259327077133
-2.197299153124285
-1.513694972152285
0.04882887006942855
-0.34180209048599985
-0.6347753109025711
0.43945983062485694
0.43945983062485694
-0.14648661020828566
0.43945983062485694
0.9277485313191425
0.14648661020828566
0.24414435034714274
1.0254062714579995
0.537117570763714
0.04882887006942855
0.6347753109025711
0.7324330510414282
0.24414435034714274
0.6347753109025711
0.9277485313191425
0.34180209048599985
0.34180209048599985
0.7324330510414282
0.43945983062485694
0.34180209048599985
0.7324330510414282
0.7324330510414282
0.34180209048599985
0.537117570763714
0.7324330510414282
11.963073167009995
48.09643701838712
117.14045929655909
247.8065156023499
392.92591744869156
435.40703440909436
391.65636682688637
343.90173189898525
295.9517814908064
235.11100938429846
166.45761806668193
110.69504844739453
82.56961928740368
62.54978255893797
40.86976424811169
30.615701533531702
26.416418707560844
15.967040512703136
9.521629663538567
10.888838025482567
7.177843900205997
1.8066681925688564
3.662165255207141
4.052796215762569
-0.24414435034714274
0.14648661020828566
2.5879301136797133
-0.04882887006942855
-1.3183794918745708
1.3183794918745708
0.537117570763714
-1.7090104524299992
0.14648661020828566
0.9277485313191425
-1.3183794918745708
-0.7324330510414282
0.8300907911802854
-0.6347753109025711
-1.3183794918745708
0.43945983062485694
0.04882887006942855
-1.3183794918745708
-0.04882887006942855
0.34180209048599985
-0.9277485313191425
-0.537117570763714
0.43945983062485694
-0.537117570763714
-0.9277485313191425
0.04882887006942855
-0.14648661020828566
-0.9277485313191425
-0.14648661020828566
0.04882887006942855
-0.7324330510414282
-0.43945983062485694
0.14648661020828566
-0.43945983062485694
-0.6347753109025711
0.04882887006942855
-0.14648661020828566
-0.6347753109025711
-0.24414435034714274
-0.04882887006942855
-0.6347753109025711
-0.43945983062485694
-0.04882887006942855
-0.34180209048599985
-0.537117570763714
-0.14648661020828566
-0.24414435034714274
-0.537117570763714
-0.24414435034714274
-0.14648661020828566
-0.43945983062485694
-0.34180209048599985
-0.14648661020828566
-0.34180209048599985
-5.0293736171511405
-37.94003204394598
-140.3830014496071
-320.6591897459373
-498.29861905851834
-551.6197451743343
-460.99336232547495
-320.6591897459373
-211.67315175097275
-147.8049897001602
-107.86297398336767
-78.37033646143283
-58.74113069352254
-43.99481193255512
-30.22507057297627
-21.338216220340275
-16.943617914091707
-11.670099946593423
-7.373159380483711
-6.298924238956283
-4.541084916456855
-1.9043259327077133
-1.7090104524299992
-1.9043259327077133
-0.24414435034714274
0.04882887006942855
-0.7324330510414282
0.04882887006942855
0.8300907911802854
0.04882887006942855
0.04882887006942855
0.8300907911802854
0.43945983062485694
0.04882887006942855
0.7324330510414282
0.8300907911802854
0.24414435034714274
0.537117570763714
0.9277485313191425
0.43945983062485694
0.43945983062485694
0.9277485313191425
0.537117570763714
0.24414435034714274
0.7324330510414282
0.7324330510414282
0.34180209048599985
0.6347753109025711
0.8300907911802854
0.43945983062485694
0.43945983062485694
0.7324330510414282
0.537117570763714
0.34180209048599985
0.7324330510414282
0.8300907911802854
0.537117570763714
30.029755092698558
163.43022812237734
381.79293507286184
515.0957503624018
483.7476157778286
384.23437857633326
299.4674601358053
234.52506294346531
172.61005569542993
116.94514381628137
85.0110627908751
66.26077668421455
44.38544289311055
30.615701533531702
26.90470740825513
18.40848401617456
9.619287403677424
10.009918364232853
8.642710002288853
2.490272373540856
2.490272373540856
4.541084916456855
0.7324330510414282
-0.537117570763714
2.2949568932631417
0.9277485313191425
-1.6113527122911422
0.6347753109025711
1.2207217517357138
-1.416037232013428
-0.537117570763714
1.2207217517357138
-0.7324330510414282
-1.3183794918745708
0.6347753109025711
0.04882887006942855
-1.513694972152285
0.04882887006942855
0.43945983062485694
-1.1230640115968566
-0.537117570763714
0.537117570763714
-0.537117570763714
-0.9277485313191425
0.24414435034714274
-0.14648661020828566
-1.1230640115968566
-0.14648661020828566
0.04882887006942855
-0.8300907911802854
-0.43945983062485694
0.14648661020828566
-0.43945983062485694
-0.7324330510414282
0.04882887006942855
-0.14648661020828566
-0.7324330510414282
-0.14648661020828566
0.04882887006942855
-0.6347753109025711
-0.43945983062485694
-0.04882887006942855
-0.537117570763714
-0.6347753109025711
-0.04882887006942855
-0.24414435034714274
-0.6347753109025711
-0.24414435034714274
-0.04882887006942855
-0.537117570763714
-0.34180209048599985
-0.04882887006942855
-0.34180209048599985
-0.43945983062485694
-0.14648661020828566
-0.24414435034714274
-0.537117570763714
-0.34180209048599985
-0.24414435034714274
-57.764553292133975
-259.8184176394293
-512.6543068589303
-606.2104219119555
-506.79484245059894
-343.1204699778744
-223.09910734721905
-159.2309452964065
-114.50370031280995
-81.00709544518196
-64.3076218814374
-48.48706797894255
-30.127412832837415
-22.998397802700847
-20.068665598535134
-11.08415350576028
-6.6895551995117115
-8.545052262149996
-4.931715877012284
-0.537117570763714
-2.783245593957427
-2.8809033340962844
1.0254062714579995
0.14648661020828566
-1.9043259327077133
0.7324330510414282
1.416037232013428
-1.0254062714579995
0.04882887006942855
1.9043259327077133
-0.04882887006942855
-0.43945983062485694
1.6113527122911422
0.7324330510414282
-0.537117570763714
1.0254062714579995
1.513694972152285
-0.14648661020828566
0.34180209048599985
1.513694972152285
0.14648661020828566
-0.14648661020828566
1.1230640115968566
0.6347753109025711
-0.14648661020828566
12.45136186770428
74.75700007629511
180.32501716639965
256.49805447470817
308.64728770885785
369.87869077592126
387.45708400091553
353.27687495231555
299.9557488364996
235.6969558251316
178.0788891432059
126.71091783016709
82.96025024795911
62.2568093385214
50.14724956130312
31.885252155336843
21.826504921034562
20.947585259784848
13.330281528953995
6.005951018539712
8.05676356145571
6.787212939650568
0.7324330510414282
1.8066681925688564
4.052796215762569
-0.04882887006942855
-0.9277485313191425
2.392614633401999
0.43945983062485694
-1.9043259327077133
0.8300907911802854
1.1230640115968566
-1.7090104524299992
-0.43945983062485694
1.3183794918745708
-0.9277485313191425
-1.3183794918745708
0.8300907911802854
-0.14648661020828566
-1.6113527122911422
0.14648661020828566
0.43945983062485694
-1.3183794918745708
-0.43945983062485694
0.6347753109025711
-0.7324330510414282
-0.9277485313191425
0.34180209048599985
-0.14648661020828566
-26.025787747005417
-106.69108110170139
-217.2396429388876
-334.42893110551614
-446.44235904478523
-467.4387731746395
-371.3435568780041
-258.54886701762416
-146.73075455863278
34.32669565880827
245.46272983901733
379.644464789807
403.2776379034104
350.249485008011
275.44365606164644
201.61440451667048
131.10551613641564
89.60097657740138
74.5616845960174
52.49103532463569
31.787594415197987
29.346150911726557
23.58434424353399
9.912260624093996
9.033340962844282
11.767757686732281
3.5645075150682843
0.537117570763714
5.908293278400855
2.5879301136797133
-2.2949568932631417
-2.0996414129854277
-56.20202944991226
-239.7985809109636
-479.3530174715801
-591.6594186312657
-519.7833218890669
-362.84733348592357
-231.88830395971618
-163.03959716182192
-121.14442664225223
-83.74151216906996
-63.42870222018769
-51.51445792324712
-33.05714503700313
-21.338216220340275
-20.45929655909056
-13.720912489509422
-5.71297779812314
-7.373159380483711
-7.177843900205997
-1.0254062714579995
-1.3183794918745708
-3.9551384756237127
-0.04882887006942855
1.416037232013428
-2.0996414129854277
-0.8300907911802854
2.0996414129854277
-0.34180209048599985
-1.1230640115968566
1.9043259327077133
1.1230640115968566
-1.0254062714579995
0.9277485313191425
1.7090104524299992
-0.537117570763714
0.04882887006942855
1.7090104524299992
0.14648661020828566
-0.24414435034714274
1.513694972152285
0.9277485313191425
-0.34180209048599985
0.9277485313191425
1.3183794918745708
-0.14648661020828566
0.24414435034714274
1.416037232013428
0.34180209048599985
0.04882887006942855
27.1976806286717
125.92965590905622
250.34561684596017
305.52224002441443
331.01091020065616
384.5273517967498
402.4963759822995
347.8080415045396
258.54886701762416
181.59456778820478
135.7930876630808
98.6831464103151
64.3076218814374
50.04959182116426
41.358052948805984
24.4632639047837
16.55298695353628
17.627222095063708
10.302891584649425
3.662165255207141
6.982528419928283
5.810635538261997
-0.24414435034714274
1.513694972152285
3.9551384756237127
-0.537117570763714
-1.1230640115968566
2.490272373540856
0.24414435034714274
-2.2949568932631417
0.9277485313191425
1.0254062714579995
-2.0019836728465705
-0.34180209048599985
1.416037232013428
-1.1230640115968566
-1.3183794918745708
1.0254062714579995
-0.14648661020828566
-1.6113527122911422
0.34180209048599985
0.43945983062485694
-1.513694972152285
-0.43945983062485694
0.6347753109025711
-0.9277485313191425
-0.9277485313191425
0.537117570763714
-0.24414435034714274
-1.1230640115968566
0.04882887006942855
0.14648661020828566
-1.0254062714579995
-0.34180209048599985
0.24414435034714274
-0.6347753109025711
-0.7324330510414282
0.04882887006942855
-0.34180209048599985
-0.9277485313191425
-0.04882887006942855
0.04882887006942855
-0.7324330510414282
-0.34180209048599985
0.04882887006942855
-0.537117570763714
-0.537117570763714
0.04882887006942855
-0.24414435034714274
-0.6347753109025711
-0.14648661020828566
-0.14648661020828566
-20.752269779507134
-111.6716258487831
-285.990691996643
-462.75120164797437
-535.6038757915618
-477.6928358892195
-354.2534523537041
-241.75173571374074
-165.48104066529336
-117.53109025711451
-86.76890211337454
-64.79591058213168
-46.92454413672083
-33.74074921797513
-24.853894865339132
-17.82253757534142
-12.353704127565424
-9.130998702983138
-6.6895551995117115
-4.345769436179141
-2.9785610742351416
-2.2949568932631417
-1.2207217517357138
-0.537117570763714
-0.537117570763714
-0.14648661020828566
0.14648661020828566
0.04882887006942855
0.04882887006942855
0.537117570763714
0.537117570763714
0.34180209048599985
0.537117570763714
0.6347753109025711
0.43945983062485694
0.537117570763714
0.7324330510414282
0.537117570763714
0.43945983062485694
0.6347753109025711
0.537117570763714
0.43945983062485694
0.537117570763714
0.537117570763714
0.43945983062485694
0.537117570763714
0.6347753109025711
0.537117570763714
0.43945983062485694
0.537117570763714
0.537117570763714
0.537117570763714
0.6347753109025711
6.982528419928283
58.936446173800256
221.8295567254139
457.57534142061496
589.0226596475165
528.670176241703
373.98031586175324
242.14236667429617
167.04356450751507
122.31631952391852
87.25719081406882
65.77248798352025
51.31914244296941
34.52201113908598
23.48668650339513
20.16632333867399
13.916227969787137
7.568474860761425
7.470817120622568
6.39658197909514
2.0019836728465705
1.9043259327077133
3.1738765545128556
0.537117570763714
-0.43945983062485694
1.513694972152285
0.537117570763714
-1.1230640115968566
0.24414435034714274
0.7324330510414282
-1.0254062714579995
-0.537117570763714
0.7324330510414282
-0.537117570763714
-1.0254062714579995
0.24414435034714274
-0.04882887006942855
-1.1230640115968566
-0.04882887006942855
0.14648661020828566
-0.8300907911802854
-0.537117570763714
0.24414435034714274
-0.43945983062485694
-0.7324330510414282
0.04882887006942855
-0.14648661020828566
-0.8300907911802854
-0.24414435034714274
-0.04882887006942855
-0.7324330510414282
-0.43945983062485694
0.04882887006942855
-0.43945983062485694
-0.537117570763714
-0.04882887006942855
-0.24414435034714274
-0.6347753109025711
-0.24414435034714274
-0.04882887006942855
-0.537117570763714
-0.34180209048599985
-0.04882887006942855
-0.43945983062485694
-0.537117570763714
-0.14648661020828566
-0.24414435034714274
-0.537117570763714
-0.24414435034714274
-0.14648661020828566
-0.43945983062485694
-0.34180209048599985
-0.14648661020828566
-0.34180209048599985
-0.34180209048599985
-0.14648661020828566
-0.24414435034714274
-0.43945983062485694
-0.24414435034714274
-0.24414435034714274
-13.037308308537423
-95.36278324559396
-289.0180819409476
-495.36888685435264
-564.9011978332189
-481.40383001449607
-340.97199969481954
-228.86091401541162
-160.30518043793393
-114.30838483253224
-82.96025024795911
-63.819333180743115
-46.533913176165406
-31.2993057145037
-23.87731746395056
-18.40848401617456
-11.181811245899137
-7.861448081177996
-7.373159380483711
-4.150453955901427
-1.9043259327077133
-2.8809033340962844
-1.9043259327077133
0.14648661020828566
-0.43945983062485694
-1.0254062714579995
0.537117570763714
0.6347753109025711
-0.43945983062485694
0.34180209048599985
1.1230640115968566
0.04882887006942855
0.14648661020828566
1.1230640115968566
0.537117570763714
0.04882887006942855
0.9277485313191425
0.7324330510414282
0.04882887006942855
0.537117570763714
0.9277485313191425
0.14648661020828566
0.24414435034714274
1.0254062714579995
0.6347753109025711
0.24414435034714274
0.7324330510414282
0.6347753109025711
5.420004577706569
65.77248798352025
216.06775005722133
359.2339971007858
418.2192721446555
433.0632486457618
412.26214999618526
342.72983901731897
249.3690394445716
164.89509422446022
114.69901579308767
88.62439917601282
62.35446707866026
42.72526131074998
35.79156176089113
26.025787747005417
14.404516670481422
12.74433508812085
11.767757686732281
4.736400396734569
3.2715342946517127
5.71297779812314
2.0996414129854277
-0.43945983062485694
2.490272373540856
1.7090104524299992
-1.513694972152285
0.34180209048599985
1.7090104524299992
-1.1230640115968566
-1.0254062714579995
1.2207217517357138
-0.34180209048599985
-1.6113527122911422
0.537117570763714
0.34180209048599985
-1.513694972152285
-0.24414435034714274
0.6347753109025711
-0.9277485313191425
-0.8300907911802854
0.537117570763714
-0.43945983062485694
-1.2207217517357138
0.04882887006942855
0.04882887006942855
-1.0254062714579995
-0.24414435034714274
0.24414435034714274
-0.7324330510414282
-0.6347753109025711
0.14648661020828566
-0.34180209048599985
-0.8300907911802854
0.04882887006942855
-0.04882887006942855
-0.7324330510414282
-0.24414435034714274
0.04882887006942855
-0.6347753109025711
-0.537117570763714
-0.04882887006942855
-0.34180209048599985
-0.6347753109025711
-0.14648661020828566
-0.14648661020828566
-0.6347753109025711
-0.24414435034714274
-0.04882887006942855
-0.43945983062485694
-0.43945983062485694
-0.04882887006942855
-0.34180209048599985
-0.43945983062485694
-0.14648661020828566
-0.24414435034714274
-39.20958266575113
-189.70016021972992
-416.55909056229495
-562.0691233691921
-537.7523460746166
-404.5471885252155
-271.4396887159533
-185.5985351338979
-131.78912031738764
-94.38620584420539
-71.43663691157397
-54.053559166857404
-36.86579690241855
-26.318760967421987
-21.14290074006256
-14.209201190203707
-8.838025482566568
-8.154421301594567
-5.810635538261997
-2.2949568932631417
-2.2949568932631417
-2.68558785381857
-0.43945983062485694
0.04882887006942855
-1.0254062714579995
0.04882887006942855
1.0254062714579995
-0.04882887006942855
0.04882887006942855
1.2207217517357138
0.537117570763714
0.04882887006942855
1.0254062714579995
0.8300907911802854
-0.04882887006942855
0.43945983062485694
1.0254062714579995
0.14648661020828566
0.24414435034714274
1.1230640115968566
0.6347753109025711
0.14648661020828566
0.8300907911802854
0.8300907911802854
0.24414435034714274
0.537117570763714
0.8300907911802854
0.24414435034714274
0.24414435034714274
0.6347753109025711
1.8066681925688564
56.49500267032883
247.8065156023499
480.4272526131075
548.4946974898909
456.69642175936525
341.7532616159304
259.23247119859616
199.56359197375448
141.65255207141223
95.46044098573282
74.75700007629511
56.690318150606544
34.81498435950255
27.100022888532845
24.560921644922562
13.232623788815136
7.763790341039139
10.693522545204852
6.298924238956283
0.537117570763714
3.8574807354848555
4.052796215762569
-1.1230640115968566
0.14648661020828566
3.076218814373999
-0.6347753109025711
-1.6113527122911422
1.8066681925688564
0.34180209048599985
-2.0996414129854277
0.43945983062485694
1.1230640115968566
-1.8066681925688564
-0.7324330510414282
1.1230640115968566
-0.9277485313191425
-1.416037232013428
0.8300907911802854
-0.04882887006942855
-1.513694972152285
0.04882887006942855
0.43945983062485694
-1.2207217517357138
-0.537117570763714
0.6347753109025711
-0.6347753109025711
-1.0254062714579995
0.34180209048599985
-0.14648661020828566
-1.1230640115968566
-0.04882887006942855
0.14648661020828566
-0.9277485313191425
-0.43945983062485694
0.24414435034714274
-0.537117570763714
-0.7324330510414282
0.04882887006942855
-0.14648661020828566
-0.7324330510414282
-0.14648661020828566
0.04882887006942855
-0.6347753109025711
-0.34180209048599985
0.04882887006942855
-0.537117570763714
-0.6347753109025711
-0.04882887006942855
-4.834058136873426
-62.54978255893797
-215.38414587624933
-385.8945601586938
-475.4467078660258
-475.0560769054704
-406.98863202868694
-309.52620737010756
-218.11856260013732
-147.1213855191882
-104.8355840390631
-80.42114900434882
-57.08094911116198
-39.69787136644541
-31.885252155336843
-22.998397802700847
-13.623254749370565
-11.377126726176853
-9.71694514381628
-4.443427176317998
-2.9785610742351416
-4.248111696040284
-1.7090104524299992
0.04882887006942855
-1.6113527122911422
-0.9277485313191425
1.1230640115968566
0.04882887006942855
-0.7324330510414282
1.0254062714579995
0.9277485313191425
-0.537117570763714
0.43945983062485694
1.1230640115968566
-0.24414435034714274
0.04882887006942855
1.2207217517357138
0.43945983062485694
-0.04882887006942855
1.1230640115968566
1.0254062714579995
0.04882887006942855
0.6347753109025711
1.1230640115968566
0.24414435034714274
0.34180209048599985
1.0254062714579995
0.43945983062485694
0.14648661020828566
0.9277485313191425
0.7324330510414282
0.04882887006942855
0.6347753109025711
0.9277485313191425
0.24414435034714274
0.34180209048599985
0.8300907911802854
0.537117570763714
0.24414435034714274
42.33463035019455
185.5985351338979
352.10498207064927
420.2700846875715
423.59044785229264
408.355840390631
354.9370565346761
269.8771648737316
181.30159456778821
121.82803082322422
94.09323262378882
68.31158922713054
44.580758373388264
36.768139162279695
29.443808651865414
15.869382772564279
12.060730907148852
13.232623788815136
6.298924238956283
2.197299153124285
5.71297779812314
3.5645075150682843
-1.0254062714579995
1.6113527122911422
2.8809033340962844
-1.3183794918745708
-0.6347753109025711
2.197299153124285
-0.43945983062485694
-1.7090104524299992
1.2207217517357138
0.43945983062485694
-1.9043259327077133
0.04882887006942855
0.9277485313191425
-1.416037232013428
-0.8300907911802854
0.9277485313191425
-0.6347753109025711
-1.3183794918745708
0.537117570763714
0.04882887006942855
-1.3183794918745708
-0.04882887006942855
0.43945983062485694
-1.0254062714579995
-0.6347753109025711
0.43945983062485694
-0.537117570763714
-1.0254062714579995
0.14648661020828566
-0.04882887006942855
-0.9277485313191425
-0.14648661020828566
0.14648661020828566
-0.7324330510414282
-0.537117570763714
0.14648661020828566
-0.43945983062485694
-0.6347753109025711
0.04882887006942855
-0.14648661020828566
-0.7324330510414282
-0.24414435034714274
-0.04882887006942855
-0.6347753109025711
-0.43945983062485694
0.04882887006942855
-0.34180209048599985
-0.537117570763714
-0.04882887006942855
-1.7090104524299992
-55.420767528801406
-221.8295567254139
-426.81315327687497
-535.6038757915618
-508.0643930724041
-393.5118638895247
-274.369420920119
-189.40718699931335
-130.91020065613793
-94.67917906462196
-72.90150301365682
-52.881666285191116
-36.27985046158541
-27.97894254978256
-20.84992751964599
-12.84199282825971
-9.912260624093996
-8.74036774242771
-4.638742656595713
-2.5879301136797133
-3.466849774929427
-1.8066681925688564
0.14648661020828566
-0.9277485313191425
-1.0254062714579995
0.7324330510414282
0.24414435034714274
-0.6347753109025711
0.6347753109025711
1.0254062714579995
-0.04882887006942855
0.34180209048599985
1.1230640115968566
0.24414435034714274
0.04882887006942855
1.1230640115968566
0.7324330510414282
0.04882887006942855
0.7324330510414282
0.8300907911802854
0.14648661020828566
0.43945983062485694
1.0254062714579995
0.43945983062485694
0.24414435034714274
0.9277485313191425
0.6347753109025711
0.24414435034714274
0.7324330510414282
0.8300907911802854
0.34180209048599985
33.44777599755856
171.43816281376363
374.5662623025864
490.19302662699323
481.5014877546349
411.773861295491
320.6591897459373
234.81803616388189
162.1606775005722
110.01144426642253
84.13214312962539
63.819333180743115
41.84634164950027
31.494621194781413
26.61173418783856
15.967040512703136
10.009918364232853
11.08415350576028
7.080186160067139
2.0019836728465705
3.9551384756237127
3.9551384756237127
-0.14648661020828566
0.43945983062485694
2.5879301136797133
-0.24414435034714274
-1.2207217517357138
1.3183794918745708
0.24414435034714274
-1.7090104524299992
0.24414435034714274
0.8300907911802854
-1.3183794918745708
-0.6347753109025711
0.8300907911802854
-0.6347753109025711
-1.1230640115968566
0.43945983062485694
0.04882887006942855
-1.2207217517357138
-0.04882887006942855
0.24414435034714274
-1.0254062714579995
-0.537117570763714
0.34180209048599985
-0.537117570763714
-0.8300907911802854
0.14648661020828566
-0.14648661020828566
-0.9277485313191425
-0.04882887006942855
0.04882887006942855
-0.7324330510414282
-0.43945983062485694
0.04882887006942855
-0.43945983062485694
-0.7324330510414282
-0.04882887006942855
-0.24414435034714274
-0.7324330510414282
-0.14648661020828566
-0.04882887006942855
-0.537117570763714
-0.43945983062485694
-0.04882887006942855
-0.34180209048599985
-0.537117570763714
-0.04882887006942855
-0.24414435034714274
-44.19012741283284
-208.74341954680705
-443.70794232089725
-575.3505760280766
-529.5490959029527
-387.0664530403601
-257.3769741359579
-177.8835736629282
-126.80857557030595
-90.67521171892882
-69.58113984893568
-52.588693064774546
-35.10795757991913
-25.439841306172273
-20.947585259784848
-13.330281528953995
-8.252079041733426
-8.154421301594567
-5.517662317845426
-1.8066681925688564
-2.490272373540856
-2.5879301136797133
0.04882887006942855
0.04882887006942855
-1.3183794918745708
0.14648661020828566
1.0254062714579995
-0.43945983062485694
-0.04882887006942855
1.3183794918745708
0.24414435034714274
-0.14648661020828566
1.1230640115968566
0.9277485313191425
-0.14648661020828566
0.6347753109025711
1.1230640115968566
0.14648661020828566
0.24414435034714274
1.1230640115968566
0.537117570763714
0.14648661020828566
0.9277485313191425
0.7324330510414282
0.04882887006942855
0.6347753109025711
0.9277485313191425
0.24414435034714274
0.34180209048599985
0.9277485313191425
0.43945983062485694
0.24414435034714274
54.44419012741283
228.4702830548562
438.4344243533989
542.6352330815595
507.9667353322652
388.72663462272067
269.3888761730373
186.47745479514762
128.76173037308308
93.2143129625391
72.5108720531014
52.49103532463569
35.49858854047456
27.97894254978256
21.14290074006256
12.549019607843137
9.71694514381628
9.033340962844282
4.638742656595713
2.490272373540856
3.8574807354848555
2.197299153124285
-0.04882887006942855
1.2207217517357138
1.416037232013428
-0.6347753109025711
-0.14648661020828566
0.9277485313191425
-0.537117570763714
-0.9277485313191425
0.43945983062485694
-0.04882887006942855
-1.1230640115968566
0.04882887006942855
0.24414435034714274
-0.9277485313191425
-0.43945983062485694
0.34180209048599985
-0.537117570763714
-0.7324330510414282
0.04882887006942855
-0.24414435034714274
-0.9277485313191425
-0.14648661020828566
0.04882887006942855
-0.7324330510414282
-0.43945983062485694
0.04882887006942855
-0.43945983062485694
-0.537117570763714
-0.04882887006942855
-0.24414435034714274
-0.6347753109025711
-0.14648661020828566
-0.04882887006942855
-0.537117570763714
-0.43945983062485694
-0.14648661020828566
-0.43945983062485694
-0.537117570763714
-0.14648661020828566
-0.24414435034714274
-0.537117570763714
-0.24414435034714274
-0.14648661020828566
-0.43945983062485694
-0.34180209048599985
-0.14648661020828566
-0.34180209048599985
-0.43945983062485694
-0.14648661020828566
-0.24414435034714274
-0.43945983062485694
-0.34180209048599985
-0.24414435034714274
-0.43945983062485694
-0.34180209048599985
-0.24414435034714274
-0.34180209048599985
-0.34180209048599985
-0.24414435034714274
-0.24414435034714274
-0.34180209048599985
-0.24414435034714274
-61.28023193713283
-271.4396887159533
-524.470893415732
-607.2846570534829
-499.7634851606012
-335.6008239871824
-218.50919356069275
-156.9848172732128
-112.74586099031052
-79.83520256351568
-63.819333180743115
-47.705806057831694
-29.346150911726557
-22.90074006256199
-19.971007858396277
-10.595864805065995
-6.494239719233997
-8.44739452201114
-4.541084916456855
-0.43945983062485694
-3.076218814373999
-2.8809033340962844
1.0254062714579995
-0.04882887006942855
-2.0019836728465705
1.0254062714579995
1.513694972152285
-1.1230640115968566
0.14648661020828566
2.0019836728465705
-0.14648661020828566
-0.34180209048599985
1.8066681925688564
0.8300907911802854
-0.43945983062485694
1.1230640115968566
1.416037232013428
-0.24414435034714274
0.43945983062485694
1.416037232013428
0.04882887006942855
-0.04882887006942855
1.416037232013428
0.8300907911802854
-0.04882887006942855
0.8300907911802854
3.466849774929427
19.971007858396277
87.94079499504082
251.22453650720988
464.11841000991836
573.2997634851606
507.9667353322652
358.74570840009153
232.86488136110475
161.37941557946135
118.5076676585031
84.42511635004196
63.526359960326545
49.56130312046998
33.252460517280845
22.510109102006563
19.385061417563133
13.525597009231708
7.177843900205997
7.177843900205997
6.201266498817426
2.0019836728465705
1.8066681925688564
3.1738765545128556
0.6347753109025711
-0.43945983062485694
1.416037232013428
0.537117570763714
-1.2207217517357138
0.14648661020828566
0.7324330510414282
-1.0254062714579995
-0.537117570763714
0.6347753109025711
-0.537117570763714
-1.0254062714579995
0.34180209048599985
-0.04882887006942855
-1.0254062714579995
-0.04882887006942855
0.24414435034714274
-0.8300907911802854
-0.537117570763714
0.14648661020828566
-0.537117570763714
-0.8300907911802854
0.04882887006942855
-0.14648661020828566
-0.8300907911802854
-0.14648661020828566
0.04882887006942855
-0.6347753109025711
-0.43945983062485694
0.04882887006942855
-0.43945983062485694
-0.537117570763714
-0.04882887006942855
-0.24414435034714274
-0.6347753109025711
-0.24414435034714274
-0.14648661020828566
-0.537117570763714
-0.34180209048599985
-0.04882887006942855
-0.34180209048599985
-0.43945983062485694
-0.14648661020828566
-0.24414435034714274
-0.537117570763714
-0.24414435034714274
-0.14648661020828566
-0.43945983062485694
-9.326314183260854
-66.84672312504769
-229.73983367666133
-456.50110627908754
-581.210040436408
-522.2247653925383
-371.6365300984207
-241.6540779736019
-166.35996032654307
-121.73037308308537
-87.06187533379111
-65.18654154268711
-50.44022278171969
-34.22903791866941
-23.19371328297856
-19.48271915770199
-13.525597009231708
-7.373159380483711
-6.884870679789426
-5.908293278400855
-2.0019836728465705
-1.6113527122911422
-2.783245593957427
-0.43945983062485694
0.6347753109025711
-1.1230640115968566
-0.34180209048599985
1.2207217517357138
0.04882887006942855
-0.43945983062485694
1.2207217517357138
0.8300907911802854
-0.24414435034714274
0.6347753109025711
1.1230640115968566
-0.04882887006942855
0.24414435034714274
1.2207217517357138
0.43945983062485694
0.04882887006942855
0.8300907911802854
0.6347753109025711
-0.04882887006942855
0.6347753109025711
0.9277485313191425
0.14648661020828566
0.43945983062485694
1.0254062714579995
0.43945983062485694
0.14648661020828566
0.8300907911802854
0.7324330510414282
0.24414435034714274
1.2207217517357138
45.85030899519341
204.44647898069735
405.7190814068818
491.8532082093538
460.8957045853361
390.4844739452201
308.84260318913556
228.6655985351339
156.3012130922408
106.49576562142367
82.86259250782025
61.182574196993976
39.5025558861677
31.592278934920273
26.025787747005417
14.306858930342566
10.009918364232853
11.377126726176853
6.005951018539712
1.7090104524299992
4.638742656595713
3.466849774929427
-0.7324330510414282
1.0254062714579995
2.5879301136797133
-0.8300907911802854
-0.8300907911802854
1.8066681925688564
-0.14648661020828566
-1.8066681925688564
0.7324330510414282
0.537117570763714
-1.6113527122911422
-0.14648661020828566
0.9277485313191425
-1.1230640115968566
-0.9277485313191425
0.7324330510414282
-0.34180209048599985
-1.3183794918745708
0.24414435034714274
0.14648661020828566
-1.2207217517357138
-0.34180209048599985
0.34180209048599985
-0.8300907911802854
-0.7324330510414282
0.24414435034714274
-0.34180209048599985
-0.9277485313191425
0.04882887006942855
0.04882887006942855
-0.8300907911802854
-0.24414435034714274
0.04882887006942855
-0.6347753109025711
-0.537117570763714
0.04882887006942855
-0.34180209048599985
-0.7324330510414282
-0.14648661020828566
-0.14648661020828566
-0.7324330510414282
-0.24414435034714274
-0.04882887006942855
-0.537117570763714
-0.43945983062485694
-0.04882887006942855
-0.34180209048599985
-0.537117570763714
-0.14648661020828566
-0.14648661020828566
-0.537117570763714
-0.24414435034714274
-0.14648661020828566
-0.43945983062485694
-0.34180209048599985
-0.14648661020828566
-45.26436255436027
-221.53658350499734
-474.5677882047761
-602.3041123064012
-529.9397268635081
-368.51148241397726
-237.84542610818647
-166.45761806668193
-121.14442664225223
-85.59700923170824
-66.06546120393683
-51.22148470283055
-32.95948729686427
-23.389028763256274
-20.752269779507134
-12.84199282825971
-6.787212939650568
-7.959105821316854
-5.908293278400855
-1.0254062714579995
-2.0996414129854277
-3.36919203479057
0.14648661020828566
0.537117570763714
-1.7090104524299992
0.04882887006942855
1.7090104524299992
-0.537117570763714
-0.43945983062485694
1.6113527122911422
0.34180209048599985
-0.537117570763714
1.3183794918745708
1.2207217517357138
-0.34180209048599985
0.6347753109025711
1.513694972152285
-0.04882887006942855
0.04882887006942855
1.3183794918745708
0.6347753109025711
0.04882887006942855
1.0254062714579995
0.9277485313191425
0.04882887006942855
0.537117570763714
1.0254062714579995
0.14648661020828566
0.14648661020828566
13.330281528953995
74.5616845960174
197.80575265125506
347.90569924467843
474.66544594491495
511.3847562371252
434.6257724879835
310.69810025177384
205.81368734264134
141.16426337071795
105.0308995193408
76.8078126192111
54.932478828107115
42.33463035019455
31.00633249408713
20.16632333867399
15.47875181200885
12.646677347981994
7.373159380483711
4.834058136873426
5.224689097428855
2.9785610742351416
0.9277485313191425
1.9043259327077133
1.513694972152285
-0.24414435034714274
0.24414435034714274
0.9277485313191425
-0.43945983062485694
-0.537117570763714
0.537117570763714
-0.04882887006942855
-0.9277485313191425
0.04882887006942855
0.04882887006942855
-0.9277485313191425
-0.34180209048599985
0.14648661020828566
-0.537117570763714
-0.6347753109025711
0.04882887006942855
-0.24414435034714274
-0.7324330510414282
-0.04882887006942855
-0.04882887006942855
-0.6347753109025711
-0.34180209048599985
0.04882887006942855
-0.43945983062485694
-0.43945983062485694
-0.04882887006942855
-0.34180209048599985
-0.6347753109025711
-0.24414435034714274
-0.14648661020828566
-0.537117570763714
-0.34180209048599985
-0.04882887006942855
-0.43945983062485694
-0.43945983062485694
-0.14648661020828566
-0.24414435034714274
-0.43945983062485694
-0.24414435034714274
-0.14648661020828566
-0.43945983062485694
-0.34180209048599985
-0.24414435034714274
-0.43945983062485694
-0.43945983062485694
-0.24414435034714274
-48.19409475852598
-230.61875333791104
-483.7476157778286
-603.2806897077897
-524.470893415732
-362.554360265507
-234.42740520332646
-164.6997787441825
-119.58190280003052
-84.52277409018082
-65.6748302433814
-50.44022278171969
-32.178225375753414
-23.19371328297856
-20.55695429922942
-12.45136186770428
-6.787212939650568
-8.05676356145571
-5.71297779812314
-0.9277485313191425
-2.2949568932631417
-3.1738765545128556
0.43945983062485694
0.43945983062485694
-1.8066681925688564
0.14648661020828566
1.513694972152285
-0.6347753109025711
-0.34180209048599985
1.6113527122911422
0.14648661020828566
-0.7324330510414282
1.2207217517357138
1.1230640115968566
-0.34180209048599985
0.7324330510414282
1.513694972152285
0.04882887006942855
0.14648661020828566
1.416037232013428
0.537117570763714
0.04882887006942855
1.1230640115968566
1.0254062714579995
0.04882887006942855
0.6347753109025711
1.0254062714579995
0.14648661020828566
0.34180209048599985
1.0254062714579995
0.43945983062485694
0.14648661020828566
0.9277485313191425
0.7324330510414282
0.04882887006942855
0.43945983062485694
26.807049668116274
112.45288776989395
229.64217593652248
345.9525444419013
454.05966277561606
491.6578927290761
422.71152819104293
303.080796520943
198.68467231250477
137.45326924544136
103.4683756771191
73.58510719462882
52.6863508049134
42.43228809033341
30.029755092698558
18.40848401617456
15.771725032425422
12.74433508812085
6.103608758678568
4.834058136873426
6.005951018539712
2.2949568932631417
0.43945983062485694
2.68558785381857
1.416037232013428
-0.9277485313191425
0.6347753109025711
1.3183794918745708
-1.0254062714579995
-0.537117570763714
0.9277485313191425
-0.537117570763714
-1.2207217517357138
0.43945983062485694
0.04882887006942855
-1.2207217517357138
-0.04882887006942855
0.34180209048599985
-0.9277485313191425
-0.537117570763714
0.34180209048599985
-0.537117570763714
-0.8300907911802854
0.14648661020828566
-0.14648661020828566
-0.9277485313191425
-0.24414435034714274
0.04882887006942855
-0.7324330510414282
-0.43945983062485694
0.04882887006942855
-0.43945983062485694
-0.6347753109025711
0.04882887006942855
-0.14648661020828566
-0.6347753109025711
-0.24414435034714274
-0.04882887006942855
-0.537117570763714
-0.43945983062485694
-0.04882887006942855
-0.43945983062485694
-0.6347753109025711
-0.14648661020828566
-0.24414435034714274
-0.537117570763714
-0.24414435034714274
-0.14648661020828566
-0.43945983062485694
-0.34180209048599985
-0.14648661020828566
-0.34180209048599985
-0.43945983062485694
-0.14648661020828566
-0.24414435034714274
-0.43945983062485694
-0.24414435034714274
-0.14648661020828566
-22.119478141451133
-127.88281071183337
-336.18677042801556
-529.0608072022584
-566.8543526359961
-456.4034485389487
-310.40512703135727
-206.49729152361334
-145.94949263752193
-105.12855725947966
-77.19844357976653
-59.32707713435569
-42.92057679102769
-28.857862211032273
-22.021820401312276
-16.943617914091707
-10.302891584649425
-7.470817120622568
-6.787212939650568
-3.662165255207141
-1.7090104524299992
-2.490272373540856
-1.513694972152285
0.14648661020828566
-0.43945983062485694
-0.8300907911802854
0.6347753109025711
0.43945983062485694
-0.34180209048599985
0.6347753109025711
1.1230640115968566
0.04882887006942855
0.14648661020828566
1.1230640115968566
0.43945983062485694
0.04882887006942855
0.9277485313191425
0.8300907911802854
0.24414435034714274
0.7324330510414282
0.9277485313191425
0.34180209048599985
0.43945983062485694
0.8300907911802854
0.43945983062485694
0.24414435034714274
13.13496604867628
57.471580071717405
149.95345998321508
309.4285496299687
468.41535057602806
501.5213244831006
420.5630579079881
319.58495460440986
236.38056000610362
174.66086823834593
124.56244754711223
85.6946669718471
65.18654154268711
49.56130312046998
32.37354085603113
23.87731746395056
20.45929655909056
12.549019607843137
7.470817120622568
8.252079041733426
5.615320057984283
1.416037232013428
2.68558785381857
3.076218814373999
-0.14648661020828566
0.04882887006942855
1.9043259327077133
-0.04882887006942855
-1.1230640115968566
0.8300907911802854
0.34180209048599985
-1.3183794918745708
0.04882887006942855
0.6347753109025711
-1.0254062714579995
-0.6347753109025711
0.537117570763714
-0.537117570763714
-1.1230640115968566
0.14648661020828566
-0.04882887006942855
-1.0254062714579995
-0.14648661020828566
0.14648661020828566
-0.7324330510414282
-0.537117570763714
0.24414435034714274
-0.43945983062485694
-0.7324330510414282
0.04882887006942855
-0.04882887006942855
-0.7324330510414282
-0.24414435034714274
0.04882887006942855
-0.6347753109025711
-0.537117570763714
0.04882887006942855
-0.34180209048599985
-0.6347753109025711
-0.04882887006942855
-0.14648661020828566
-0.537117570763714
-0.24414435034714274
-0.04882887006942855
-0.43945983062485694
-0.34180209048599985
-0.04882887006942855
-0.34180209048599985
-0.43945983062485694
-0.14648661020828566
-0.24414435034714274
-0.43945983062485694
-0.24414435034714274
-0.24414435034714274
-0.43945983062485694
-0.43945983062485694
-0.14648661020828566
-0.34180209048599985
-0.43945983062485694
-0.24414435034714274
-0.24414435034714274
-1.6113527122911422
-29.150835431448844
-138.7228198672465
-336.7727168688487
-517.5371938658732
-556.7956054016937
-454.2549782558938
-312.35828183413446
-207.66918440527962
-145.75417715724421
-105.7145037003128
-77.4914168001831
-58.54581521324483
-42.822919050888835
-29.443808651865414
-21.728847180895706
-16.650644693675137
-10.888838025482567
-7.568474860761425
-6.39658197909514
-3.9551384756237127
-1.9043259327077133
-2.0019836728465705
-1.416037232013428
-0.04882887006942855
-0.34180209048599985
-0.6347753109025711
0.34180209048599985
0.6347753109025711
0.04882887006942855
0.43945983062485694
0.8300907911802854
0.14648661020828566
0.04882887006942855
0.7324330510414282
0.537117570763714
0.14648661020828566
0.6347753109025711
0.7324330510414282
0.34180209048599985
0.537117570763714
0.8300907911802854
0.43945983062485694
0.34180209048599985
0.7324330510414282
0.43945983062485694
0.24414435034714274
0.6347753109025711
0.6347753109025711
0.34180209048599985
0.537117570763714
0.7324330510414282
10.009918364232853
34.52201113908598
69.38582436865796
155.42229343099106
301.029983978027
389.6055542839704
377.69130998702985
355.6206607156481
344.68299382009616
302.49485008010987
225.73586633096818
148.00030518043792
102.98008697642481
80.2258335240711
54.639505607690545
37.15877012283513
32.95948729686427
23.291371023117417
11.865415426871138
11.963073167009995
11.08415350576028
3.36919203479057
2.8809033340962844
5.810635538261997
1.416037232013428
-0.9277485313191425
2.783245593957427
1.513694972152285
-2.0019836728465705
0.537117570763714
1.7090104524299992
-1.6113527122911422
-0.9277485313191425
1.6113527122911422
-0.537117570763714
-1.7090104524299992
0.8300907911802854
0.24414435034714274
-1.7090104524299992
0.04882887006942855
0.7324330510414282
-1.2207217517357138
-0.8300907911802854
0.7324330510414282
-0.6347753109025711
-1.2207217517357138
0.34180209048599985
0.04882887006942855
-1.2207217517357138
-0.14648661020828566
0.34180209048599985
-0.9277485313191425
-0.537117570763714
0.34180209048599985
-0.43945983062485694
-0.8300907911802854
0.04882887006942855
-0.04882887006942855
-0.8300907911802854
-0.14648661020828566
0.04882887006942855
-0.7324330510414282
-0.537117570763714
0.04882887006942855
-0.43945983062485694
-0.7324330510414282
-0.04882887006942855
-0.14648661020828566
-0.6347753109025711
-0.24414435034714274
-0.04882887006942855
-16.650644693675137
-102.98008697642481
-286.86961165789273
-479.64599069199664
-551.6197451743343
-480.03662165255207
-347.22209506370643
-234.81803616388189
-162.55130846112763
-115.67559319447624
-84.81574731059739
-64.3076218814374
-46.63157091630426
-32.471198596169984
-24.365606164644845
-18.21316853589685
-11.865415426871138
-8.545052262149996
-7.080186160067139
-4.150453955901427
-2.392614633401999
-2.5879301136797133
-1.7090104524299992
-0.34180209048599985
-0.6347753109025711
-0.537117570763714
0.537117570763714
0.43945983062485694
-0.04882887006942855
0.43945983062485694
0.7324330510414282
0.04882887006942855
0.24414435034714274
0.9277485313191425
0.537117570763714
0.24414435034714274
0.7324330510414282
0.537117570763714
0.14648661020828566
0.6347753109025711
0.8300907911802854
0.24414435034714274
0.34180209048599985
0.7324330510414282
0.537117570763714
0.34180209048599985
0.7324330510414282
0.7324330510414282
0.537117570763714
0.6347753109025711
0.7324330510414282
0.537117570763714
48.97535667963683
208.35278858625162
397.8088044556344
489.3141069657435
476.71625848783094
402.88700694285495
307.47539482719156
220.4623483634699
149.56282902265966
104.8355840390631
81.20241092545967
58.74113069352254
39.5025558861677
31.68993667505913
24.267948424505988
13.916227969787137
10.79118028534371
10.595864805065995
5.224689097428855
2.5879301136797133
4.541084916456855
2.5879301136797133
-0.24414435034714274
1.513694972152285
1.8066681925688564
-0.8300907911802854
-0.24414435034714274
1.416037232013428
-0.43945983062485694
-1.1230640115968566
0.6347753109025711
0.04882887006942855
-1.416037232013428
0.04882887006942855
0.43945983062485694
-1.1230640115968566
-0.537117570763714
0.537117570763714
-0.537117570763714
-0.9277485313191425
0.24414435034714274
-0.04882887006942855
-1.0254062714579995
-0.04882887006942855
0.14648661020828566
-7.959105821316854
-22.60776684214542
-21.728847180895706
-2.68558785381857
12.45136186770428
14.599832150759136
8.349736781872283
0.04882887006942855
-6.6895551995117115
-7.666132600900283
-2.2949568932631417
2.0996414129854277
3.2715342946517127
3.1738765545128556
4.638742656595713
5.908293278400855
2.9785610742351416
0.537117570763714
1.8066681925688564
1.416037232013428
-0.537117570763714
0.24414435034714274
1.0254062714579995
-0.537117570763714
-0.6347753109025711
0.6347753109025711
-0.14648661020828566
-1.0254062714579995
0.04882887006942855
0.04882887006942855
-0.9277485313191425
-0.24414435034714274
0.24414435034714274
-0.6347753109025711
-0.6347753109025711
0.14648661020828566
-0.34180209048599985
-34.0337224383917
-145.46120393682764
-301.713588158999
-432.6726176852064
-494.7829404135195
-461.18867780575266
-360.503547722591
-251.4198519874876
-167.92248416876478
-118.99595635919738
-89.69863431754024
-64.20996414129854
-46.04562447547112
-35.98687724116884
-25.439841306172273
-16.16235599298085
-13.330281528953995
-10.498207064927138
-5.420004577706569
-4.150453955901427
-4.541084916456855
-1.7090104524299992
-0.34180209048599985
-1.6113527122911422
-0.6347753109025711
0.8300907911802854
-0.34180209048599985
-0.6347753109025711
0.9277485313191425
0.6347753109025711
-0.14648661020828566
0.7324330510414282
1.1230640115968566
0.04882887006942855
0.43945983062485694
1.2207217517357138
0.34180209048599985
0.04882887006942855
0.9277485313191425
0.537117570763714
-0.04882887006942855
0.6347753109025711
0.9277485313191425
0.34180209048599985
0.537117570763714
1.0254062714579995
0.537117570763714
0.34180209048599985
0.9277485313191425
0.7324330510414282
0.24414435034714274
0.537117570763714
0.6347753109025711
0.24414435034714274
22.021820401312276
118.01937895780881
259.330128938735
323.68657969024184
321.14747844663157
354.83939879453726
383.6484321355001
336.3820859082933
251.6151674677653
184.9149309529259
148.19562066071566
115.77325093461509
75.44060425726711
52.6863508049134
45.75265125505455
29.736781872281988
16.650644693675137
18.21316853589685
14.11154345006485
4.052796215762569
5.615320057984283
7.861448081177996
0.8300907911802854
-0.14648661020828566
4.443427176317998
0.9277485313191425
-2.392614633401999
1.9043259327077133
1.8066681925688564
-2.490272373540856
-0.14648661020828566
2.0996414129854277
-1.416037232013428
-1.513694972152285
1.7090104524299992
-0.14648661020828566
-2.0996414129854277
0.6347753109025711
0.7324330510414282
-1.9043259327077133
-0.34180209048599985
1.0254062714579995
-1.2207217517357138
-1.2207217517357138
0.8300907911802854
-0.24414435034714274
-1.513694972152285
0.24414435034714274
0.24414435034714274
-1.3183794918745708
-0.34180209048599985
0.537117570763714
-0.8300907911802854
-0.8300907911802854
0.34180209048599985
-0.24414435034714274
-1.0254062714579995
0.04882887006942855
0.04882887006942855
-0.9277485313191425
-0.34180209048599985
0.14648661020828566
-0.6347753109025711
-0.6347753109025711
0.04882887006942855
-0.34180209048599985
-0.7324330510414282
-0.04882887006942855
-0.04882887006942855
-4.638742656595713
-48.38941023880369
-189.5048447394522
-399.8596169985504
-544.5883878843366
-533.6507209887847
-411.38323033493555
-278.8616769665064
-188.52826733806364
-133.5469596398871
-96.82764934767681
-72.12024109254597
-54.24887464713512
-38.525978484779124
-27.1976806286717
-20.654612039368278
-14.599832150759136
-9.521629663538567
-7.373159380483711
-5.71297779812314
-3.076218814373999
-2.197299153124285
-2.197299153124285
-0.9277485313191425
-0.14648661020828566
-0.6347753109025711
-0.04882887006942855
0.7324330510414282
0.24414435034714274
0.04882887006942855
0.6347753109025711
0.537117570763714
0.14648661020828566
0.7324330510414282
0.8300907911802854
0.24414435034714274
0.34180209048599985
0.7324330510414282
0.537117570763714
0.43945983062485694
0.8300907911802854
0.7324330510414282
0.43945983062485694
0.6347753109025711
0.6347753109025711
0.34180209048599985
0.537117570763714
0.8300907911802854
0.537117570763714
0.43945983062485694
0.7324330510414282
0.7324330510414282
0.43945983062485694
0.537117570763714
28.66254673075456
161.77004654001678
399.46898603799497
573.9833676661326
558.5534447241931
417.1450370031281
274.5647364003967
186.2821393148699
134.81651026169223
96.04638742656596
71.53429465171283
56.1043717097734
38.62363622491798
25.830472266727703
21.728847180895706
15.771725032425422
8.545052262149996
7.763790341039139
7.177843900205997
2.68558785381857
1.8066681925688564
3.36919203479057
1.0254062714579995
-0.537117570763714
1.3183794918745708
0.9277485313191425
-1.1230640115968566
0.04882887006942855
0.9277485313191425
-0.8300907911802854
-0.7324330510414282
0.6347753109025711
-0.34180209048599985
-1.0254062714579995
0.24414435034714274
0.04882887006942855
-1.0254062714579995
-0.24414435034714274
0.14648661020828566
-0.7324330510414282
-0.6347753109025711
0.24414435034714274
-0.34180209048599985
-0.8300907911802854
0.04882887006942855
-0.04882887006942855
-0.7324330510414282
-0.24414435034714274
0.04882887006942855
-0.537117570763714
-7.177843900205997
-20.55695429922942
-20.84992751964599
-2.5879301136797133
12.256046387426567
13.427939269092851
7.373159380483711
3.466849774929427
3.2715342946517127
1.8066681925688564
0.34180209048599985
1.2207217517357138
1.1230640115968566
-0.34180209048599985
0.04882887006942855
0.6347753109025711
-0.34180209048599985
-0.537117570763714
0.24414435034714274
-0.14648661020828566
-0.7324330510414282
0.04882887006942855
0.04882887006942855
-0.7324330510414282
-0.34180209048599985
-25.92813000686656
-146.34012359807735
-356.40192263675897
-519.1973754482337
-534.8226138704509
-436.6765850308995
-310.600442511635
-214.60288395513848
-151.0276951247425
-106.00747692072939
-78.6633096818494
-60.59662775616083
-42.236972610055695
-29.346150911726557
-23.58434424353399
-16.55298695353628
-9.81460288395514
-8.44739452201114
-6.884870679789426
-2.8809033340962844
-2.2949568932631417
-3.076218814373999
-0.8300907911802854
0.24414435034714274
-1.1230640115968566
-0.34180209048599985
1.1230640115968566
0.04882887006942855
-0.43945983062485694
1.0254062714579995
0.6347753109025711
-0.24414435034714274
0.7324330510414282
1.2207217517357138
0.14648661020828566
0.34180209048599985
1.1230640115968566
0.34180209048599985
0.04882887006942855
0.9277485313191425
0.7324330510414282
0.24414435034714274
0.7324330510414282
0.8300907911802854
0.04882887006942855
0.34180209048599985
0.9277485313191425
0.34180209048599985
0.14648661020828566
0.7324330510414282
0.6347753109025711
0.24414435034714274
0.7324330510414282
15.381094071869994
57.764553292133975
112.06225680933852
195.36430914778362
329.741359578851
422.02792401007093
404.6448462653544
348.3939879453727
303.3737697413596
254.6425574120699
192.72755016403448
128.66407263294423
88.52674143587396
70.06942854962998
48.97535667963683
31.592278934920273
27.783627069504846
21.24055848020142
10.302891584649425
9.228656443121995
10.10757610437171
3.466849774929427
1.513694972152285
4.931715877012284
2.0019836728465705
-1.2207217517357138
1.9043259327077133
2.0019836728465705
-1.7090104524299992
-0.14648661020828566
1.9043259327077133
-1.0254062714579995
-1.416037232013428
1.2207217517357138
-0.04882887006942855
-1.8066681925688564
0.34180209048599985
0.6347753109025711
-1.513694972152285
-0.43945983062485694
0.8300907911802854
-0.8300907911802854
-1.0254062714579995
0.6347753109025711
-0.14648661020828566
-1.2207217517357138
0.04882887006942855
0.14648661020828566
-1.1230640115968566
-0.43945983062485694
0.34180209048599985
-0.6347753109025711
-0.8300907911802854
0.14648661020828566
-0.24414435034714274
-0.9277485313191425
-0.04882887006942855
0.04882887006942855
-0.7324330510414282
-0.34180209048599985
0.04882887006942855
-0.537117570763714
-0.537117570763714
0.04882887006942855
-0.24414435034714274
-0.6347753109025711
-0.14648661020828566
-0.14648661020828566
-0.6347753109025711
-0.34180209048599985
-0.04882887006942855
-0.43945983062485694
-0.537117570763714
-0.04882887006942855
-0.24414435034714274
-0.537117570763714
-0.14648661020828566
-0.14648661020828566
-0.43945983062485694
-0.34180209048599985
-0.14648661020828566
-55.713740749217976
-253.76363775082018
-506.50186923018236
-605.4291599908446
-510.40817883573663
-347.1244373235676
-225.4428931105516
-160.50049591821164
-115.67559319447624
-81.88601510643167
-64.79591058213168
-48.97535667963683
-30.518043793392845
-22.998397802700847
-20.263981078812847
-11.377126726176853
-6.591897459372854
-8.44739452201114
-5.0293736171511405
-0.6347753109025711
-2.783245593957427
-2.9785610742351416
0.8300907911802854
0.04882887006942855
-2.0019836728465705
0.537117570763714
1.513694972152285
-0.9277485313191425
0.04882887006942855
1.8066681925688564
0.04882887006942855
-0.34180209048599985
1.6113527122911422
0.8300907911802854
-0.537117570763714
0.9277485313191425
1.416037232013428
-0.24414435034714274
0.34180209048599985
1.513694972152285
0.24414435034714274
-0.04882887006942855
1.2207217517357138
0.8300907911802854
-0.04882887006942855
0.8300907911802854
1.1230640115968566
1.8066681925688564
45.069047074082555
210.50125886930647
454.54795147631035
585.6046387426566
525.2521553368429
376.910048065919
250.63859006637674
177.10231174181735
128.56641489280537
89.60097657740138
68.60456244754711
53.95590142671855
34.81498435950255
24.267948424505988
21.92416266117342
14.11154345006485
7.275501640344854
8.545052262149996
6.787212939650568
1.416037232013428
2.2949568932631417
3.8574807354848555
0.04882887006942855
-0.43945983062485694
2.197299153124285
0.34180209048599985
-1.6113527122911422
0.7324330510414282
0.8300907911802854
-1.513694972152285
-0.34180209048599985
1.0254062714579995
-0.9277485313191425
-1.0254062714579995
0.7324330510414282
-0.14648661020828566
-1.3183794918745708
0.14648661020828566
0.24414435034714274
-1.1230640115968566
-0.34180209048599985
0.43945983062485694
-0.8300907911802854
-0.9277485313191425
0.24414435034714274
-0.24414435034714274
-0.9277485313191425
0.04882887006942855
0.04882887006942855
-0.8300907911802854
-0.34180209048599985
0.14648661020828566
-0.537117570763714
-0.6347753109025711
0.04882887006942855
-0.24414435034714274
-0.7324330510414282
-0.04882887006942855
-0.04882887006942855
-0.6347753109025711
-0.34180209048599985
-0.04882887006942855
-0.537117570763714
-0.537117570763714
-0.04882887006942855
-0.24414435034714274
-0.537117570763714
-0.14648661020828566
-0.14648661020828566
-0.537117570763714
-0.34180209048599985
-0.04882887006942855
-0.34180209048599985
-0.43945983062485694
-0.14648661020828566
-0.24414435034714274
-38.1353475242237
-182.37582970931564
-400.7385366598001
-549.080643930724
-538.3382925154498
-414.31296253910125
-280.91248950942247
-190.8720531013962
-134.62119478141452
-97.02296482795452
-73.29213397421225
-55.03013656824598
-38.23300526436255
-27.392996108949415
-21.24055848020142
-14.404516670481422
-9.326314183260854
-7.959105821316854
-5.71297779812314
-2.68558785381857
-2.490272373540856
-2.392614633401999
-0.537117570763714
-0.14648661020828566
-0.8300907911802854
0.04882887006942855
0.8300907911802854
0.04882887006942855
0.04882887006942855
0.9277485313191425
0.43945983062485694
0.04882887006942855
0.7324330510414282
0.6347753109025711
0.04882887006942855
0.537117570763714
0.9277485313191425
0.34180209048599985
0.34180209048599985
1.0254062714579995
0.6347753109025711
0.34180209048599985
0.7324330510414282
0.6347753109025711
0.24414435034714274
0.537117570763714
0.7324330510414282
0.34180209048599985
0.43945983062485694
0.7324330510414282
0.537117570763714
0.34180209048599985
0.6347753109025711
0.6347753109025711
13.232623788815136
87.25719081406882
223.48973830777447
312.84657053482874
332.7687495231556
375.6404974441138
416.55909056229495
376.5194171053636
277.88509956511786
185.11024643320363
132.96101319905395
103.4683756771191
70.65537499046312
48.68238345922026
42.13931486991684
29.443808651865414
15.771725032425422
15.576409552147707
13.720912489509422
4.638742656595713
4.150453955901427
7.177843900205997
1.8066681925688564
-0.6347753109025711
3.5645075150682843
1.8066681925688564
-2.0996414129854277
0.9277485313191425
2.0019836728465705
-1.8066681925688564
-0.9277485313191425
1.8066681925688564
-0.7324330510414282
-1.8066681925688564
1.1230640115968566
0.24414435034714274
-1.9043259327077133
0.04882887006942855
0.9277485313191425
-1.416037232013428
-0.7324330510414282
0.9277485313191425
-0.6347753109025711
-1.3183794918745708
0.43945983062485694
0.04882887006942855
-1.416037232013428
-0.04882887006942855
0.34180209048599985
-1.0254062714579995
-0.6347753109025711
0.43945983062485694
-0.537117570763714
-0.9277485313191425
0.14648661020828566
-0.04882887006942855
-0.9277485313191425
-0.14648661020828566
0.04882887006942855
-0.7324330510414282
-0.43945983062485694
0.14648661020828566
-0.43945983062485694
-0.7324330510414282
-0.04882887006942855
-0.24414435034714274
-0.7324330510414282
-0.24414435034714274
-0.04882887006942855
-0.6347753109025711
-0.43945983062485694
0.04882887006942855
-22.119478141451133
-134.4258793011368
-355.13237201495383
-547.71343556878
-568.7098496986343
-444.8798352025635
-297.61196307316703
-199.0753032730602
-142.33615625238423
-101.80819409475852
-74.95231555657283
-58.44815747310597
-41.45571068894484
-27.392996108949415
-22.021820401312276
-16.650644693675137
-9.42397192339971
-7.568474860761425
-7.177843900205997
-3.2715342946517127
-1.6113527122911422
-2.9785610742351416
-1.3183794918745708
0.537117570763714
-0.8300907911802854
-0.8300907911802854
1.1230640115968566
0.537117570763714
-0.537117570763714
0.8300907911802854
1.1230640115968566
-0.24414435034714274
0.34180209048599985
1.416037232013428
0.24414435034714274
0.04882887006942855
1.1230640115968566
0.7324330510414282
0.04882887006942855
0.8300907911802854
0.9277485313191425
0.04882887006942855
0.43945983062485694
1.0254062714579995
0.34180209048599985
0.24414435034714274
0.9277485313191425
0.6347753109025711
0.24414435034714274
0.9277485313191425
0.9277485313191425
0.34180209048599985
31.9829098954757
149.85580224307623
308.45197222858013
409.52773327229727
451.5205615320058
444.0009155413138
374.0779736018921
274.6623941405356
183.74303807125963
124.56244754711223
95.16746776531625
69.77645532921339
47.0222018768597
37.35408560311284
29.2484931715877
17.13893339436942
12.646677347981994
12.549019607843137
6.6895551995117115
2.9785610742351416
5.224689097428855
3.36919203479057
-0.24414435034714274
1.513694972152285
2.392614633401999
-0.8300907911802854
-0.43945983062485694
1.7090104524299992
-0.24414435034714274
-1.416037232013428
0.8300907911802854
0.34180209048599985
-1.513694972152285
-0.04882887006942855
0.7324330510414282
-1.0254062714579995
-0.7324330510414282
0.537117570763714
-0.537117570763714
-1.1230640115968566
0.24414435034714274
0.04882887006942855
-1.1230640115968566
-0.14648661020828566
0.24414435034714274
-0.8300907911802854
-0.537117570763714
0.24414435034714274
-0.43945983062485694
-0.8300907911802854
0.04882887006942855
-0.04882887006942855
-0.8300907911802854
-0.24414435034714274
0.04882887006942855
-0.7324330510414282
-0.537117570763714
0.04882887006942855
-0.34180209048599985
-0.6347753109025711
-0.04882887006942855
-0.14648661020828566
-0.6347753109025711
-0.24414435034714274
-0.04882887006942855
-0.43945983062485694
-0.43945983062485694
-0.04882887006942855
-0.34180209048599985
-0.43945983062485694
-0.14648661020828566
-0.24414435034714274
-0.43945983062485694
-0.24414435034714274
-0.14648661020828566
-10.400549324788281
-68.60456244754711
-199.66124971389334
-364.89814602883956
-492.7321278706035
-514.8027771419852
-425.73891813534755
-300.6393530174716
-200.73548485542076
-138.42984664682993
-102.1011673151751
-75.34294651712825
-54.54184786755169
-40.67444876783398
-29.736781872281988
-20.16632333867399
-14.892805371175708
-11.47478446631571
-7.373159380483711
-4.834058136873426
-4.248111696040284
-2.783245593957427
-1.2207217517357138
-1.3183794918745708
-1.0254062714579995
0.14648661020828566
0.14648661020828566
-0.14648661020828566
0.43945983062485694
0.6347753109025711
0.04882887006942855
0.24414435034714274
0.8300907911802854
0.43945983062485694
0.34180209048599985
0.9277485313191425
0.6347753109025711
0.24414435034714274
0.537117570763714
0.537117570763714
0.24414435034714274
0.537117570763714
0.8300907911802854
0.537117570763714
0.43945983062485694
0.7324330510414282
0.537117570763714
0.34180209048599985
0.6347753109025711
0.7324330510414282
0.43945983062485694
0.537117570763714
0.7324330510414282
0.537117570763714
0.43945983062485694
0.537117570763714
0.43945983062485694
0.43945983062485694
18.310826276035705
100.53864347295338
225.63820859082932
287.8461890592813
302.78782330052644
354.2534523537041
382.378881513695
331.108567940795
258.15823605706873
207.76684214541848
174.56321049820707
134.81651026169223
87.15953307392996
61.08491645685512
51.709773403524835
33.44777599755856
19.971007858396277
21.14290074006256
15.47875181200885
5.0293736171511405
6.884870679789426
8.44739452201114
0.8300907911802854
0.34180209048599985
4.931715877012284
0.8300907911802854
-2.197299153124285
2.2949568932631417
1.7090104524299992
-2.5879301136797133
0.14648661020828566
2.197299153124285
-1.7090104524299992
-1.416037232013428
1.8066681925688564
-0.43945983062485694
-2.197299153124285
0.8300907911802854
0.537117570763714
-2.0019836728465705
-0.14648661020828566
1.0254062714579995
-1.2207217517357138
-1.0254062714579995
0.9277485313191425
-0.34180209048599985
-1.416037232013428
0.34180209048599985
0.14648661020828566
-1.3183794918745708
-0.24414435034714274
0.43945983062485694
-0.9277485313191425
-0.8300907911802854
0.34180209048599985
-0.43945983062485694
-1.0254062714579995
0.04882887006942855
0.04882887006942855
-0.9277485313191425
-0.24414435034714274
0.14648661020828566
-0.6347753109025711
-0.537117570763714
0.14648661020828566
-0.34180209048599985
-0.7324330510414282
-0.04882887006942855
-0.04882887006942855
-0.6347753109025711
-0.24414435034714274
-0.04882887006942855
-0.6347753109025711
-0.537117570763714
-0.04882887006942855
-0.34180209048599985
-0.537117570763714
-0.14648661020828566
-0.14648661020828566
-0.537117570763714
-34.32669565880827
-177.8835736629282
-411.4808880750744
-569.588769359884
-546.9321736476692
-408.7464713511864
-271.14671549553674
-184.5242999923705
-132.47272449835967
-94.77683680476082
-71.04600595101854
-54.639505607690545
-37.549401083390556
-25.830472266727703
-21.14290074006256
-14.795147631036851
-8.545052262149996
-7.666132600900283
-6.298924238956283
-2.392614633401999
-1.9043259327077133
-2.783245593957427
-0.6347753109025711
0.34180209048599985
-1.0254062714579995
-0.34180209048599985
1.1230640115968566
0.04882887006942855
-0.34180209048599985
1.0254062714579995
0.7324330510414282
-0.24414435034714274
0.6347753109025711
1.1230640115968566
0.04882887006942855
0.34180209048599985
1.1230640115968566
0.43945983062485694
0.14648661020828566
1.0254062714579995
0.7324330510414282
0.04882887006942855
0.7324330510414282
0.9277485313191425
0.14648661020828566
0.43945983062485694
0.9277485313191425
4.541084916456855
46.14328221560998
154.05508506904707
294.3892576485847
428.0827038986801
503.8651102464332
468.1223773556115
356.7925535973144
242.82597085526817
162.8442816815442
117.62874799725337
87.25719081406882
62.45212481879911
46.63157091630426
35.4009308003357
23.974975204089418
16.84596017395285
13.916227969787137
9.42397192339971
5.517662317845426
5.224689097428855
4.052796215762569
1.416037232013428
1.416037232013428
1.9043259327077133
0.24414435034714274
-0.14648661020828566
0.8300907911802854
0.04882887006942855
-0.7324330510414282
0.14648661020828566
0.24414435034714274
-0.7324330510414282
-0.34180209048599985
0.24414435034714274
-0.43945983062485694
-0.6347753109025711
0.04882887006942855
-0.24414435034714274
-0.7324330510414282
-0.04882887006942855
-0.04882887006942855
-0.6347753109025711
-0.43945983062485694
-0.04882887006942855
-0.537117570763714
-0.537117570763714
-0.04882887006942855
-0.24414435034714274
-0.537117570763714
-0.14648661020828566
-0.14648661020828566
-2.5879301136797133
-13.330281528953995
-40.186160067139696
-108.44892042420081
-227.78667887388417
-296.7330434119173
-219.0951400015259
-78.17502098115511
30.029755092698558
120.65613794155794
185.89150835431448
190.6767376211185
144.38696879530022
87.15953307392996
57.471580071717405
47.60814831769284
31.103990234225986
19.48271915770199
20.361638818951704
14.50217441062028
5.0293736171511405
6.787212939650568
7.861448081177996
0.8300907911802854
0.6347753109025711
4.638742656595713
0.6347753109025711
-1.9043259327077133
2.197299153124285
1.3183794918745708
-2.392614633401999
0.14648661020828566
-14.795147631036851
-116.35919737544823
-329.3507286182956
-532.8694590676738
-576.7177843900206
-463.5324635690852
-310.20981155107955
-205.61837186236363
-148.68390936140995
-105.61684596017395
-75.63591973754482
-60.8896009765774
-44.09246967269398
-27.1976806286717
-22.21713588158999
-18.506141756313422
-9.326314183260854
-6.6895551995117115
-8.252079041733426
-3.662165255207141
-0.537117570763714
-3.36919203479057
-2.197299153124285
1.3183794918745708
-0.537117570763714
-1.8066681925688564
1.2207217517357138
0.9277485313191425
-1.2207217517357138
0.537117570763714
1.8066681925688564
-0.43945983062485694
-0.04882887006942855
1.8066681925688564
0.43945983062485694
-0.34180209048599985
1.3183794918745708
1.1230640115968566
-0.34180209048599985
0.6347753109025711
1.416037232013428
0.04882887006942855
0.14648661020828566
1.3183794918745708
0.43945983062485694
0.04882887006942855
1.0254062714579995
0.8300907911802854
0.04882887006942855
0.7324330510414282
1.1230640115968566
0.24414435034714274
0.34180209048599985
1.1230640115968566
0.537117570763714
4.248111696040284
53.467612726024264
190.8720531013962
329.8390173189899
353.76516365300984
329.64370183871216
339.60479133287555
326.0303654535744
267.6310368505379
210.59891660944533
174.85618371862364
148.7815671015488
109.03486686503395
67.92095826657511
52.39337758449683
43.11589227130541
24.17029068436713
17.236591134508277
19.385061417563133
10.400549324788281
3.2715342946517127
8.05676356145571
6.103608758678568
-1.1230640115968566
1.9043259327077133
4.541084916456855
-1.2207217517357138
-1.2207217517357138
3.1738765545128556
0.04882887006942855
-2.5879301136797133
1.513694972152285
1.2207217517357138
-2.490272373540856
-0.14648661020828566
1.8066681925688564
-1.513694972152285
-1.416037232013428
1.416037232013428
-0.43945983062485694
-2.0019836728465705
0.6347753109025711
0.43945983062485694
-1.8066681925688564
-0.24414435034714274
0.9277485313191425
-1.1230640115968566
-1.0254062714579995
0.7324330510414282
-0.34180209048599985
-1.3183794918745708
0.24414435034714274
0.14648661020828566
-1.2207217517357138
-0.24414435034714274
0.43945983062485694
-0.8300907911802854
-0.8300907911802854
0.24414435034714274
-0.34180209048599985
-0.9277485313191425
0.04882887006942855
0.04882887006942855
-0.8300907911802854
-0.24414435034714274
0.14648661020828566
-0.6347753109025711
-0.537117570763714
0.04882887006942855
-0.34180209048599985
-0.7324330510414282
-0.04882887006942855
-0.04882887006942855
-0.6347753109025711
-0.24414435034714274
0.04882887006942855
-0.43945983062485694
-0.43945983062485694
-0.04882887006942855
-31.885252155336843
-180.03204394598308
-432.8679331654841
-597.9095140001526
-555.0377660791943
-396.2462806134127
-254.34958419165332
-174.66086823834593
-128.2734416723888
-90.2845807583734
-67.92095826657511
-54.15121690699626
-35.889219501029984
-23.682001983672848
-21.14290074006256
-14.795147631036851
-7.177843900205997
-7.666132600900283
-7.177843900205997
-1.7090104524299992
-1.513694972152285
-3.5645075150682843
-0.24414435034714274
1.3183794918745708
-1.416037232013428
-0.537117570763714
1.8066681925688564
-0.04882887006942855
-0.8300907911802854
1.6113527122911422
1.1230640115968566
-0.6347753109025711
0.8300907911802854
1.416037232013428
-0.34180209048599985
0.04882887006942855
1.6113527122911422
0.34180209048599985
-0.04882887006942855
1.416037232013428
1.0254062714579995
-0.14648661020828566
0.7324330510414282
1.1230640115968566
-0.04882887006942855
0.14648661020828566
1.2207217517357138
0.43945983062485694
0.14648661020828566
2.490272373540856
29.541466392004274
124.56244754711223
297.2213321126116
480.32959487296864
554.3541618982223
478.1811245899138
338.628213931487
222.90379186694133
153.2738231479362
112.74586099031052
82.27664606698711
60.401312275883114
45.947966735332265
32.6665140764477
22.21713588158999
17.334248874647134
12.939650568398566
7.861448081177996
6.005951018539712
5.322346837567712
2.783245593957427
1.513694972152285
2.197299153124285
1.1230640115968566
-0.04882887006942855
0.6347753109025711
0.6347753109025711
-0.43945983062485694
-0.14648661020828566
0.34180209048599985
-0.34180209048599985
-0.6347753109025711
0.04882887006942855
-0.24414435034714274
-0.7324330510414282
-0.14648661020828566
0.04882887006942855
-0.6347753109025711
-0.34180209048599985
0.04882887006942855
-0.43945983062485694
-0.537117570763714
-0.04882887006942855
-0.24414435034714274
-0.537117570763714
-0.14648661020828566
-0.14648661020828566
-0.537117570763714
-0.34180209048599985
-0.04882887006942855
-0.43945983062485694
-0.537117570763714
-0.24414435034714274
-0.34180209048599985
-0.537117570763714
-0.24414435034714274
-0.14648661020828566
-0.43945983062485694
-0.34180209048599985
-0.14648661020828566
-0.34180209048599985
-0.34180209048599985
-0.24414435034714274
-0.24414435034714274
-0.34180209048599985
-0.24414435034714274
-0.24414435034714274
-0.34180209048599985
-0.34180209048599985
-0.24414435034714274
-0.34180209048599985
-0.34180209048599985
-0.34180209048599985
-0.34180209048599985
-0.43945983062485694
-17.920195315480278
-100.92927443350881
-279.05699244678414
-483.1616693369955
-569.7840848401618
-491.5602349889372
-344.87830930037387
-226.22415503166246
-156.69184405279623
-114.21072709239338
-82.66727702754254
-61.96383611810483
-47.0222018768597
-32.37354085603113
-22.60776684214542
-18.11551079575799
-12.45136186770428
-7.470817120622568
-6.591897459372854
-5.224689097428855
-2.197299153124285
-1.9043259327077133
-2.2949568932631417
-0.43945983062485694
0.24414435034714274
-0.6347753109025711
0.04882887006942855
0.9277485313191425
0.04882887006942855
-0.04882887006942855
1.0254062714579995
0.6347753109025711
0.04882887006942855
0.7324330510414282
0.8300907911802854
0.04882887006942855
0.43945983062485694
1.0254062714579995
0.34180209048599985
0.24414435034714274
0.8300907911802854
0.6347753109025711
0.14648661020828566
0.6347753109025711
0.7324330510414282
0.24414435034714274
0.43945983062485694
0.7324330510414282
0.43945983062485694
0.43945983062485694
0.8300907911802854
0.6347753109025711
0.34180209048599985
0.6347753109025711
39.20958266575113
164.60212100404365
301.1276417181659
357.2808422980087
385.60158693827725
409.723048752575
376.32410162508586
293.80331120775156
208.45044632639048
150.44174868390937
116.84748607614252
82.66727702754254
54.24887464713512
44.67841611352712
34.52201113908598
18.994430457007706
15.381094071869994
15.674067292286564
7.080186160067139
3.466849774929427
7.177843900205997
3.7598229953459983
-0.8300907911802854
2.5879301136797133
3.076218814373999
-1.6113527122911422
-0.24414435034714274
2.392614633401999
-0.8300907911802854
-1.7090104524299992
1.513694972152285
0.24414435034714274
-2.0996414129854277
0.34180209048599985
0.9277485313191425
-1.6113527122911422
-0.6347753109025711
1.1230640115968566
-0.8300907911802854
-1.3183794918745708
0.7324330510414282
-0.04882887006942855
-1.513694972152285
0.04882887006942855
0.34180209048599985
-1.2207217517357138
-0.537117570763714
0.537117570763714
-0.6347753109025711
-0.9277485313191425
0.34180209048599985
-0.14648661020828566
-1.0254062714579995
-0.04882887006942855
0.14648661020828566
-0.8300907911802854
-0.43945983062485694
0.14648661020828566
-0.537117570763714
-0.6347753109025711
0.04882887006942855
-0.24414435034714274
-0.8300907911802854
-0.24414435034714274
-0.04882887006942855
-0.6347753109025711
-0.43945983062485694
0.04882887006942855
-0.43945983062485694
-0.537117570763714
-0.04882887006942855
-0.24414435034714274
-0.537117570763714
-0.14648661020828566
-0.14648661020828566
-0.537117570763714
-0.34180209048599985
-16.84596017395285
-124.46478980697337
-357.08552681773097
-562.9480430304418
-579.2568856336309
-445.07515068284124
-292.6314183260853
-195.1689936675059
-141.84786755168994
-101.12458991378652
-73.48744945448996
-58.74113069352254
-41.5533684290837
-26.318760967421987
-21.92416266117342
-17.236591134508277
-8.642710002288853
-6.982528419928283
-7.861448081177996
-3.076218814373999
-0.8300907911802854
-3.36919203479057
-1.7090104524299992
1.1230640115968566
-0.7324330510414282
-1.3183794918745708
1.3183794918745708
0.7324330510414282
-1.0254062714579995
0.8300907911802854
1.513694972152285
-0.43945983062485694
0.14648661020828566
1.6113527122911422
0.24414435034714274
-0.24414435034714274
1.2207217517357138
0.7324330510414282
-0.24414435034714274
0.8300907911802854
1.2207217517357138
0.04882887006942855
0.43945983062485694
1.416037232013428
0.34180209048599985
0.04882887006942855
1.0254062714579995
0.7324330510414282
0.14648661020828566
2.8809033340962844
62.54978255893797
237.25947966735333
438.14145113298235
531.6975661860075
496.5407797360189
385.3086137178607
271.83031967650874
188.6259250782025
129.34767681391622
94.09323262378882
73.09681849393453
52.002746623941405
35.69390402075227
28.66254673075456
20.947585259784848
12.45136186770428
10.302891584649425
9.130998702983138
4.248111696040284
2.783245593957427
4.150453955901427
1.8066681925688564
-0.04882887006942855
1.513694972152285
1.1230640115968566
-0.9277485313191425
0.04882887006942855
1.0254062714579995
-0.7324330510414282
-0.7324330510414282
0.6347753109025711
-0.24414435034714274
-1.0254062714579995
0.14648661020828566
0.14648661020828566
-0.9277485313191425
-0.24414435034714274
0.24414435034714274
-0.6347753109025711
-0.6347753109025711
0.14648661020828566
-0.34180209048599985
-0.8300907911802854
-0.04882887006942855
-0.04882887006942855
-0.7324330510414282
-0.24414435034714274
0.04882887006942855
-0.537117570763714
-0.537117570763714
0.04882887006942855
-0.34180209048599985
-0.6347753109025711
-0.04882887006942855
-0.14648661020828566
-0.537117570763714
-0.34180209048599985
-0.04882887006942855
-0.43945983062485694
-0.43945983062485694
-0.14648661020828566
-0.34180209048599985
-0.537117570763714
-0.24414435034714274
-0.24414435034714274
-0.43945983062485694
-0.34180209048599985
-0.14648661020828566
-0.43945983062485694
-0.34180209048599985
-0.14648661020828566
-0.34180209048599985
-10.595864805065995
-67.43266956588083
-214.89585717555505
-420.2700846875715
-551.4244296940566
-523.0060273136492
-392.73060196841385
-262.748149843595
-178.17654688334477
-127.98046845197223
-92.62836652170596
-68.50690470740825
-52.002746623941405
-36.768139162279695
-25.342183566033416
-19.775692378118563
-14.404516670481422
-8.838025482566568
-6.884870679789426
-5.810635538261997
-2.8809033340962844
-1.8066681925688564
-2.2949568932631417
-0.8300907911802854
0.24414435034714274
-0.6347753109025711
-0.43945983062485694
0.6347753109025711
0.24414435034714274
-0.14648661020828566
0.7324330510414282
0.7324330510414282
0.04882887006942855
0.6347753109025711
1.1230640115968566
0.34180209048599985
0.24414435034714274
0.8300907911802854
0.537117570763714
0.14648661020828566
0.7324330510414282
0.8300907911802854
0.34180209048599985
0.537117570763714
0.8300907911802854
0.43945983062485694
0.43945983062485694
0.9277485313191425
0.6347753109025711
0.34180209048599985
0.6347753109025711
0.7324330510414282
0.43945983062485694
11.377126726176853
86.08529793240254
274.07644769970244
477.8881513694972
533.2600900282292
450.3486686503395
341.4602883955138
255.03318837262532
189.21187151903564
132.47272449835967
91.55413138017853
71.33897917143511
52.78400854505226
33.74074921797513
26.709391927977418
22.314793621728846
12.353704127565424
8.44739452201114
9.71694514381628
5.224689097428855
1.3183794918745708
3.8574807354848555
3.076218814373999
-0.7324330510414282
0.6347753109025711
2.197299153124285
-0.7324330510414282
-0.9277485313191425
1.416037232013428
-0.04882887006942855
-1.513694972152285
0.537117570763714
0.537117570763714
-1.416037232013428
-0.24414435034714274
0.7324330510414282
-0.9277485313191425
-0.9277485313191425
0.537117570763714
-0.24414435034714274
-1.1230640115968566
0.14648661020828566
0.04882887006942855
-1.1230640115968566
-0.34180209048599985
0.24414435034714274
-0.7324330510414282
-0.7324330510414282
0.24414435034714274
-0.24414435034714274
-0.8300907911802854
0.04882887006942855
0.04882887006942855
-0.7324330510414282
-0.34180209048599985
0.04882887006942855
-0.537117570763714
-0.537117570763714
0.04882887006942855
-0.24414435034714274
-0.6347753109025711
-0.14648661020828566
-0.14648661020828566
-0.6347753109025711
-0.34180209048599985
-0.04882887006942855
-0.43945983062485694
-0.43945983062485694
-0.04882887006942855
-0.34180209048599985
-0.537117570763714
-0.14648661020828566
-0.14648661020828566
-0.43945983062485694
-0.24414435034714274
-0.14648661020828566
-0.34180209048599985
-0.43945983062485694
-0.14648661020828566
-0.24414435034714274
-0.43945983062485694
-0.24414435034714274
-43.11589227130541
-215.09117265583276
-468.3176928358892
-601.718165865568
-533.7483787289235
-372.80842298008696
-240.38452735179675
-167.72716868848707
-122.31631952391852
-86.37827115281911
-66.26077668421455
-51.61211566338598
-33.44777599755856
-23.291371023117417
-20.55695429922942
-13.13496604867628
-6.884870679789426
-7.861448081177996
-6.103608758678568
-1.1230640115968566
-1.9043259327077133
-3.1738765545128556
0.14648661020828566
0.6347753109025711
-1.8066681925688564
-0.04882887006942855
1.6113527122911422
-0.43945983062485694
-0.537117570763714
1.6113527122911422
0.537117570763714
-0.537117570763714
1.2207217517357138
1.3183794918745708
-0.34180209048599985
0.43945983062485694
1.416037232013428
0.04882887006942855
0.04882887006942855
1.3183794918745708
0.537117570763714
-0.04882887006942855
1.0254062714579995
1.0254062714579995
0.04882887006942855
0.537117570763714
1.2207217517357138
0.24414435034714274
0.14648661020828566
0.9277485313191425
12.060730907148852
54.44419012741283
147.6096742198825
309.6238651102464
485.2124818799115
546.8345159075303
462.16525520714123
321.63576714732585
210.59891660944533
148.0979629205768
108.54657816433966
77.39375906004425
58.643472953383686
45.16670481422141
30.127412832837415
20.947585259784848
17.82253757534142
11.865415426871138
6.6895551995117115
6.787212939650568
5.322346837567712
1.7090104524299992
1.9043259327077133
2.783245593957427
0.34180209048599985
-0.14648661020828566
1.416037232013428
0.24414435034714274
-0.9277485313191425
0.34180209048599985
0.43945983062485694
-1.0254062714579995
-0.34180209048599985
0.537117570763714
-0.6347753109025711
-0.8300907911802854
0.24414435034714274
-0.24414435034714274
-1.0254062714579995
0.04882887006942855
0.04882887006942855
-0.8300907911802854
-0.34180209048599985
0.14648661020828566
-0.537117570763714
-0.6347753109025711
0.04882887006942855
-0.24414435034714274
-0.6347753109025711
-0.14648661020828566
-0.04882887006942855
-0.6347753109025711
-0.34180209048599985
0.04882887006942855
-0.43945983062485694
-0.537117570763714
-0.14648661020828566
-0.34180209048599985
-0.6347753109025711
-0.14648661020828566
-0.14648661020828566
-0.537117570763714
-0.34180209048599985
-0.04882887006942855
-0.43945983062485694
-0.43945983062485694
-0.14648661020828566
-0.24414435034714274
-0.43945983062485694
-0.24414435034714274
-0.14648661020828566
-0.43945983062485694
-0.34180209048599985
-0.14648661020828566
-0.34180209048599985
-22.314793621728846
-111.47631036850538
-277.88509956511786
-457.7706569008927
-542.5375753414206
-485.99374380102233
-356.5972381170367
-239.31029221026932
-163.13725490196077
-117.53109025711451
-86.28061341268025
-63.72167544060426
-47.60814831769284
-34.22903791866941
-23.87731746395056
-17.627222095063708
-12.939650568398566
-8.545052262149996
-6.201266498817426
-5.0293736171511405
-3.076218814373999
-1.8066681925688564
-1.7090104524299992
-0.8300907911802854
0.04882887006942855
-0.14648661020828566
-0.14648661020828566
0.34180209048599985
0.24414435034714274
0.04882887006942855
0.537117570763714
0.6347753109025711
0.34180209048599985
0.537117570763714
0.8300907911802854
0.537117570763714
0.43945983062485694
0.7324330510414282
0.6347753109025711
0.43945983062485694
0.6347753109025711
0.6347753109025711
0.34180209048599985
0.43945983062485694
0.7324330510414282
0.6347753109025711
0.537117570763714
0.7324330510414282
0.6347753109025711
0.43945983062485694
0.537117570763714
0.537117570763714
0.43945983062485694
0.537117570763714
1.1230640115968566
36.37750820172427
134.52353704127566
233.93911650263217
313.23720149538417
401.9104295414664
429.6452277409018
365.7770656900893
285.50240329594874
227.20073243305103
184.9149309529259
141.84786755168994
94.19089036392768
65.47951476310368
53.760585946440834
36.475165941863125
22.21713588158999
21.24055848020142
16.357671473258563
6.591897459372854
6.884870679789426
8.349736781872283
1.9043259327077133
0.43945983062485694
4.345769436179141
1.3183794918745708
-1.7090104524299992
1.7090104524299992
1.7090104524299992
-2.0019836728465705
-0.14648661020828566
1.9043259327077133
-1.2207217517357138
-1.416037232013428
1.416037232013428
-0.14648661020828566
-1.8066681925688564
0.43945983062485694
0.6347753109025711
-1.6113527122911422
-0.34180209048599985
0.8300907911802854
-1.0254062714579995
-1.1230640115968566
0.6347753109025711
-0.24414435034714274
-1.3183794918745708
0.14648661020828566
0.24414435034714274
-1.1230640115968566
-0.34180209048599985
0.34180209048599985
-0.7324330510414282
-0.7324330510414282
0.24414435034714274
-0.24414435034714274
-0.9277485313191425
0.04882887006942855
0.04882887006942855
-0.8300907911802854
-0.34180209048599985
0.04882887006942855
-0.6347753109025711
-0.6347753109025711
0.04882887006942855
-0.24414435034714274
-0.7324330510414282
-0.04882887006942855
-0.04882887006942855
-0.6347753109025711
-0.34180209048599985
0.04882887006942855
-0.43945983062485694
-0.43945983062485694
-0.04882887006942855
-0.24414435034714274
-0.537117570763714
-0.14648661020828566
-0.14648661020828566
-0.43945983062485694
-0.24414435034714274
-0.14648661020828566
-0.43945983062485694
-24.65857938506142
-129.25001907377737
-324.1748683909361
-510.11520561532006
-559.9206530861371
-463.04417486839094
-320.6591897459373
-212.7473868925002
-148.39093614099338
-107.76531624322881
-79.05394064240483
-59.42473487449455
-43.70183871213855
-30.420386053253985
-22.119478141451133
-16.748302433813993
-11.181811245899137
-7.666132600900283
-6.39658197909514
-4.345769436179141
-2.197299153124285
-2.0019836728465705
-1.513694972152285
-0.14648661020828566
-0.14648661020828566
-0.537117570763714
0.24414435034714274
0.43945983062485694
-0.14648661020828566
0.14648661020828566
0.8300907911802854
0.43945983062485694
0.34180209048599985
0.8300907911802854
0.537117570763714
0.24414435034714274
0.7324330510414282
0.8300907911802854
0.43945983062485694
0.537117570763714
0.7324330510414282
0.43945983062485694
0.34180209048599985
0.6347753109025711
0.43945983062485694
0.34180209048599985
0.7324330510414282
0.8300907911802854
0.537117570763714
0.43945983062485694
0.6347753109025711
27.68596932936599
122.70695048447395
252.98237582970933
365.38643472953385
453.86434729533835
477.9858091096361
408.25818265049213
294.3892576485847
194.38773174639505
133.7422751201648
100.83161669336995
72.5108720531014
51.22148470283055
40.772106507972836
29.736781872281988
18.21316853589685
14.892805371175708
12.646677347981994
6.39658197909514
4.345769436179141
5.615320057984283
2.5879301136797133
0.24414435034714274
2.197299153124285
1.6113527122911422
-0.8300907911802854
0.34180209048599985
1.3183794918745708
-0.7324330510414282
-0.7324330510414282
0.8300907911802854
-0.24414435034714274
-1.1230640115968566
0.34180209048599985
0.14648661020828566
-1.1230640115968566
-0.24414435034714274
0.34180209048599985
-0.8300907911802854
-0.7324330510414282
0.24414435034714274
-0.34180209048599985
-0.9277485313191425
0.04882887006942855
0.04882887006942855
-0.8300907911802854
-0.24414435034714274
0.04882887006942855
-0.6347753109025711
-0.537117570763714
0.04882887006942855
-0.34180209048599985
-0.6347753109025711
-0.04882887006942855
-0.04882887006942855
-0.6347753109025711
-0.24414435034714274
-0.04882887006942855
-0.537117570763714
-0.537117570763714
-0.14648661020828566
-0.34180209048599985
-0.537117570763714
-0.14648661020828566
-0.24414435034714274
-0.537117570763714
-0.24414435034714274
-0.14648661020828566
-0.43945983062485694
-0.34180209048599985
-0.14648661020828566
-0.34180209048599985
-0.43945983062485694
-0.14648661020828566
-0.24414435034714274
-0.43945983062485694
-0.24414435034714274
-0.14648661020828566
-0.34180209048599985
-21.63118944075685
-110.01144426642253
-279.05699244678414
-463.3371480888075
-547.8110933089189
-486.67734798199433
-353.8628213931487
-236.47821774624248
-161.77004654001678
-116.84748607614252
-85.40169375143053
-63.03807125963226
-47.11985961699855
-33.64309147783627
-23.48668650339513
-17.627222095063708
-12.84199282825971
-8.44739452201114
-6.298924238956283
-4.931715877012284
-2.783245593957427
-1.7090104524299992
-1.7090104524299992
-0.7324330510414282
0.04882887006942855
-0.34180209048599985
-0.14648661020828566
0.537117570763714
0.24414435034714274
0.04882887006942855
0.6347753109025711
0.7324330510414282
0.24414435034714274
0.537117570763714
0.8300907911802854
0.34180209048599985
0.34180209048599985
0.8300907911802854
0.7324330510414282
0.43945983062485694
0.6347753109025711
0.6347753109025711
0.43945983062485694
0.43945983062485694
0.6347753109025711
0.43945983062485694
0.6347753109025711
0.8300907911802854
0.537117570763714
0.34180209048599985
0.43945983062485694
0.43945983062485694
0.34180209048599985
0.6347753109025711
0.6347753109025711
20.263981078812847
83.93682764934768
176.5163653009842
283.3539330128939
359.5269703212024
329.057755397879
261.1856260013733
271.0490577553979
309.8191805905241
290.48294804303043
215.97009231708248
138.9181353475242
97.12062256809338
74.26871137560083
49.17067215991455
35.303273060196844
31.592278934920273
20.55695429922942
10.888838025482567
12.256046387426567
9.71694514381628
2.392614633401999
3.466849774929427
5.517662317845426
0.43945983062485694
-0.43945983062485694
3.076218814373999
0.7324330510414282
-1.9043259327077133
1.1230640115968566
1.3183794918745708
-1.8066681925688564
-0.34180209048599985
1.416037232013428
-1.1230640115968566
-1.416037232013428
1.0254062714579995
-0.14648661020828566
-1.6113527122911422
0.34180209048599985
0.43945983062485694
-1.416037232013428
-0.34180209048599985
0.7324330510414282
-0.8300907911802854
-0.9277485313191425
0.537117570763714
-0.24414435034714274
-1.1230640115968566
0.04882887006942855
0.14648661020828566
-1.0254062714579995
-0.43945983062485694
0.24414435034714274
-0.7324330510414282
-0.7324330510414282
0.14648661020828566
-0.24414435034714274
-0.8300907911802854
-0.04882887006942855
0.04882887006942855
-0.7324330510414282
-0.34180209048599985
0.04882887006942855
-0.537117570763714
-0.537117570763714
0.04882887006942855
-0.24414435034714274
-0.6347753109025711
-0.14648661020828566
-0.04882887006942855
-0.537117570763714
-0.34180209048599985
-0.04882887006942855
-0.43945983062485694
-0.43945983062485694
-0.14648661020828566
-0.34180209048599985
-0.537117570763714
-0.24414435034714274
-28.174258030060273
-167.72716868848707
-418.2192721446555
-592.8313115129321
-560.9948882276647
-405.9143968871595
-261.28328374151215
-178.17654688334477
-130.81254291599907
-92.33539330128939
-68.89753566796368
-55.22545204852369
-37.15877012283513
-23.974975204089418
-21.14290074006256
-15.283436331731137
-7.373159380483711
-7.470817120622568
-7.373159380483711
-1.9043259327077133
-1.2207217517357138
-3.662165255207141
-0.7324330510414282
1.2207217517357138
-1.416037232013428
-0.8300907911802854
1.7090104524299992
0.04882887006942855
-0.9277485313191425
1.416037232013428
1.2207217517357138
-0.6347753109025711
0.7324330510414282
1.7090104524299992
-0.14648661020828566
0.04882887006942855
1.416037232013428
0.34180209048599985
-0.24414435034714274
1.2207217517357138
1.1230640115968566
-0.04882887006942855
0.6347753109025711
1.2207217517357138
0.14648661020828566
0.24414435034714274
1.2207217517357138
0.537117570763714
0.04882887006942855
0.9277485313191425
12.646677347981994
51.80743114366369
131.78912031738764
281.9867246509499
459.62615396353095
528.1818875410087
456.50110627908754
334.7219043259327
232.7672236209659
168.1177996490425
121.73037308308537
84.13214312962539
63.819333180743115
49.85427634088655
32.471198596169984
22.705424582284277
20.263981078812847
13.037308308537423
6.884870679789426
7.861448081177996
6.201266498817426
1.416037232013428
2.197299153124285
3.466849774929427
0.14648661020828566
-0.34180209048599985
1.9043259327077133
0.24414435034714274
-1.3183794918745708
0.6347753109025711
0.7324330510414282
-1.3183794918745708
-0.34180209048599985
0.8300907911802854
-0.9277485313191425
-1.0254062714579995
0.6347753109025711
-0.24414435034714274
-1.2207217517357138
0.04882887006942855
0.14648661020828566
-1.0254062714579995
-0.34180209048599985
0.34180209048599985
-0.6347753109025711
-0.7324330510414282
0.24414435034714274
-0.24414435034714274
-0.8300907911802854
0.04882887006942855
0.04882887006942855
-0.7324330510414282
-0.34180209048599985
0.04882887006942855
-0.6347753109025711
-0.6347753109025711
0.04882887006942855
-0.34180209048599985
-0.6347753109025711
-0.14648661020828566
-0.04882887006942855
-0.6347753109025711
-0.34180209048599985
-0.04882887006942855
-0.43945983062485694
-0.43945983062485694
-0.04882887006942855
-0.24414435034714274
-0.537117570763714
-0.14648661020828566
-0.14648661020828566
-0.43945983062485694
-0.34180209048599985
-0.14648661020828566
-0.34180209048599985
-0.34180209048599985
-0.14648661020828566
-0.24414435034714274
-0.43945983062485694
-0.34180209048599985
-39.20958266575113
-203.07927061875333
-456.3057907988098
-600.6439307240406
-540.9750514991989
-380.81635767147327
-245.16975661860076
-169.97329671168077
-124.36713206683451
-87.7454795147631
-66.74906538490883
-52.39337758449683
-34.22903791866941
-23.389028763256274
-20.84992751964599
-13.81857022964828
-7.080186160067139
-7.861448081177996
-6.494239719233997
-1.416037232013428
-1.7090104524299992
-3.2715342946517127
0.04882887006942855
0.8300907911802854
-1.6113527122911422
-0.24414435034714274
1.6113527122911422
-0.34180209048599985
-0.6347753109025711
1.6113527122911422
0.7324330510414282
-0.7324330510414282
0.9277485313191425
1.416037232013428
-0.24414435034714274
0.34180209048599985
1.513694972152285
0.24414435034714274
0.04882887006942855
1.3183794918745708
0.7324330510414282
-0.04882887006942855
0.8300907911802854
1.0254062714579995
0.04882887006942855
0.43945983062485694
1.1230640115968566
0.34180209048599985
0.24414435034714274
1.0254062714579995
0.537117570763714
0.04882887006942855
10.400549324788281
77.88204776073853
212.7473868925002
310.5027847714961
340.09308003356983
386.1875333791104
422.71152819104293
376.5194171053636
275.44365606164644
183.93835355153735
134.13290608072023
105.22621499961852
71.33897917143511
48.97535667963683
42.72526131074998
29.541466392004274
15.674067292286564
15.967040512703136
14.013885709925994
4.443427176317998
4.248111696040284
7.470817120622568
1.7090104524299992
-0.7324330510414282
3.7598229953459983
1.7090104524299992
-2.2949568932631417
1.1230640115968566
2.197299153124285
-2.0019836728465705
-0.8300907911802854
2.0019836728465705
-0.9277485313191425
-1.9043259327077133
1.2207217517357138
0.24414435034714274
-2.0996414129854277
0.14648661020828566
0.9277485313191425
-1.513694972152285
-0.7324330510414282
1.0254062714579995
-0.6347753109025711
-1.3183794918745708
0.537117570763714
0.04882887006942855
-1.416037232013428
0.04882887006942855
0.43945983062485694
-1.0254062714579995
-0.537117570763714
0.43945983062485694
-0.6347753109025711
-1.0254062714579995
0.14648661020828566
-0.14648661020828566
-1.0254062714579995
-0.04882887006942855
0.14648661020828566
-0.8300907911802854
-0.43945983062485694
0.14648661020828566
-0.43945983062485694
-0.7324330510414282
0.04882887006942855
-0.14648661020828566
-0.7324330510414282
-0.14648661020828566
0.04882887006942855
-0.537117570763714
-0.43945983062485694
0.04882887006942855
-0.34180209048599985
-0.537117570763714
-0.04882887006942855
-0.24414435034714274
-0.6347753109025711
-0.24414435034714274
-0.14648661020828566
-7.959105821316854
-72.5108720531014
-257.279316395819
-490.38834210727094
-590.2922102693217
-506.50186923018236
-350.6401159685664
-228.56794079499505
-160.01220721751736
-116.06622415503166
-83.05790798809797
-63.819333180743115
-48.38941023880369
-31.787594415197987
-22.998397802700847
-19.287403677424276
-12.158388647287708
-7.177843900205997
-7.470817120622568
-5.224689097428855
-1.513694972152285
-2.197299153124285
-2.490272373540856
0.04882887006942855
0.04882887006942855
-1.416037232013428
0.14648661020828566
1.1230640115968566
-0.43945983062485694
-0.04882887006942855
1.416037232013428
0.43945983062485694
-0.14648661020828566
1.1230640115968566
0.8300907911802854
-0.24414435034714274
0.43945983062485694
1.1230640115968566
0.14648661020828566
0.34180209048599985
1.2207217517357138
0.537117570763714
0.14648661020828566
1.0254062714579995
0.9277485313191425
0.14648661020828566
0.7324330510414282
1.0254062714579995
0.24414435034714274
24.365606164644845
99.07377737087053
199.7589074540322
322.7100022888533
458.25894560158696
510.8964675364309
438.9227130540932
311.8699931334401
203.95819028000304
141.84786755168994
106.00747692072939
75.34294651712825
54.83482108796826
43.70183871213855
30.322728313115128
19.287403677424276
16.650644693675137
12.74433508812085
6.201266498817426
5.420004577706569
5.908293278400855
2.0019836728465705
0.8300907911802854
2.783245593957427
1.0254062714579995
-0.8300907911802854
0.9277485313191425
1.0254062714579995
-1.1230640115968566
-0.14648661020828566
0.9277485313191425
-0.6347753109025711
-0.9277485313191425
0.6347753109025711
-0.14648661020828566
-1.1230640115968566
0.04882887006942855
0.14648661020828566
-1.0254062714579995
-0.43945983062485694
0.24414435034714274
-0.6347753109025711
-0.7324330510414282
0.14648661020828566
-0.24414435034714274
-0.8300907911802854
-0.04882887006942855
0.04882887006942855
-18.506141756313422
-55.32310978866255
-54.346532387273975
-5.71297779812314
32.37354085603113
36.182192721446555
21.045242999923705
9.71694514381628
9.033340962844282
6.201266498817426
1.8066681925688564
3.36919203479057
3.8574807354848555
0.04882887006942855
0.14648661020828566
2.2949568932631417
0.04882887006942855
-1.1230640115968566
1.1230640115968566
0.43945983062485694
-1.513694972152285
0.04882887006942855
0.8300907911802854
-1.1230640115968566
-0.7324330510414282
0.7324330510414282
-0.43945983062485694
-1.1230640115968566
0.34180209048599985
0.04882887006942855
-1.1230640115968566
-0.14648661020828566
0.24414435034714274
-0.9277485313191425
-0.6347753109025711
0.24414435034714274
-33.64309147783627
-178.5671778439002
-416.1684596017395
-576.9130998702983
-550.0572213321126
-405.7190814068818
-266.36148622873276
-182.4734874494545
-131.69146257724879
-93.11665522240024
-70.16708628976883
-54.83482108796826
-36.67048142214084
-24.95155260547799
-21.533531700617992
-14.795147631036851
-7.861448081177996
-7.861448081177996
-6.591897459372854
-1.9043259327077133
-1.8066681925688564
-3.1738765545128556
-0.34180209048599985
0.6347753109025711
-1.416037232013428
-0.34180209048599985
1.416037232013428
-0.14648661020828566
-0.43945983062485694
1.513694972152285
0.8300907911802854
-0.537117570763714
0.7324330510414282
1.2207217517357138
-0.24414435034714274
0.24414435034714274
1.416037232013428
0.34180209048599985
0.04882887006942855
1.0254062714579995
0.6347753109025711
-0.04882887006942855
0.7324330510414282
1.0254062714579995
0.14648661020828566
0.537117570763714
1.2207217517357138
0.43945983062485694
0.24414435034714274
0.9277485313191425
0.6347753109025711
9.42397192339971
74.5616845960174
220.36469062333106
342.9251544975967
354.64408331425955
340.48371099412526
356.89021133745325
342.6321812771801
280.71717402914476
207.57152666514077
153.0785076676585
119.09361409933624
83.74151216906996
53.85824368657969
44.38544289311055
35.10795757991913
19.092088197146563
15.185778591592278
15.967040512703136
7.275501640344854
3.1738765545128556
7.275501640344854
4.052796215762569
-1.0254062714579995
2.392614633401999
3.1738765545128556
-1.6113527122911422
-0.43945983062485694
2.68558785381857
-0.7324330510414282
-1.9043259327077133
1.6113527122911422
0.34180209048599985
-2.197299153124285
0.34180209048599985
1.1230640115968566
-1.7090104524299992
-0.7324330510414282
1.2207217517357138
-0.7324330510414282
-1.416037232013428
0.7324330510414282
0.04882887006942855
-1.513694972152285
0.04882887006942855
0.537117570763714
-1.2207217517357138
-0.6347753109025711
0.537117570763714
-0.6347753109025711
-1.0254062714579995
0.24414435034714274
-0.04882887006942855
-1.0254062714579995
-0.04882887006942855
0.14648661020828566
-0.8300907911802854
-0.43945983062485694
0.24414435034714274
-0.43945983062485694
-0.7324330510414282
0.04882887006942855
-0.14648661020828566
-0.7324330510414282
-0.14648661020828566
0.04882887006942855
-0.6347753109025711
-0.43945983062485694
0.04882887006942855
-0.43945983062485694
-0.537117570763714
-0.04882887006942855
-0.24414435034714274
-0.6347753109025711
-15.185778591592278
-106.10513466086825
-313.53017471580074
-524.8615243762874
-578.7685969329366
-471.63805600061033
-320.26855878538186
-211.18486305027847
-149.95345998321508
-108.2536049439231
-78.17502098115511
-60.59662775616083
-44.67841611352712
-29.2484931715877
-22.21713588158999
-17.920195315480278
-10.595864805065995
-7.177843900205997
-7.470817120622568
-4.345769436179141
-1.3183794918745708
-2.490272373540856
-2.0019836728465705
0.43945983062485694
-0.14648661020828566
-1.2207217517357138
0.6347753109025711
0.9277485313191425
-0.537117570763714
0.24414435034714274
1.3183794918745708
0.04882887006942855
0.04882887006942855
1.3183794918745708
0.6347753109025711
-0.04882887006942855
0.9277485313191425
0.9277485313191425
0.04882887006942855
0.537117570763714
1.1230640115968566
0.24414435034714274
0.14648661020828566
0.9277485313191425
0.6347753109025711
0.24414435034714274
0.8300907911802854
0.8300907911802854
0.24414435034714274
0.537117570763714
0.9277485313191425
28.27191577019913
115.77325093461509
231.20469977874419
349.2729076066224
461.0910200656138
494.4899671931029
419.0005340657664
297.12367437247275
194.87602044708933
136.18371862363622
101.90585183489738
72.21789883268482
52.588693064774546
41.943999389639124
28.95551995117113
18.40848401617456
15.967040512703136
12.256046387426567
5.908293278400855
5.322346837567712
5.71297779812314
1.9043259327077133
0.7324330510414282
2.68558785381857
1.0254062714579995
-0.8300907911802854
0.8300907911802854
0.9277485313191425
-1.1230640115968566
-0.24414435034714274
0.9277485313191425
-0.7324330510414282
-0.9277485313191425
0.537117570763714
-0.14648661020828566
-1.1230640115968566
0.04882887006942855
0.14648661020828566
-0.9277485313191425
-0.34180209048599985
0.34180209048599985
-0.6347753109025711
-0.7324330510414282
0.14648661020828566
-0.24414435034714274
-0.8300907911802854
-0.04882887006942855
0.04882887006942855
-0.7324330510414282
-0.43945983062485694
0.04882887006942855
-0.537117570763714
-0.6347753109025711
0.04882887006942855
-0.24414435034714274
-0.6347753109025711
-0.14648661020828566
-0.04882887006942855
-0.537117570763714
-0.34180209048599985
-0.04882887006942855
-0.43945983062485694
-0.43945983062485694
-0.04882887006942855
-0.24414435034714274
-0.537117570763714
-0.14648661020828566
-0.14648661020828566
-0.43945983062485694
-0.34180209048599985
-0.14648661020828566
-0.34180209048599985
-0.43945983062485694
-0.14648661020828566
-0.24414435034714274
-0.43945983062485694
-17.52956435492485
-114.79667353322652
-325.1514457923247
-530.2327000839247
-575.2529182879377
-464.11841000991836
-314.21377889677274
-207.86449988555734
-147.8049897001602
-106.49576562142367
-77.39375906004425
-60.108339055466544
-43.79949645227741
-28.66254673075456
-21.826504921034562
-17.334248874647134
-10.302891584649425
-7.275501640344854
-7.373159380483711
-4.052796215762569
-1.416037232013428
-2.5879301136797133
-1.7090104524299992
0.6347753109025711
-0.34180209048599985
-1.1230640115968566
0.537117570763714
0.537117570763714
-0.7324330510414282
0.34180209048599985
1.513694972152285
0.24414435034714274
0.24414435034714274
1.2207217517357138
0.34180209048599985
-0.24414435034714274
0.8300907911802854
0.9277485313191425
0.14648661020828566
0.8300907911802854
1.2207217517357138
0.14648661020828566
0.14648661020828566
0.9277485313191425
0.43945983062485694
0.14648661020828566
1.1230640115968566
1.1230640115968566
0.34180209048599985
0.43945983062485694
0.6347753109025711
0.14648661020828566
0.24414435034714274
0.8300907911802854
20.752269779507134
76.12420843823911
136.18371862363622
212.94270237277792
332.6710917830167
401.12916762035553
368.51148241397726
322.0263981078813
297.7096208133059
261.1856260013733
199.2706187533379
131.0078583962768
89.89394979781795
71.63195239185168
49.073014419775696
31.592278934920273
28.857862211032273
21.63118944075685
9.912260624093996
9.81460288395514
10.595864805065995
2.9785610742351416
1.513694972152285
5.420004577706569
1.7090104524299992
-1.513694972152285
2.2949568932631417
2.0019836728465705
-2.0996414129854277
0.04882887006942855
2.0996414129854277
-1.3183794918745708
-1.416037232013428
1.6113527122911422
-0.14648661020828566
-2.0019836728465705
0.6347753109025711
0.6347753109025711
-1.7090104524299992
-0.34180209048599985
1.0254062714579995
-1.0254062714579995
-1.1230640115968566
0.7324330510414282
-0.34180209048599985
-1.416037232013428
0.14648661020828566
0.24414435034714274
-1.2207217517357138
-0.34180209048599985
0.43945983062485694
-0.8300907911802854
-0.7324330510414282
0.34180209048599985
-0.34180209048599985
-0.9277485313191425
0.04882887006942855
0.04882887006942855
-0.8300907911802854
-0.24414435034714274
0.14648661020828566
-0.6347753109025711
-0.6347753109025711
0.04882887006942855
-0.24414435034714274
-0.7324330510414282
-0.04882887006942855
-0.04882887006942855
-0.7324330510414282
-0.34180209048599985
-0.04882887006942855
-0.537117570763714
-0.537117570763714
-0.04882887006942855
-0.34180209048599985
-0.537117570763714
-0.14648661020828566
-0.14648661020828566
-0.537117570763714
-0.24414435034714274
-0.04882887006942855
-0.43945983062485694
-0.43945983062485694
-32.86182955672541
-183.74303807125963
-437.45784695201036
-598.7884336614023
-552.3033493553063
-393.1212329289693
-252.20111390859847
-173.48897535667965
-127.78515297169452
-90.38223849851225
-67.82330052643626
-53.85824368657969
-35.69390402075227
-23.19371328297856
-20.45929655909056
-14.599832150759136
-7.373159380483711
-7.763790341039139
-7.177843900205997
-1.9043259327077133
-1.416037232013428
-3.1738765545128556
-0.14648661020828566
1.1230640115968566
-1.6113527122911422
-0.7324330510414282
1.6113527122911422
-0.04882887006942855
-0.7324330510414282
1.9043259327077133
1.513694972152285
-0.537117570763714
0.537117570763714
1.2207217517357138
-0.43945983062485694
0.04882887006942855
1.6113527122911422
0.7324330510414282
0.24414435034714274
1.3183794918745708
0.7324330510414282
-0.34180209048599985
0.6347753109025711
1.1230640115968566
0.14648661020828566
0.6347753109025711
1.6113527122911422
0.537117570763714
-0.14648661020828566
5.322346837567712
80.81177996490425
299.2721446555276
539.4125276569772
600.0579842832075
481.5991454947738
320.75684748607614
210.98954757000075
152.00427252613107
108.64423590447852
78.17502098115511
62.54978255893797
45.55733577477684
28.564888990615703
23.096055542839704
19.092088197146563
10.10757610437171
7.177843900205997
8.545052262149996
4.150453955901427
0.9277485313191425
3.5645075150682843
2.490272373540856
-0.9277485313191425
0.7324330510414282
2.0019836728465705
-0.9277485313191425
-0.7324330510414282
1.416037232013428
-0.24414435034714274
-1.416037232013428
0.6347753109025711
0.34180209048599985
-1.416037232013428
-0.14648661020828566
0.6347753109025711
-0.9277485313191425
-0.7324330510414282
0.537117570763714
-0.43945983062485694
-1.1230640115968566
0.14648661020828566
0.04882887006942855
-1.0254062714579995
-0.24414435034714274
0.24414435034714274
-0.7324330510414282
-13.232623788815136
-79.24925612268254
-246.73228046082247
-465.5832761120012
-577.2060730907149
-511.48241397726406
-362.26138704509043
-235.79461356527045
-162.35599298084992
-119.3865873197528
-85.79232471198596
-63.6240177004654
-49.17067215991455
-3.076218814373999
154.25040054932478
411.4808880750744
584.1397726405737
548.4946974898909
390.77744716563666
248.97840848401617
172.31708247501336
126.71091783016709
87.7454795147631
66.94438086518655
54.44419012741283
34.91264209964141
22.90074006256199
21.92416266117342
14.795147631036851
6.39658197909514
8.05676356145571
7.568474860761425
1.1230640115968566
-26.416418707560844
-122.31631952391852
-280.1312275883116
-432.77027542534523
-510.0175478751812
-476.3256275272755
-367.7302204928664
-250.2479591058213
-167.23887998779279
-122.02334630350195
-90.18692301823454
-63.03807125963226
-47.60814831769284
-36.475165941863125
-23.58434424353399
-16.943617914091707
-15.088120851453422
-9.521629663538567
-5.0293736171511405
-5.615320057984283
-3.8574807354848555
-0.24414435034714274
-1.3183794918745708
-2.490272373540856
-0.04882887006942855
0.24414435034714274
-1.3183794918745708
0.24414435034714274
1.8066681925688564
0.14648661020828566
-0.04882887006942855
1.1230640115968566
0.14648661020828566
-0.43945983062485694
0.9277485313191425
1.1230640115968566
0.14648661020828566
0.9277485313191425
1.3183794918745708
0.04882887006942855
0.04882887006942855
0.9277485313191425
0.43945983062485694
0.04882887006942855
1.2207217517357138
1.2207217517357138
0.24414435034714274
0.43945983062485694
0.7324330510414282
0.04882887006942855
0.14648661020828566
1.1230640115968566
14.404516670481422
58.8387884336614
147.21904325932707
290.67826352330815
419.29350728618294
435.21171892881665
383.2578011749447
334.23361562523843
279.44762340733956
214.01693751430534
147.70733196002135
99.26909285114824
75.9288929579614
56.49500267032883
36.57282368200198
28.760204470893417
24.072632944228275
13.623254749370565
9.130998702983138
10.302891584649425
5.810635538261997
1.6113527122911422
4.052796215762569
3.2715342946517127
-0.6347753109025711
0.6347753109025711
2.2949568932631417
-0.6347753109025711
-0.9277485313191425
1.513694972152285
0.04882887006942855
-1.6113527122911422
0.537117570763714
0.6347753109025711
-1.416037232013428
-0.34180209048599985
0.8300907911802854
-0.8300907911802854
-1.0254062714579995
0.6347753109025711
-0.24414435034714274
-1.2207217517357138
0.04882887006942855
0.04882887006942855
-1.1230640115968566
-0.34180209048599985
0.34180209048599985
-0.6347753109025711
-0.7324330510414282
0.24414435034714274
-0.24414435034714274
-0.8300907911802854
0.04882887006942855
0.04882887006942855
-0.7324330510414282
-0.34180209048599985
0.04882887006942855
-0.537117570763714
-0.537117570763714
0.04882887006942855
-0.24414435034714274
-0.6347753109025711
-0.14648661020828566
-0.14648661020828566
-0.6347753109025711
-0.34180209048599985
-0.04882887006942855
-0.43945983062485694
-0.43945983062485694
-0.04882887006942855
-0.24414435034714274
-0.537117570763714
-0.14648661020828566
-0.14648661020828566
-0.43945983062485694
-17.43190661478599
-113.2341496910048
-321.2451361867704
-526.7170214389257
-574.7646295872435
-465.97390707255664
-316.45990691996644
-209.42702372777904
-148.7815671015488
-107.47234302281224
-77.97970550087739
-60.2059967956054
-44.09246967269398
-28.95551995117113
-21.92416266117342
-17.627222095063708
-10.693522545204852
-7.373159380483711
-7.275501640344854
-4.052796215762569
-1.3183794918745708
-2.0996414129854277
-1.513694972152285
0.34180209048599985
-0.537117570763714
-1.3183794918745708
0.43945983062485694
0.7324330510414282
-0.43945983062485694
0.7324330510414282
1.6113527122911422
0.04882887006942855
-0.14648661020828566
0.9277485313191425
0.34180209048599985
-0.04882887006942855
1.0254062714579995
1.3183794918745708
0.43945983062485694
0.537117570763714
0.8300907911802854
0.04882887006942855
0.14648661020828566
0.9277485313191425
0.537117570763714
0.43945983062485694
1.0254062714579995
0.8300907911802854
0.04882887006942855
0.34180209048599985
0.6347753109025711
0.24414435034714274
0.43945983062485694
14.404516670481422
102.68711375600824
302.78782330052644
489.8023956664378
521.736476691844
436.57892729076065
333.25703822384986
249.75967040512703
183.3524071107042
126.71091783016709
89.60097657740138
70.06942854962998
49.951934081025406
32.764171816586554
27.002365148393988
20.84992751964599
11.279468986037996
9.130998702983138
9.42397192339971
4.150453955901427
1.8066681925688564
4.248111696040284
2.197299153124285
-0.6347753109025711
1.416037232013428
1.8066681925688564
-1.1230640115968566
-0.24414435034714274
1.416037232013428
-0.537117570763714
-1.2207217517357138
0.7324330510414282
0.04882887006942855
-1.513694972152285
0.04882887006942855
0.43945983062485694
-1.1230640115968566
-0.537117570763714
0.537117570763714
-0.6347753109025711
-0.9277485313191425
0.34180209048599985
-0.14648661020828566
-1.0254062714579995
-0.04882887006942855
0.14648661020828566
-0.8300907911802854
-0.43945983062485694
0.24414435034714274
-0.537117570763714
-0.7324330510414282
0.04882887006942855
-0.24414435034714274
-0.8300907911802854
-0.14648661020828566
0.04882887006942855
-0.6347753109025711
-0.43945983062485694
0.04882887006942855
-0.43945983062485694
-0.537117570763714
-0.04882887006942855
-0.24414435034714274
-0.537117570763714
-0.14648661020828566
-0.14648661020828566
-0.537117570763714
-0.34180209048599985
-0.04882887006942855
-0.34180209048599985
-0.43945983062485694
-0.14648661020828566
-0.24414435034714274
-0.43945983062485694
-0.24414435034714274
-0.24414435034714274
-0.537117570763714
-0.34180209048599985
-0.14648661020828566
-0.34180209048599985
-0.43945983062485694
-0.24414435034714274
-0.24414435034714274
-45.947966735332265
-198.3916990920882
-397.51583123521783
-519.685664148928
-514.5098039215686
-412.3598077363241
-291.75249866483557
-200.6378271152819
-138.33218890669107
-99.95269703212024
-76.22186617837797
-55.22545204852369
-38.33066300450141
-28.95551995117113
-21.24055848020142
-13.720912489509422
-10.79118028534371
-9.130998702983138
-5.127031357289998
-3.076218814373999
-3.2715342946517127
-1.416037232013428
0.24414435034714274
-0.8300907911802854
-1.1230640115968566
0.24414435034714274
0.04882887006942855
-0.537117570763714
0.7324330510414282
1.2207217517357138
0.24414435034714274
0.43945983062485694
0.8300907911802854
0.04882887006942855
0.04882887006942855
0.8300907911802854
0.7324330510414282
0.537117570763714
1.2207217517357138
0.9277485313191425
0.04882887006942855
0.14648661020828566
0.7324330510414282
0.34180209048599985
0.43945983062485694
1.3183794918745708
1.1230640115968566
0.34180209048599985
0.43945983062485694
0.43945983062485694
0.14648661020828566
0.43945983062485694
28.174258030060273
102.88242923628596
175.93041886015106
245.56038757915618
339.11650263218127
376.7147325856413
336.9680323491264
303.86205844205386
288.725108720531
254.6425574120699
193.31349660486762
125.73434042877851
86.37827115281911
69.28816662851911
46.826886396581976
30.127412832837415
28.27191577019913
20.752269779507134
9.130998702983138
9.71694514381628
10.400549324788281
2.5879301136797133
1.513694972152285
5.615320057984283
1.513694972152285
-1.6113527122911422
2.490272373540856
1.9043259327077133
-2.197299153124285
0.14648661020828566
2.0996414129854277
-1.513694972152285
-1.416037232013428
1.6113527122911422
-0.34180209048599985
-2.0019836728465705
0.7324330510414282
0.537117570763714
-1.8066681925688564
-0.14648661020828566
1.0254062714579995
-1.2207217517357138
-1.0254062714579995
0.8300907911802854
-0.34180209048599985
-1.416037232013428
0.34180209048599985
0.24414435034714274
-1.3183794918745708
-0.24414435034714274
0.43945983062485694
-0.8300907911802854
-0.7324330510414282
0.34180209048599985
-0.43945983062485694
-1.0254062714579995
0.04882887006942855
0.04882887006942855
-0.9277485313191425
-0.24414435034714274
0.14648661020828566
-0.6347753109025711
-0.537117570763714
0.04882887006942855
-0.34180209048599985
-0.7324330510414282
-0.04882887006942855
-0.04882887006942855
-0.6347753109025711
-0.24414435034714274
0.04882887006942855
-0.537117570763714
-0.43945983062485694
0.04882887006942855
-0.34180209048599985
-0.537117570763714
-0.14648661020828566
-0.14648661020828566
-0.6347753109025711
-0.34180209048599985
-0.14648661020828566
-0.43945983062485694
-0.43945983062485694
-35.69390402075227
-192.53223468375677
-446.14938582436866
-599.667353322652
-547.1274891279469
-387.5547417410544
-248.88075074387731
-171.43816281376363
-125.92965590905622
-89.21034561684596
-67.43266956588083
-53.27229724574655
-35.20561532005799
-23.389028763256274
-20.45929655909056
-13.81857022964828
-6.884870679789426
-7.666132600900283
-6.982528419928283
-1.8066681925688564
-1.6113527122911422
-3.36919203479057
-0.04882887006942855
1.2207217517357138
-1.513694972152285
-0.6347753109025711
1.513694972152285
-0.24414435034714274
-0.8300907911802854
1.513694972152285
1.1230640115968566
-0.43945983062485694
0.8300907911802854
1.2207217517357138
-0.43945983062485694
0.04882887006942855
1.513694972152285
0.34180209048599985
0.04882887006942855
1.416037232013428
0.7324330510414282
-0.34180209048599985
0.6347753109025711
1.0254062714579995
0.04882887006942855
0.43945983062485694
1.416037232013428
16.357671473258563
65.38185702296482
142.23849851224537
264.99427786678876
426.61783779659726
510.60349431601435
457.7706569008927
342.33920805676354
239.89623865110246
173.78194857709622
127.5898374914168
88.23376821545739
65.08888380254825
51.51445792324712
34.61966887922484
23.096055542839704
20.45929655909056
14.404516670481422
7.080186160067139
7.275501640344854
6.787212939650568
1.9043259327077133
1.6113527122911422
3.5645075150682843
0.7324330510414282
-0.7324330510414282
1.6113527122911422
0.8300907911802854
-1.416037232013428
0.24414435034714274
1.0254062714579995
-1.1230640115968566
-0.7324330510414282
0.8300907911802854
-0.43945983062485694
-1.1230640115968566
0.43945983062485694
0.04882887006942855
-1.2207217517357138
-0.14648661020828566
0.24414435034714274
-0.9277485313191425
-0.6347753109025711
0.34180209048599985
-0.43945983062485694
-0.9277485313191425
0.04882887006942855
-0.04882887006942855
-0.9277485313191425
-0.14648661020828566
0.04882887006942855
-0.6347753109025711
-0.537117570763714
0.04882887006942855
-0.34180209048599985
-0.6347753109025711
-0.04882887006942855
-0.14648661020828566
-0.6347753109025711
-0.24414435034714274
-0.04882887006942855
-0.537117570763714
-0.537117570763714
-0.04882887006942855
-0.43945983062485694
-0.537117570763714
-0.14648661020828566
-0.24414435034714274
-0.537117570763714
-0.24414435034714274
-0.14648661020828566
-0.43945983062485694
-0.34180209048599985
-0.14648661020828566
-0.34180209048599985
-0.43945983062485694
-0.14648661020828566
-0.24414435034714274
-0.43945983062485694
-0.24414435034714274
-3.076218814373999
-59.13176165407798
-236.38056000610362
-461.9699397268635
-570.0770580605783
-511.97070267795834
-371.92950331883725
-248.97840848401617
-173.09834439612422
-122.90226596475166
-88.33142595559625
-68.21393148699168
-50.83085374227512
-33.93606469825284
-25.24452582589456
-20.068665598535134
-12.256046387426567
-8.252079041733426
-8.349736781872283
-5.224689097428855
-1.9043259327077133
-2.8809033340962844
-2.392614633401999
0.34180209048599985
-0.04882887006942855
-1.3183794918745708
0.24414435034714274
0.7324330510414282
-0.537117570763714
0.14648661020828566
1.416037232013428
0.34180209048599985
0.14648661020828566
1.3183794918745708
0.6347753109025711
-0.24414435034714274
0.7324330510414282
0.9277485313191425
0.04882887006942855
0.7324330510414282
1.3183794918745708
0.24414435034714274
0.04882887006942855
0.8300907911802854
0.6347753109025711
0.14648661020828566
0.8300907911802854
1.0254062714579995
0.34180209048599985
0.43945983062485694
0.7324330510414282
0.24414435034714274
0.24414435034714274
0.8300907911802854
0.7324330510414282
0.43945983062485694
0.8300907911802854
4.541084916456855
12.060730907148852
40.57679102769512
145.75417715724421
297.12367437247275
364.01922636758985
352.0073243305104
361.4801251239796
375.05455100328066
332.6710917830167
242.7283131151293
157.37544823376822
112.06225680933852
85.49935149156939
56.7879758907454
41.26039520866713
36.37750820172427
23.19371328297856
12.84199282825971
14.209201190203707
10.79118028534371
2.8809033340962844
4.443427176317998
6.201266498817426
0.34180209048599985
-0.14648661020828566
3.5645075150682843
0.6347753109025711
-2.0019836728465705
1.513694972152285
1.3183794918745708
-2.0996414129854277
-0.14648661020828566
1.6113527122911422
-1.3183794918745708
-1.3183794918745708
1.2207217517357138
-0.34180209048599985
-1.8066681925688564
0.43945983062485694
0.43945983062485694
-1.6113527122911422
-0.34180209048599985
0.7324330510414282
-1.0254062714579995
-0.9277485313191425
0.6347753109025711
-0.34180209048599985
-1.2207217517357138
0.14648661020828566
0.14648661020828566
-1.1230640115968566
-0.24414435034714274
0.34180209048599985
-0.7324330510414282
-0.7324330510414282
0.24414435034714274
-0.24414435034714274
-0.9277485313191425
-0.04882887006942855
-0.04882887006942855
-0.8300907911802854
-0.34180209048599985
0.04882887006942855
-0.537117570763714
-0.537117570763714
0.04882887006942855
-0.34180209048599985
-0.6347753109025711
-0.04882887006942855
-0.14648661020828566
-0.6347753109025711
-0.24414435034714274
-0.04882887006942855
-0.43945983062485694
-0.43945983062485694
-0.04882887006942855
-6.6895551995117115
-76.02655069810025
-262.84580758373386
-473.6888685435264
-557.96749828336
-493.12275883115893
-360.3082322423133
-245.26741435873961
-170.85221637293049
-119.67956054016938
-86.67124437323568
-67.43266956588083
-48.97535667963683
-32.95948729686427
-25.63515678644999
-19.58037689784085
-11.572442206454566
-8.44739452201114
-7.959105821316854
-4.248111696040284
-2.0996414129854277
-3.2715342946517127
-1.8066681925688564
0.34180209048599985
-0.6347753109025711
-1.0254062714579995
0.8300907911802854
0.34180209048599985
-0.8300907911802854
0.43945983062485694
1.1230640115968566
-0.14648661020828566
0.24414435034714274
1.513694972152285
0.537117570763714
0.04882887006942855
0.9277485313191425
0.6347753109025711
-0.04882887006942855
0.6347753109025711
1.1230640115968566
0.34180209048599985
0.6347753109025711
1.1230640115968566
0.34180209048599985
0.14648661020828566
0.8300907911802854
0.7324330510414282
0.14648661020828566
0.7324330510414282
0.9277485313191425
0.34180209048599985
0.34180209048599985
0.7324330510414282
0.43945983062485694
0.34180209048599985
0.9277485313191425
0.9277485313191425
12.060730907148852
93.80025940337224
277.39681086442357
440.58289463645383
472.1263447013047
423.78576333257035
359.33165484092467
287.55321583886473
212.0637827115282
142.92210269321737
99.75738155184253
77.97970550087739
55.03013656824598
36.57282368200198
30.811017013809415
23.291371023117417
12.353704127565424
10.595864805065995
10.595864805065995
4.248111696040284
2.2949568932631417
5.0293736171511405
2.197299153124285
-0.8300907911802854
1.9043259327077133
1.9043259327077133
-1.416037232013428
-0.04882887006942855
