ecg
-1.6113527122911422
-0.04882887006942855
1.8066681925688564
-0.14648661020828566
-0.43945983062485694
1.6113527122911422
0.537117570763714
-0.6347753109025711
1.0254062714579995
1.2207217517357138
-0.34180209048599985
0.43945983062485694
1.513694972152285
0.14648661020828566
-0.04882887006942855
1.2207217517357138
0.537117570763714
-0.14648661020828566
0.9277485313191425
1.1230640115968566
0.14648661020828566
0.537117570763714
1.0254062714579995
0.14648661020828566
0.14648661020828566
1.0254062714579995
66.3584344243534
285.69771877622645
539.1195544365606
609.1401541161212
490.9742885481041
326.2256809338521
213.52864881361106
154.34805828946364
110.40207522697796
78.85862516212711
63.42870222018769
46.63157091630426
28.760204470893417
23.19371328297856
19.775692378118563
10.302891584649425
7.080186160067139
8.935683222705425
4.345769436179141
0.6347753109025711
3.5645075150682843
2.783245593957427
-1.0254062714579995
0.6347753109025711
2.197299153124285
-0.9277485313191425
-0.9277485313191425
1.513694972152285
-0.14648661020828566
-1.6113527122911422
0.6347753109025711
0.537117570763714
-1.513694972152285
-0.24414435034714274
0.8300907911802854
-1.0254062714579995
-0.9277485313191425
0.6347753109025711
-0.34180209048599985
-1.2207217517357138
0.14648661020828566
0.14648661020828566
-1.1230640115968566
-0.24414435034714274
0.34180209048599985
-0.7324330510414282
-0.7324330510414282
0.14648661020828566
-0.34180209048599985
-0.9277485313191425
0.04882887006942855
0.04882887006942855
-0.8300907911802854
-0.34180209048599985
0.04882887006942855
-0.537117570763714
-0.537117570763714
0.04882887006942855
-0.34180209048599985
-0.6347753109025711
-0.04882887006942855
-0.14648661020828566
-0.6347753109025711
-0.24414435034714274
-0.04882887006942855
-0.43945983062485694
-0.43945983062485694
-0.04882887006942855
-0.34180209048599985
-0.537117570763714
-0.14648661020828566
-0.14648661020828566
-0.43945983062485694
-0.24414435034714274
-0.14648661020828566
-0.34180209048599985
-0.34180209048599985
-0.14648661020828566
-0.24414435034714274
-0.43945983062485694
-0.24414435034714274
-29.736781872281988
-173.78194857709622
-427.30144197756925
-597.9095140001526
-558.7487602044708
-400.15259021896696
-256.49805447470817
-175.53978789959564
-129.1523613336385
-91.06584267948425
-68.21393148699168
-54.639505607690545
-36.475165941863125
-23.779659723811704
-21.14290074006256
-14.990463111314565
-6.982528419928283
-7.177843900205997
-7.080186160067139
-1.7090104524299992
-1.2207217517357138
-3.5645075150682843
-0.537117570763714
1.2207217517357138
-1.416037232013428
-0.7324330510414282
1.8066681925688564
-0.04882887006942855
-1.1230640115968566
1.416037232013428
1.2207217517357138
-0.6347753109025711
0.7324330510414282
1.7090104524299992
-0.04882887006942855
0.04882887006942855
1.513694972152285
0.34180209048599985
-0.24414435034714274
1.2207217517357138
1.1230640115968566
-0.04882887006942855
0.7324330510414282
1.1230640115968566
0.04882887006942855
0.14648661020828566
1.1230640115968566
0.43945983062485694
0.14648661020828566
1.0254062714579995
15.47875181200885
116.84748607614252
348.97993438620585
561.3855191882201
582.8702220187686
450.25101091020065
297.0260166323339
197.41512169069964
143.11741817349508
102.58945601586939
74.46402685587854
59.13176165407798
42.43228809033341
27.100022888532845
22.119478141451133
17.627222095063708
9.42397192339971
7.275501640344854
7.861448081177996
3.662165255207141
1.2207217517357138
3.36919203479057
2.0019836728465705
-0.7324330510414282
0.8300907911802854
1.513694972152285
-0.9277485313191425
-0.537117570763714
1.2207217517357138
-0.43945983062485694
-1.2207217517357138
0.537117570763714
0.14648661020828566
-1.3183794918745708
-0.04882887006942855
0.43945983062485694
-0.9277485313191425
-0.6347753109025711
0.43945983062485694
-0.43945983062485694
-0.9277485313191425
0.14648661020828566
-0.04882887006942855
-0.9277485313191425
-0.14648661020828566
0.14648661020828566
-0.7324330510414282
-0.43945983062485694
0.14648661020828566
-0.43945983062485694
-0.7324330510414282
0.04882887006942855
-0.14648661020828566
-0.7324330510414282
-0.24414435034714274
-0.04882887006942855
-0.6347753109025711
-0.537117570763714
-0.04882887006942855
-0.34180209048599985
-0.537117570763714
-0.14648661020828566
-0.24414435034714274
-0.537117570763714
-0.24414435034714274
-0.14648661020828566
-0.43945983062485694
-0.34180209048599985
-0.04882887006942855
-0.34180209048599985
-0.43945983062485694
-0.14648661020828566
-0.24414435034714274
-0.43945983062485694
-0.24414435034714274
-0.14648661020828566
-0.43945983062485694
-0.34180209048599985
-0.14648661020828566
-0.34180209048599985
-0.34180209048599985
-0.24414435034714274
-2.2949568932631417
-70.16708628976883
-285.01411459525445
-532.1858548867018
-604.1596093690395
-491.07194628824294
-327.98352025635154
-214.40756847486077
-154.54337376974135
-110.69504844739453
-78.6633096818494
-62.9404135194934
-46.43625543602655
-28.564888990615703
-22.705424582284277
-19.678034637979707
-10.400549324788281
-6.787212939650568
-8.642710002288853
-4.345769436179141
-0.43945983062485694
-3.1738765545128556
-2.68558785381857
1.2207217517357138
-0.14648661020828566
-2.0019836728465705
0.9277485313191425
1.3183794918745708
-1.1230640115968566
0.43945983062485694
1.9043259327077133
-0.34180209048599985
-0.43945983062485694
1.7090104524299992
0.6347753109025711
-0.43945983062485694
1.2207217517357138
1.3183794918745708
-0.34180209048599985
0.43945983062485694
1.3183794918745708
0.04882887006942855
0.04882887006942855
1.416037232013428
0.7324330510414282
-0.04882887006942855
1.0254062714579995
27.783627069504846
164.99275196459908
419.29350728618294
598.0071717402915
563.5339894712749
405.5237659266041
260.697337300679
177.49294270237277
130.42191195544365
92.62836652170596
69.0928511482414
54.932478828107115
37.256427862973986
24.4632639047837
21.338216220340275
15.47875181200885
7.861448081177996
7.568474860761425
7.275501640344854
2.2949568932631417
1.513694972152285
3.662165255207141
1.0254062714579995
-0.7324330510414282
1.513694972152285
0.9277485313191425
-1.416037232013428
0.04882887006942855
1.1230640115968566
-1.0254062714579995
-0.8300907911802854
0.8300907911802854
-0.34180209048599985
-1.2207217517357138
0.34180209048599985
0.14648661020828566
-1.2207217517357138
-0.14648661020828566
0.43945983062485694
-0.8300907911802854
-0.6347753109025711
0.34180209048599985
-0.34180209048599985
-0.9277485313191425
0.04882887006942855
0.04882887006942855
-0.8300907911802854
-0.24414435034714274
0.14648661020828566
-0.6347753109025711
-0.537117570763714
0.04882887006942855
-0.34180209048599985
-0.6347753109025711
-0.04882887006942855
-0.14648661020828566
-0.6347753109025711
-0.24414435034714274
0.04882887006942855
-0.537117570763714
-0.43945983062485694
0.04882887006942855
-0.34180209048599985
-0.6347753109025711
-0.24414435034714274
-0.24414435034714274
-0.537117570763714
-0.24414435034714274
-0.14648661020828566
-0.43945983062485694
-0.43945983062485694
-0.14648661020828566
-0.34180209048599985
-0.43945983062485694
-0.24414435034714274
-0.24414435034714274
-0.43945983062485694
-0.24414435034714274
-0.14648661020828566
-0.34180209048599985
-20.16632333867399
-135.89074540321965
-373.68734264133667
-571.4442664225223
-574.2763408865492
-434.2351415274281
-284.2328526741436
-190.57907988097963
-138.5275043869688
-98.58548867017625
-72.41321431296254
-57.66689555199512
-40.38147554741741
-25.830472266727703
-21.63118944075685
-16.55298695353628
-8.44739452201114
-7.080186160067139
-7.470817120622568
-2.8809033340962844
-1.1230640115968566
-3.2715342946517127
-1.3183794918745708
1.0254062714579995
-0.9277485313191425
-1.1230640115968566
1.416037232013428
0.34180209048599985
-1.0254062714579995
0.9277485313191425
1.416037232013428
-0.34180209048599985
0.24414435034714274
1.513694972152285
0.04882887006942855
-0.14648661020828566
1.416037232013428
0.8300907911802854
-0.04882887006942855
0.9277485313191425
1.1230640115968566
0.04882887006942855
0.43945983062485694
1.3183794918745708
0.34180209048599985
0.14648661020828566
1.0254062714579995
0.6347753109025711
0.04882887006942855
0.7324330510414282
0.8300907911802854
0.04882887006942855
0.537117570763714
45.654993514915695
220.2670328831922
473.29823758297096
602.9877164873732
531.0139620050355
369.48805981536583
239.01731898985275
167.23887998779279
121.33974212252994
85.98764019226367
66.65140764476998
51.416800183108265
33.15480277714199
23.779659723811704
20.84992751964599
13.037308308537423
7.275501640344854
8.252079041733426
6.005951018539712
1.3183794918745708
2.490272373540856
3.36919203479057
0.04882887006942855
-0.14648661020828566
2.0019836728465705
0.04882887006942855
-1.2207217517357138
0.8300907911802854
0.537117570763714
-1.416037232013428
-0.04882887006942855
0.8300907911802854
-0.9277485313191425
-0.8300907911802854
0.6347753109025711
-0.34180209048599985
-1.1230640115968566
0.24414435034714274
0.04882887006942855
-1.0254062714579995
-0.24414435034714274
0.34180209048599985
-0.7324330510414282
-0.6347753109025711
0.24414435034714274
-0.34180209048599985
-0.8300907911802854
0.04882887006942855
-0.04882887006942855
-0.7324330510414282
-0.24414435034714274
0.04882887006942855
-0.537117570763714
-0.537117570763714
0.04882887006942855
-0.34180209048599985
-0.7324330510414282
-0.14648661020828566
-0.14648661020828566
-0.6347753109025711
-0.24414435034714274
-0.04882887006942855
-0.43945983062485694
-0.43945983062485694
-0.04882887006942855
-0.34180209048599985
-0.537117570763714
-0.14648661020828566
-0.14648661020828566
-0.43945983062485694
-0.24414435034714274
-0.14648661020828566
-0.43945983062485694
-0.34180209048599985
-0.14648661020828566
-0.34180209048599985
-0.43945983062485694
-0.14648661020828566
-0.24414435034714274
-0.43945983062485694
-0.24414435034714274
-0.14648661020828566
-54.7371633478294
-250.7362478065156
-503.7674525062943
-605.3315022507057
-512.2636758983749
-349.0775921263447
-226.51712825207903
-160.89112687876707
-116.16388189517052
-82.17898832684826
-64.69825284199283
-48.97535667963683
-30.811017013809415
-23.096055542839704
-20.16632333867399
-11.47478446631571
-6.787212939650568
-8.44739452201114
-5.127031357289998
-0.6347753109025711
-2.68558785381857
-2.9785610742351416
0.8300907911802854
0.14648661020828566
-1.9043259327077133
0.537117570763714
1.6113527122911422
-0.8300907911802854
-0.04882887006942855
1.8066681925688564
0.04882887006942855
-0.43945983062485694
1.6113527122911422
0.9277485313191425
-0.537117570763714
0.9277485313191425
1.416037232013428
-0.04882887006942855
0.537117570763714
1.7090104524299992
0.34180209048599985
-0.04882887006942855
1.2207217517357138
0.8300907911802854
-0.04882887006942855
0.8300907911802854
1.2207217517357138
0.14648661020828566
0.43945983062485694
1.0254062714579995
0.34180209048599985
27.1976806286717
166.7505912870985
420.0747692072938
596.9329365987641
563.5339894712749
405.62142366674294
259.52544441901273
177.1999694819562
131.0078583962768
92.23773556115053
68.50690470740825
55.420767528801406
37.256427862973986
23.779659723811704
21.533531700617992
15.771725032425422
7.275501640344854
7.470817120622568
7.763790341039139
2.0996414129854277
1.2207217517357138
4.052796215762569
1.0254062714579995
-1.1230640115968566
1.7090104524299992
1.3183794918745708
-1.6113527122911422
0.04882887006942855
1.416037232013428
-1.1230640115968566
-1.0254062714579995
1.1230640115968566
-0.24414435034714274
-1.513694972152285
0.43945983062485694
0.34180209048599985
-1.416037232013428
-0.24414435034714274
0.6347753109025711
-0.9277485313191425
-0.8300907911802854
0.537117570763714
-0.34180209048599985
-1.0254062714579995
0.14648661020828566
0.04882887006942855
-1.0254062714579995
-0.24414435034714274
0.14648661020828566
-0.7324330510414282
-0.6347753109025711
0.14648661020828566
-0.34180209048599985
-0.8300907911802854
0.04882887006942855
-0.04882887006942855
-0.7324330510414282
-0.24414435034714274
0.04882887006942855
-0.537117570763714
-0.43945983062485694
0.04882887006942855
-0.34180209048599985
-0.537117570763714
-0.04882887006942855
-0.14648661020828566
-0.537117570763714
-0.24414435034714274
-0.04882887006942855
-0.43945983062485694
-0.43945983062485694
-0.04882887006942855
-0.34180209048599985
-0.43945983062485694
-0.14648661020828566
-0.14648661020828566
-0.43945983062485694
-0.24414435034714274
-0.14648661020828566
-0.34180209048599985
-0.34180209048599985
-0.14648661020828566
-1.0254062714579995
-72.02258335240711
-299.36980239566645
-550.2525368123903
-608.554207675288
-482.6733806363012
-317.436484321355
-208.05981536583505
-151.61364156557565
-107.86297398336767
-76.61249713893339
-62.45212481879911
-45.55733577477684
-27.392996108949415
-22.705424582284277
-19.48271915770199
-9.42397192339971
-6.494239719233997
-8.74036774242771
-3.8574807354848555
-0.14648661020828566
-3.5645075150682843
-2.5879301136797133
1.513694972152285
-0.43945983062485694
-2.0996414129854277
1.416037232013428
1.2207217517357138
-1.6113527122911422
0.34180209048599985
2.0019836728465705
-0.537117570763714
-0.24414435034714274
2.0996414129854277
0.537117570763714
-0.6347753109025711
1.3183794918745708
1.2207217517357138
-0.43945983062485694
0.6347753109025711
1.513694972152285
-0.04882887006942855
0.14648661020828566
1.6113527122911422
0.537117570763714
-0.24414435034714274
1.0254062714579995
0.9277485313191425
0.04882887006942855
62.84275577935454
275.5413138017853
527.4006256198977
607.5776302738994
498.68925001907377
333.6476691844053
217.0443274586099
156.9848172732128
112.64820325017166
79.24925612268254
63.91699092088197
47.998779278248264
29.150835431448844
22.90074006256199
20.45929655909056
10.79118028534371
6.591897459372854
9.033340962844282
5.0293736171511405
0.43945983062485694
3.466849774929427
3.2715342946517127
-1.0254062714579995
0.24414435034714274
2.490272373540856
-0.7324330510414282
-1.3183794918745708
1.6113527122911422
0.14648661020828566
-1.8066681925688564
0.43945983062485694
0.8300907911802854
-1.513694972152285
-0.43945983062485694
1.0254062714579995
-0.8300907911802854
-1.1230640115968566
0.6347753109025711
-0.14648661020828566
-1.3183794918745708
0.14648661020828566
0.34180209048599985
-1.1230640115968566
-0.43945983062485694
0.43945983062485694
-12.549019607843137
-100.34332799267567
-305.6198977645533
-511.8730449378195
-565.2918287937744
-469.97787441824977
-330.0343327992676
-223.97802700846876
-158.05905241474022
-110.9880216678111
-81.30006866559853
-63.526359960326545
-44.873731593804834
13.623254749370565
190.57907988097963
445.3681239032578
584.8233768215457
522.8107118333714
366.8513008316167
240.18921187151903
167.72716868848707
119.28892957961395
85.30403601129167
67.23735408560312
50.34256504158083
32.37354085603113
24.65857938506142
20.654612039368278
11.963073167009995
7.861448081177996
8.74036774242771
5.127031357289998
1.416037232013428
3.2715342946517127
-16.064698252841993
-124.07415884641794
-340.3860532539864
-538.9242389562829
-573.006790264744
-454.54795147631035
-303.47142748149844
-202.4933241779202
-145.94949263752193
-103.17540245670253
-74.85465781643397
-60.01068131532769
-42.72526131074998
-27.002365148393988
-22.510109102006563
-17.82253757534142
-9.033340962844282
-7.080186160067139
-7.861448081177996
-3.1738765545128556
-0.9277485313191425
-3.466849774929427
-1.8066681925688564
1.1230640115968566
-0.8300907911802854
-1.3183794918745708
1.513694972152285
0.7324330510414282
-1.1230640115968566
0.8300907911802854
1.6113527122911422
-0.43945983062485694
0.14648661020828566
1.7090104524299992
0.24414435034714274
-0.24414435034714274
1.2207217517357138
0.8300907911802854
-0.24414435034714274
0.9277485313191425
1.2207217517357138
0.04882887006942855
0.34180209048599985
1.3183794918745708
0.34180209048599985
0.04882887006942855
1.0254062714579995
0.7324330510414282
0.04882887006942855
50.53788052185855
236.8688487067979
489.21644922560466
603.9642938887617
521.6388189517052
358.8433661402304
232.18127718013275
164.30914778362708
118.99595635919738
83.83916990920882
65.77248798352025
50.635538261997404
31.885252155336843
23.389028763256274
20.947585259784848
12.45136186770428
6.884870679789426
8.642710002288853
5.908293278400855
1.0254062714579995
2.783245593957427
3.5645075150682843
-0.34180209048599985
-0.04882887006942855
2.197299153124285
-0.14648661020828566
-1.513694972152285
1.0254062714579995
0.43945983062485694
-1.6113527122911422
0.04882887006942855
0.8300907911802854
-1.2207217517357138
-0.7324330510414282
0.8300907911802854
-0.43945983062485694
-1.2207217517357138
0.34180209048599985
0.04882887006942855
-1.2207217517357138
-0.14648661020828566
0.34180209048599985
-0.8300907911802854
-0.6347753109025711
0.34180209048599985
-0.43945983062485694
-0.8300907911802854
0.04882887006942855
-0.04882887006942855
-0.8300907911802854
-0.14648661020828566
0.04882887006942855
-0.6347753109025711
-0.43945983062485694
0.04882887006942855
-0.34180209048599985
-0.6347753109025711
0.04882887006942855
-0.14648661020828566
-0.6347753109025711
-0.24414435034714274
-0.04882887006942855
-0.537117570763714
-0.43945983062485694
-0.04882887006942855
-0.34180209048599985
-0.6347753109025711
-0.14648661020828566
-0.24414435034714274
-0.537117570763714
-0.24414435034714274
-0.14648661020828566
-0.43945983062485694
-0.34180209048599985
-0.14648661020828566
-0.34180209048599985
-0.43945983062485694
-42.13931486991684
-212.0637827115282
-465.6809338521401
-601.5228503852903
-535.2132448310064
-374.66392004272524
-241.6540779736019
-168.1177996490425
-122.70695048447395
-86.8665598535134
-66.45609216449226
-51.709773403524835
-33.64309147783627
-23.389028763256274
-20.654612039368278
-13.330281528953995
-6.982528419928283
-7.763790341039139
-6.201266498817426
-1.3183794918745708
-1.9043259327077133
-3.1738765545128556
0.04882887006942855
0.6347753109025711
-1.6113527122911422
-0.14648661020828566
1.6113527122911422
-0.34180209048599985
-0.43945983062485694
1.7090104524299992
0.6347753109025711
-0.6347753109025711
0.9277485313191425
1.2207217517357138
-0.24414435034714274
0.6347753109025711
1.6113527122911422
0.14648661020828566
0.04882887006942855
1.2207217517357138
0.6347753109025711
-0.04882887006942855
0.9277485313191425
1.0254062714579995
0.04882887006942855
0.537117570763714
1.2207217517357138
0.34180209048599985
0.24414435034714274
1.0254062714579995
0.6347753109025711
49.951934081025406
237.25947966735333
490.4859998474098
603.8666361486229
520.8575570305943
359.0386816205081
232.18127718013275
163.62554360265506
119.09361409933624
84.22980086976425
65.38185702296482
50.44022278171969
32.27588311589227
23.19371328297856
20.55695429922942
12.646677347981994
6.982528419928283
8.252079041733426
5.908293278400855
1.2207217517357138
2.490272373540856
3.466849774929427
-0.14648661020828566
-0.14648661020828566
2.0996414129854277
0.04882887006942855
-1.3183794918745708
0.9277485313191425
0.537117570763714
-1.416037232013428
-0.04882887006942855
0.8300907911802854
-1.0254062714579995
-0.8300907911802854
0.7324330510414282
-0.34180209048599985
-1.1230640115968566
0.24414435034714274
0.04882887006942855
-1.1230640115968566
-0.24414435034714274
0.34180209048599985
-0.8300907911802854
-0.6347753109025711
0.14648661020828566
-0.43945983062485694
-0.9277485313191425
0.04882887006942855
-0.04882887006942855
-0.8300907911802854
-0.24414435034714274
0.04882887006942855
-0.6347753109025711
-0.537117570763714
0.04882887006942855
-0.34180209048599985
-0.6347753109025711
-0.04882887006942855
-0.14648661020828566
-0.6347753109025711
-0.24414435034714274
-0.04882887006942855
-0.43945983062485694
-0.43945983062485694
-0.04882887006942855
-0.34180209048599985
-0.537117570763714
-0.14648661020828566
-0.14648661020828566
-0.537117570763714
-0.24414435034714274
-0.14648661020828566
-0.43945983062485694
-0.34180209048599985
-0.14648661020828566
-0.24414435034714274
-0.43945983062485694
-0.24414435034714274
-0.24414435034714274
-54.346532387273975
-249.27138170443274
-502.4002441443503
-605.3315022507057
-513.2402532997635
-350.0541695277333
-226.90775921263446
-160.69581139848935
-115.87090867475395
-82.27664606698711
-65.08888380254825
-49.365987640192266
-31.00633249408713
-23.19371328297856
-20.16632333867399
-11.279468986037996
-6.39658197909514
-8.349736781872283
-5.420004577706569
-1.0254062714579995
-2.8809033340962844
-3.076218814373999
0.8300907911802854
0.43945983062485694
-1.416037232013428
0.8300907911802854
1.416037232013428
-1.2207217517357138
-0.34180209048599985
1.6113527122911422
0.14648661020828566
0.04882887006942855
2.0996414129854277
1.0254062714579995
-0.7324330510414282
0.537117570763714
1.1230640115968566
-0.34180209048599985
0.34180209048599985
1.9043259327077133
0.8300907911802854
0.04882887006942855
0.9277485313191425
0.43945983062485694
-0.34180209048599985
0.43945983062485694
0.9277485313191425
0.43945983062485694
0.9277485313191425
1.2207217517357138
0.14648661020828566
49.75661860074769
237.16182192721448
490.0953688868544
603.6713206683452
520.9552147707332
358.94102388036924
231.98596169985504
163.7232013427939
119.09361409933624
83.93682764934768
65.28419928282597
50.53788052185855
32.178225375753414
23.19371328297856
20.654612039368278
12.646677347981994
6.884870679789426
8.349736781872283
6.005951018539712
1.1230640115968566
2.5879301136797133
3.466849774929427
-0.14648661020828566
-0.14648661020828566
2.197299153124285
0.04882887006942855
-1.416037232013428
0.9277485313191425
0.6347753109025711
-1.513694972152285
-0.04882887006942855
0.9277485313191425
-1.0254062714579995
-0.8300907911802854
0.7324330510414282
-0.34180209048599985
-1.2207217517357138
0.24414435034714274
0.04882887006942855
-1.1230640115968566
-0.14648661020828566
0.34180209048599985
-0.8300907911802854
-0.7324330510414282
0.24414435034714274
-0.43945983062485694
-0.9277485313191425
0.04882887006942855
-0.04882887006942855
-0.8300907911802854
-0.24414435034714274
0.04882887006942855
-0.6347753109025711
-0.537117570763714
0.04882887006942855
-0.34180209048599985
-0.6347753109025711
-0.04882887006942855
-0.14648661020828566
-0.6347753109025711
-0.24414435034714274
-0.04882887006942855
-0.43945983062485694
-0.43945983062485694
-0.04882887006942855
-0.34180209048599985
-0.537117570763714
-0.14648661020828566
-0.14648661020828566
-0.537117570763714
-0.24414435034714274
-0.14648661020828566
-0.43945983062485694
-0.34180209048599985
-0.14648661020828566
-0.34180209048599985
-35.596246280613414
-191.16502632181277
-444.58686198214696
-599.667353322652
-548.0064087891966
-388.4336614023041
-249.85732814526588
-172.12176699473565
-125.63668268863965
-88.62439917601282
-67.33501182574197
-53.36995498588541
-35.4009308003357
-23.87731746395056
-21.045242999923705
-14.209201190203707
-6.884870679789426
-7.275501640344854
-6.591897459372854
-1.8066681925688564
-1.9043259327077133
-3.662165255207141
-0.43945983062485694
0.8300907911802854
-1.1230640115968566
0.04882887006942855
1.8066681925688564
-0.24414435034714274
-0.8300907911802854
1.416037232013428
0.7324330510414282
-0.537117570763714
1.2207217517357138
1.7090104524299992
-0.24414435034714274
0.04882887006942855
1.2207217517357138
0.04882887006942855
-0.14648661020828566
1.3183794918745708
1.1230640115968566
0.14648661020828566
0.8300907911802854
0.8300907911802854
-0.14648661020828566
0.24414435034714274
1.1230640115968566
0.537117570763714
0.537117570763714
1.3183794918745708
0.7324330510414282
-0.04882887006942855
75.2452887769894
314.018463416495
565.9754329747464
611.3862821393149
474.9584191653315
307.76836804760813
202.0050354772259
149.4651712825208
106.00747692072939
75.04997329671168
62.2568093385214
45.16670481422141
26.416418707560844
22.705424582284277
19.87335011825742
8.935683222705425
6.39658197909514
9.42397192339971
3.8574807354848555
0.04882887006942855
4.150453955901427
2.8809033340962844
-1.8066681925688564
0.8300907911802854
2.68558785381857
-1.416037232013428
-1.1230640115968566
2.0996414129854277
-0.34180209048599985
-2.0019836728465705
1.0254062714579995
0.6347753109025711
-2.0019836728465705
-0.04882887006942855
1.1230640115968566
-1.3183794918745708
-1.0254062714579995
1.0254062714579995
-0.43945983062485694
-1.416037232013428
0.43945983062485694
0.14648661020828566
-1.3183794918745708
-0.14648661020828566
0.537117570763714
-0.9277485313191425
-0.7324330510414282
0.43945983062485694
-0.34180209048599985
-1.0254062714579995
0.14648661020828566
0.04882887006942855
-0.9277485313191425
-0.24414435034714274
0.14648661020828566
-0.7324330510414282
-0.6347753109025711
0.04882887006942855
-0.34180209048599985
-0.7324330510414282
-0.04882887006942855
-0.04882887006942855
-0.7324330510414282
-0.24414435034714274
0.04882887006942855
-0.537117570763714
-0.43945983062485694
0.04882887006942855
-0.34180209048599985
-0.537117570763714
-0.04882887006942855
-0.14648661020828566
-0.537117570763714
-0.24414435034714274
-0.04882887006942855
-0.43945983062485694
-0.43945983062485694
-0.04882887006942855
-0.34180209048599985
-0.43945983062485694
-50.635538261997404
-238.4313725490196
-491.75555046921494
-603.9642938887617
-519.002059967956
-356.89021133745325
-231.30235751888304
-163.23491264209963
-118.5076676585031
-83.93682764934768
-65.38185702296482
-49.951934081025406
-31.592278934920273
-22.90074006256199
-20.16632333867399
-12.353704127565424
-7.080186160067139
-8.252079041733426
-5.615320057984283
-0.9277485313191425
-2.0019836728465705
-2.5879301136797133
0.537117570763714
0.04882887006942855
-2.0019836728465705
0.14648661020828566
1.416037232013428
-0.7324330510414282
0.04882887006942855
2.0996414129854277
0.34180209048599985
-0.6347753109025711
1.1230640115968566
0.9277485313191425
-0.43945983062485694
0.8300907911802854
1.7090104524299992
0.14648661020828566
0.14648661020828566
1.1230640115968566
0.14648661020828566
-0.24414435034714274
1.0254062714579995
1.0254062714579995
0.34180209048599985
18.40848401617456
136.96498054474708
389.6055542839704
594.1985198748761
581.7959868772411
424.9576562142367
271.0490577553979
183.25474937056535
135.89074540321965
95.36278324559396
70.26474402990769
57.764553292133975
39.20958266575113
24.267948424505988
22.21713588158999
16.943617914091707
7.470817120622568
7.373159380483711
8.349736781872283
2.197299153124285
0.8300907911802854
4.248111696040284
1.416037232013428
-1.513694972152285
1.7090104524299992
1.6113527122911422
-1.8066681925688564
-0.14648661020828566
1.7090104524299992
-1.1230640115968566
-1.2207217517357138
1.2207217517357138
-0.14648661020828566
-1.7090104524299992
0.43945983062485694
0.537117570763714
-1.513694972152285
-0.34180209048599985
0.8300907911802854
-0.9277485313191425
-1.0254062714579995
0.537117570763714
-0.24414435034714274
-1.2207217517357138
0.04882887006942855
0.14648661020828566
-1.0254062714579995
-0.34180209048599985
0.34180209048599985
-0.6347753109025711
-0.7324330510414282
0.24414435034714274
-0.24414435034714274
-0.8300907911802854
0.04882887006942855
0.04882887006942855
-0.7324330510414282
-0.34180209048599985
0.04882887006942855
-0.537117570763714
-0.537117570763714
0.04882887006942855
-0.24414435034714274
-0.6347753109025711
-0.14648661020828566
-0.04882887006942855
-0.537117570763714
-0.34180209048599985
-0.04882887006942855
-0.43945983062485694
-0.43945983062485694
-0.04882887006942855
-0.24414435034714274
-0.537117570763714
-0.14648661020828566
-0.14648661020828566
-0.537117570763714
-48.877698939497975
-232.37659266041047
-485.6031128404669
-603.3783474479286
-523.0060273136492
-361.3824673838407
-234.03677424277103
-164.40680552376594
-119.19127183947509
-84.42511635004196
-65.18654154268711
-49.85427634088655
-32.178225375753414
-23.48668650339513
-20.45929655909056
-12.549019607843137
-7.177843900205997
-8.05676356145571
-5.224689097428855
-0.6347753109025711
-2.197299153124285
-3.1738765545128556
0.14648661020828566
0.14648661020828566
-1.8066681925688564
0.24414435034714274
1.9043259327077133
-0.14648661020828566
-0.04882887006942855
1.513694972152285
0.04882887006942855
-0.7324330510414282
1.1230640115968566
1.1230640115968566
-0.04882887006942855
1.0254062714579995
1.513694972152285
-0.04882887006942855
0.04882887006942855
1.2207217517357138
0.34180209048599985
0.04882887006942855
1.513694972152285
1.2207217517357138
0.04882887006942855
0.43945983062485694
0.9277485313191425
0.04882887006942855
0.34180209048599985
1.2207217517357138
0.9277485313191425
0.6347753109025711
69.28816662851911
293.9986266880293
546.1509117265583
609.4331273365377
486.67734798199433
320.5615320057984
209.81765468833447
153.17616540779736
109.1325246051728
77.29610131990539
63.233386739909974
46.43625543602655
27.68596932936599
22.998397802700847
20.16632333867399
9.81460288395514
6.6895551995117115
9.326314183260854
4.345769436179141
0.24414435034714274
3.8574807354848555
2.9785610742351416
-1.416037232013428
0.6347753109025711
2.490272373540856
-1.1230640115968566
-1.1230640115968566
1.8066681925688564
-0.14648661020828566
-1.9043259327077133
0.8300907911802854
0.6347753109025711
-1.8066681925688564
-0.24414435034714274
1.0254062714579995
-1.1230640115968566
-1.1230640115968566
0.7324330510414282
-0.34180209048599985
-1.416037232013428
0.24414435034714274
0.24414435034714274
-1.2207217517357138
-0.24414435034714274
0.43945983062485694
-0.8300907911802854
-0.7324330510414282
0.34180209048599985
-0.34180209048599985
-0.9277485313191425
0.04882887006942855
0.04882887006942855
-0.9277485313191425
-0.24414435034714274
0.14648661020828566
-0.6347753109025711
-0.537117570763714
0.04882887006942855
-0.34180209048599985
-0.7324330510414282
-0.04882887006942855
-0.04882887006942855
-0.6347753109025711
-0.24414435034714274
0.04882887006942855
-0.43945983062485694
-0.43945983062485694
-0.04882887006942855
-0.34180209048599985
-0.537117570763714
-0.14648661020828566
-0.14648661020828566
-0.537117570763714
-0.24414435034714274
-0.04882887006942855
-0.43945983062485694
-0.43945983062485694
-0.04882887006942855
-0.34180209048599985
-0.43945983062485694
-12.646677347981994
-121.04676890211337
-375.34752422369723
-592.9289692530709
-589.9992370489051
-434.6257724879835
-276.7132066834516
-185.11024643320363
-138.0392156862745
-97.60891126878766
-70.85069047074083
-58.350499732967116
-40.479133287556266
-24.072632944228275
-21.14290074006256
-16.84596017395285
-7.373159380483711
-6.787212939650568
-8.545052262149996
-2.68558785381857
-0.43945983062485694
-3.9551384756237127
-1.3183794918745708
2.2949568932631417
-1.0254062714579995
-2.0019836728465705
1.6113527122911422
0.6347753109025711
-1.513694972152285
1.2207217517357138
2.197299153124285
-0.537117570763714
0.04882887006942855
1.7090104524299992
-0.34180209048599985
-0.7324330510414282
1.513694972152285
0.9277485313191425
-0.14648661020828566
1.416037232013428
1.416037232013428
-0.537117570763714
0.04882887006942855
1.3183794918745708
0.14648661020828566
0.04882887006942855
1.6113527122911422
1.0254062714579995
17.724879835202564
138.42984664682993
392.632944228275
594.2961776150149
580.1358052948806
424.4693675135424
270.5607690547036
182.18051422903793
135.7930876630808
95.65575646601053
69.58113984893568
57.37392233157855
39.600213626306555
23.974975204089418
21.728847180895706
17.236591134508277
7.568474860761425
6.982528419928283
8.545052262149996
2.5879301136797133
0.6347753109025711
4.248111696040284
1.7090104524299992
-1.513694972152285
1.513694972152285
1.9043259327077133
-1.7090104524299992
-0.34180209048599985
1.8066681925688564
-0.9277485313191425
-1.416037232013428
1.2207217517357138
0.04882887006942855
-1.7090104524299992
0.24414435034714274
0.6347753109025711
-1.513694972152285
-0.6347753109025711
0.7324330510414282
-0.8300907911802854
-1.1230640115968566
0.537117570763714
-0.14648661020828566
-1.2207217517357138
0.04882887006942855
0.24414435034714274
-1.0254062714579995
-0.43945983062485694
0.34180209048599985
-0.6347753109025711
-0.8300907911802854
0.14648661020828566
-0.14648661020828566
-0.8300907911802854
-0.04882887006942855
0.04882887006942855
-0.7324330510414282
-0.34180209048599985
0.04882887006942855
-0.43945983062485694
-0.537117570763714
0.04882887006942855
-0.24414435034714274
-0.6347753109025711
-0.14648661020828566
-0.04882887006942855
-0.537117570763714
-0.34180209048599985
0.04882887006942855
-0.43945983062485694
-0.537117570763714
-0.04882887006942855
-0.24414435034714274
-0.537117570763714
-0.24414435034714274
-0.14648661020828566
-0.43945983062485694
-0.34180209048599985
-17.43190661478599
-136.08606088349737
-389.9961852445258
-594.1985198748761
-581.210040436408
-425.05531395437555
-271.2443732356756
-182.57114518959335
-135.40245670252537
-95.36278324559396
-69.87411306935225
-57.37392233157855
-39.40489814602884
-24.072632944228275
-21.63118944075685
-16.650644693675137
-7.080186160067139
-6.591897459372854
-8.154421301594567
-2.490272373540856
-0.7324330510414282
-3.9551384756237127
-1.416037232013428
1.8066681925688564
-0.9277485313191425
-1.1230640115968566
2.0019836728465705
0.34180209048599985
-1.7090104524299992
1.0254062714579995
1.6113527122911422
-0.7324330510414282
0.537117570763714
2.0996414129854277
-0.04882887006942855
-0.43945983062485694
1.513694972152285
0.6347753109025711
-0.537117570763714
1.1230640115968566
1.513694972152285
-0.04882887006942855
0.43945983062485694
1.416037232013428
0.14648661020828566
-0.04882887006942855
1.1230640115968566
0.7324330510414282
0.14648661020828566
1.2207217517357138
1.0254062714579995
-0.04882887006942855
43.79949645227741
217.82558937972075
470.3685053788052
601.9134813458458
533.0647745479515
371.6365300984207
239.50560769054704
167.72716868848707
122.41397726405738
86.08529793240254
66.45609216449226
52.10040436408026
33.44777599755856
23.389028763256274
21.14290074006256
13.427939269092851
6.982528419928283
8.252079041733426
6.39658197909514
1.2207217517357138
2.2949568932631417
3.662165255207141
0.04882887006942855
-0.43945983062485694
2.0996414129854277
0.24414435034714274
-1.513694972152285
0.8300907911802854
0.8300907911802854
-1.513694972152285
-0.24414435034714274
1.0254062714579995
-0.9277485313191425
-1.0254062714579995
0.7324330510414282
-0.24414435034714274
-1.3183794918745708
0.14648661020828566
0.24414435034714274
-1.1230640115968566
-0.34180209048599985
0.43945983062485694
-0.7324330510414282
-0.7324330510414282
0.24414435034714274
-0.24414435034714274
-0.9277485313191425
0.04882887006942855
0.04882887006942855
-0.8300907911802854
-0.34180209048599985
0.14648661020828566
-0.537117570763714
-0.6347753109025711
0.04882887006942855
-0.24414435034714274
-0.6347753109025711
-0.04882887006942855
-0.04882887006942855
-0.6347753109025711
-0.34180209048599985
0.04882887006942855
-0.43945983062485694
-0.43945983062485694
-0.04882887006942855
-0.24414435034714274
-0.537117570763714
-0.14648661020828566
-0.14648661020828566
-0.537117570763714
-0.24414435034714274
-0.04882887006942855
-0.43945983062485694
-0.43945983062485694
-0.14648661020828566
-0.24414435034714274
-0.43945983062485694
-0.24414435034714274
-0.24414435034714274
-0.43945983062485694
-0.24414435034714274
-0.14648661020828566
-0.34180209048599985
-0.34180209048599985
-58.25284199282826
-262.16220340276186
-515.1934081025406
-606.3080796520943
-505.3299763485161
-341.7532616159304
-222.12252994583048
-158.5473411154345
-114.01541161211567
-80.71412222476539
-64.11230640115969
-48.38941023880369
-30.322728313115128
-23.096055542839704
-20.068665598535134
-11.181811245899137
-6.494239719233997
-8.252079041733426
-4.931715877012284
-0.8300907911802854
-3.076218814373999
-2.9785610742351416
1.0254062714579995
0.14648661020828566
-1.7090104524299992
0.9277485313191425
1.513694972152285
-1.1230640115968566
-0.04882887006942855
1.7090104524299992
-0.04882887006942855
-0.34180209048599985
1.8066681925688564
1.0254062714579995
-0.537117570763714
0.8300907911802854
1.1230640115968566
-0.34180209048599985
0.43945983062485694
1.7090104524299992
0.6347753109025711
0.34180209048599985
1.416037232013428
0.6347753109025711
-0.24414435034714274
0.7324330510414282
1.0254062714579995
0.14648661020828566
0.6347753109025711
1.3183794918745708
51.02616922255284
238.9196612497139
492.82978561074236
604.3549248493172
518.9044022278172
357.1831845578698
231.5953307392996
162.94193942168306
118.31235217822538
84.22980086976425
65.38185702296482
49.85427634088655
32.178225375753414
23.48668650339513
20.263981078812847
12.45136186770428
7.275501640344854
8.252079041733426
5.71297779812314
1.416037232013428
2.68558785381857
3.1738765545128556
-0.04882887006942855
0.04882887006942855
1.9043259327077133
0.04882887006942855
-1.1230640115968566
0.9277485313191425
0.34180209048599985
-1.3183794918745708
0.04882887006942855
0.7324330510414282
-1.0254062714579995
-0.7324330510414282
0.6347753109025711
-0.43945983062485694
-1.0254062714579995
0.24414435034714274
0.04882887006942855
-1.0254062714579995
-0.14648661020828566
0.24414435034714274
-0.7324330510414282
-0.537117570763714
0.24414435034714274
-0.34180209048599985
-0.7324330510414282
0.04882887006942855
-0.04882887006942855
-0.7324330510414282
-0.14648661020828566
0.04882887006942855
-0.6347753109025711
-0.43945983062485694
0.04882887006942855
-0.34180209048599985
-0.6347753109025711
-0.04882887006942855
-0.14648661020828566
-0.537117570763714
-0.24414435034714274
-0.04882887006942855
-0.43945983062485694
-0.43945983062485694
-0.04882887006942855
-0.34180209048599985
-0.43945983062485694
-0.14648661020828566
-0.24414435034714274
-0.43945983062485694
-0.24414435034714274
-0.14648661020828566
-0.43945983062485694
-0.34180209048599985
-0.14648661020828566
-0.34180209048599985
-48.291752498664835
-230.5210955977722
-483.7476157778286
-603.3783474479286
-524.1779201953154
-362.3590447852293
-234.62272068360417
-164.79743648432137
-119.48424505989166
-84.62043183031967
-65.6748302433814
-50.34256504158083
-32.178225375753414
-23.291371023117417
-20.55695429922942
-12.549019607843137
-6.982528419928283
-7.861448081177996
-5.224689097428855
-0.6347753109025711
-2.197299153124285
-3.1738765545128556
0.24414435034714274
0.24414435034714274
-1.9043259327077133
0.24414435034714274
1.7090104524299992
-0.537117570763714
-0.24414435034714274
1.6113527122911422
0.24414435034714274
-0.537117570763714
1.3183794918745708
1.0254062714579995
-0.24414435034714274
0.9277485313191425
1.416037232013428
-0.14648661020828566
0.04882887006942855
1.2207217517357138
0.34180209048599985
-0.04882887006942855
1.2207217517357138
1.0254062714579995
0.04882887006942855
0.537117570763714
0.9277485313191425
0.04882887006942855
0.24414435034714274
1.0254062714579995
0.6347753109025711
21.338216220340275
148.29327840085452
401.9104295414664
595.2727550164035
574.5693141069657
417.92629892423895
266.84977492942704
180.61799038681622
134.03524834058138
94.38620584420539
69.38582436865796
56.7879758907454
38.818951705195694
23.974975204089418
21.728847180895706
16.650644693675137
7.373159380483711
7.177843900205997
8.154421301594567
2.392614633401999
0.9277485313191425
4.150453955901427
1.416037232013428
-1.3183794918745708
1.6113527122911422
1.6113527122911422
-1.7090104524299992
-0.14648661020828566
1.6113527122911422
-1.0254062714579995
-1.2207217517357138
1.2207217517357138
-0.04882887006942855
-1.6113527122911422
0.34180209048599985
0.537117570763714
-1.416037232013428
-0.34180209048599985
0.7324330510414282
-0.8300907911802854
-0.9277485313191425
0.537117570763714
-0.24414435034714274
-1.1230640115968566
0.04882887006942855
0.14648661020828566
-1.0254062714579995
-0.34180209048599985
0.34180209048599985
-0.6347753109025711
-0.7324330510414282
0.14648661020828566
-0.24414435034714274
-0.8300907911802854
-0.04882887006942855
0.04882887006942855
-0.7324330510414282
-0.34180209048599985
0.04882887006942855
-0.537117570763714
-0.537117570763714
0.04882887006942855
-0.24414435034714274
-0.6347753109025711
-0.14648661020828566
-0.04882887006942855
-0.537117570763714
-0.34180209048599985
-0.04882887006942855
-0.43945983062485694
-0.43945983062485694
-0.04882887006942855
-0.24414435034714274
-0.537117570763714
-0.14648661020828566
-0.14648661020828566
-0.43945983062485694
-0.34180209048599985
-0.14648661020828566
-24.17029068436713
-156.20355535210194
-409.723048752575
-596.3469901579309
-569.3934538796063
-411.6762035553521
-263.431754024567
-178.95780880445562
-131.8867780575265
-92.92133974212253
-68.99519340810254
-55.81139848935683
-37.74471656366827
-24.072632944228275
-21.533531700617992
-15.869382772564279
-7.177843900205997
-7.080186160067139
-7.470817120622568
-1.9043259327077133
-1.0254062714579995
-3.7598229953459983
-0.8300907911802854
1.513694972152285
-1.2207217517357138
-0.9277485313191425
1.8066681925688564
0.14648661020828566
-1.2207217517357138
1.2207217517357138
1.2207217517357138
-0.7324330510414282
0.7324330510414282
1.9043259327077133
-0.14648661020828566
-0.04882887006942855
1.513694972152285
0.43945983062485694
-0.24414435034714274
1.2207217517357138
1.1230640115968566
-0.14648661020828566
0.537117570763714
1.3183794918745708
0.04882887006942855
0.14648661020828566
1.2207217517357138
0.537117570763714
0.04882887006942855
1.0254062714579995
0.9277485313191425
29.9320973525597
175.1491569390402
429.15693904020753
598.0071717402915
557.8698405432211
399.95727473868925
256.49805447470817
175.24681467917907
129.44533455405508
91.55413138017853
68.11627374685283
54.7371633478294
36.96345464255741
23.87731746395056
21.24055848020142
15.47875181200885
7.470817120622568
7.470817120622568
7.470817120622568
2.197299153124285
1.3183794918745708
3.8574807354848555
1.0254062714579995
-1.0254062714579995
1.513694972152285
1.1230640115968566
-1.513694972152285
0.04882887006942855
1.2207217517357138
-1.0254062714579995
-0.9277485313191425
1.0254062714579995
-0.34180209048599985
-1.416037232013428
0.34180209048599985
0.24414435034714274
-1.3183794918745708
-0.24414435034714274
0.537117570763714
-0.8300907911802854
-0.7324330510414282
0.43945983062485694
-0.34180209048599985
-1.0254062714579995
0.04882887006942855
0.04882887006942855
-0.9277485313191425
-20.16632333867399
-143.70336461432822
-398.39475089646754
-595.3704127565424
-575.6435492484932
-419.3911650263218
-268.41229877164875
-180.81330586709393
-133.93759060044252
-95.16746776531625
-69.67879758907453
-56.29968719005112
-38.72129396505684
-24.072632944228275
0.14648661020828566
122.02334630350195
364.50751506828414
559.0417334248874
562.9480430304418
431.6960402838178
284.9164568551156
188.03997863736936
137.3556115053025
100.14801251239795
71.24132143129626
55.81139848935683
41.74868390936141
26.318760967421987
20.16632333867399
17.334248874647134
9.81460288395514
6.103608758678568
-1.1230640115968566
-69.28816662851911
-253.66598001068132
-481.3061722743572
-584.2374303807126
-508.0643930724041
-352.6909285114824
-227.98199435416188
-160.7934691386282
-117.53109025711451
-82.17898832684826
-63.33104448004883
-49.75661860074769
-31.68993667505913
-22.021820401312276
-19.971007858396277
-12.549019607843137
-6.298924238956283
-7.861448081177996
-6.005951018539712
-0.8300907911802854
-1.9043259327077133
-3.1738765545128556
0.43945983062485694
0.7324330510414282
-1.9043259327077133
-0.04882887006942855
1.7090104524299992
-0.537117570763714
-0.43945983062485694
2.0019836728465705
0.7324330510414282
-0.6347753109025711
1.1230640115968566
1.2207217517357138
-0.43945983062485694
0.537117570763714
1.513694972152285
0.04882887006942855
0.04882887006942855
1.416037232013428
0.537117570763714
-0.24414435034714274
0.9277485313191425
1.0254062714579995
0.04882887006942855
0.7324330510414282
1.416037232013428
0.24414435034714274
35.303273060196844
191.94628824292363
444.9774929427024
599.3743801022355
548.5923552300297
389.1172655832761
249.66201266498817
172.51239795529108
126.80857557030595
89.1126878767071
67.43266956588083
53.85824368657969
35.4009308003357
23.58434424353399
21.338216220340275
14.697489890897993
7.080186160067139
7.861448081177996
7.177843900205997
1.7090104524299992
1.7090104524299992
3.9551384756237127
0.537117570763714
-0.8300907911802854
1.9043259327077133
0.8300907911802854
-1.6113527122911422
0.43945983062485694
1.1230640115968566
-1.3183794918745708
-0.6347753109025711
1.0254062714579995
-0.6347753109025711
-1.3183794918745708
0.537117570763714
0.04882887006942855
-1.416037232013428
-0.04882887006942855
0.43945983062485694
-1.0254062714579995
-0.537117570763714
0.43945983062485694
-0.537117570763714
-0.9277485313191425
0.24414435034714274
-0.04882887006942855
-0.9277485313191425
-0.04882887006942855
0.14648661020828566
-0.7324330510414282
-0.43945983062485694
0.14648661020828566
-0.43945983062485694
-0.7324330510414282
0.04882887006942855
-0.14648661020828566
-0.7324330510414282
-0.14648661020828566
0.04882887006942855
-0.537117570763714
-0.43945983062485694
0.04882887006942855
-0.34180209048599985
-0.537117570763714
-0.04882887006942855
-0.24414435034714274
-0.537117570763714
-0.24414435034714274
-0.14648661020828566
-0.43945983062485694
-0.34180209048599985
-0.04882887006942855
-0.34180209048599985
-0.43945983062485694
-0.14648661020828566
-0.24414435034714274
-0.43945983062485694
-0.24414435034714274
-6.494239719233997
-81.88601510643167
-293.2173647669184
-528.4748607614252
-595.7610437170978
-485.50545510032805
-326.12802319371326
-213.72396429388877
-153.17616540779736
-109.91378652628366
-78.56565194171054
-62.35446707866026
-46.14328221560998
-29.053177691309987
-22.60776684214542
-18.89677271686885
-10.205233844510566
-6.787212939650568
-8.252079041733426
-4.443427176317998
-0.9277485313191425
-3.076218814373999
-2.490272373540856
1.1230640115968566
0.04882887006942855
-1.6113527122911422
0.9277485313191425
1.1230640115968566
-1.0254062714579995
0.24414435034714274
1.8066681925688564
0.04882887006942855
0.04882887006942855
1.8066681925688564
0.537117570763714
-0.537117570763714
1.0254062714579995
1.1230640115968566
-0.14648661020828566
0.7324330510414282
1.6113527122911422
0.14648661020828566
0.04882887006942855
1.1230640115968566
0.537117570763714
0.04882887006942855
1.0254062714579995
1.0254062714579995
0.04882887006942855
0.43945983062485694
0.9277485313191425
5.810635538261997
98.78080415045396
351.4213778896773
587.9484245059891
602.4994277866789
451.2275883115892
288.041504539559
190.77439536125735
142.43381399252308
100.83161669336995
72.02258335240711
59.91302357518883
42.529945830472265
24.95155260547799
22.119478141451133
18.799114976729992
8.154421301594567
6.591897459372854
9.130998702983138
3.2715342946517127
0.14648661020828566
4.248111696040284
2.392614633401999
-1.8066681925688564
1.0254062714579995
2.392614633401999
-1.6113527122911422
-0.8300907911802854
2.0019836728465705
-0.537117570763714
-1.9043259327077133
1.1230640115968566
0.34180209048599985
-1.9043259327077133
0.04882887006942855
0.9277485313191425
-1.416037232013428
-0.8300907911802854
0.9277485313191425
-0.537117570763714
-1.3183794918745708
0.537117570763714
0.04882887006942855
-1.3183794918745708
-0.04882887006942855
0.43945983062485694
-1.0254062714579995
-0.6347753109025711
0.43945983062485694
-0.43945983062485694
-0.9277485313191425
0.14648661020828566
-0.04882887006942855
-0.9277485313191425
-0.14648661020828566
0.14648661020828566
-0.7324330510414282
-0.537117570763714
0.14648661020828566
-0.43945983062485694
-0.6347753109025711
0.04882887006942855
-0.14648661020828566
-0.7324330510414282
-0.14648661020828566
0.04882887006942855
-0.537117570763714
-0.43945983062485694
0.04882887006942855
-0.34180209048599985
-0.537117570763714
-0.04882887006942855
-0.14648661020828566
-0.537117570763714
-0.24414435034714274
-0.04882887006942855
-0.43945983062485694
-0.34180209048599985
-0.14648661020828566
-0.34180209048599985
-0.43945983062485694
-0.14648661020828566
-0.34180209048599985
-0.537117570763714
-40.67444876783398
-207.18089570458534
-460.7003891050584
-601.1322194247349
-538.1429770351721
-377.7889677271687
-243.60723277637902
-168.9967193102922
-123.19523918516823
-87.15953307392996
-66.65140764476998
-52.19806210421912
-34.22903791866941
-23.48668650339513
-20.55695429922942
-13.427939269092851
-6.884870679789426
-7.568474860761425
-6.201266498817426
-1.513694972152285
-2.0996414129854277
-3.466849774929427
-0.14648661020828566
0.7324330510414282
-1.513694972152285
-0.04882887006942855
1.6113527122911422
-0.34180209048599985
-0.537117570763714
1.6113527122911422
0.7324330510414282
-0.537117570763714
1.0254062714579995
1.2207217517357138
-0.34180209048599985
0.34180209048599985
1.3183794918745708
0.04882887006942855
0.04882887006942855
1.3183794918745708
0.8300907911802854
0.04882887006942855
1.0254062714579995
1.0254062714579995
0.04882887006942855
0.34180209048599985
1.0254062714579995
0.24414435034714274
0.34180209048599985
1.2207217517357138
0.7324330510414282
0.04882887006942855
13.916227969787137
123.87884336614023
377.20302128633557
593.3196002136264
589.413290608072
433.45387960631723
276.32257572289615
185.69619287403677
137.94155794613565
97.02296482795452
70.94834821087969
58.44815747310597
40.186160067139696
24.4632639047837
22.21713588158999
17.43190661478599
7.666132600900283
7.177843900205997
8.642710002288853
2.490272373540856
0.6347753109025711
4.248111696040284
1.7090104524299992
-1.6113527122911422
1.513694972152285
1.9043259327077133
-1.7090104524299992
-0.24414435034714274
1.8066681925688564
-0.9277485313191425
-1.416037232013428
1.2207217517357138
0.04882887006942855
-1.8066681925688564
0.34180209048599985
0.6347753109025711
-1.513694972152285
-0.43945983062485694
0.8300907911802854
-0.8300907911802854
-1.1230640115968566
0.537117570763714
-0.14648661020828566
-1.2207217517357138
0.04882887006942855
0.24414435034714274
-1.0254062714579995
-0.43945983062485694
0.34180209048599985
-0.6347753109025711
-0.7324330510414282
0.24414435034714274
-0.24414435034714274
-0.8300907911802854
-0.04882887006942855
0.04882887006942855
-0.7324330510414282
-0.34180209048599985
0.04882887006942855
-0.537117570763714
-0.6347753109025711
0.04882887006942855
-0.24414435034714274
-0.6347753109025711
-0.14648661020828566
-0.04882887006942855
-0.537117570763714
-0.34180209048599985
-0.04882887006942855
-0.43945983062485694
-0.43945983062485694
-0.04882887006942855
-0.24414435034714274
-0.537117570763714
-0.14648661020828566
-0.14648661020828566
-0.43945983062485694
-0.34180209048599985
-49.365987640192266
-235.11100938429846
-488.33752956435495
-603.768978408484
-521.736476691844
-359.7222858014801
-232.57190814068818
-163.7232013427939
-118.89829861905852
-84.03448538948653
-65.38185702296482
-50.24490730144198
-32.08056763561456
-23.096055542839704
-20.263981078812847
-12.256046387426567
-6.787212939650568
-8.154421301594567
-5.615320057984283
-0.9277485313191425
-2.2949568932631417
-3.1738765545128556
0.34180209048599985
0.34180209048599985
-1.8066681925688564
0.14648661020828566
1.513694972152285
-0.7324330510414282
-0.24414435034714274
1.8066681925688564
0.43945983062485694
-0.34180209048599985
1.416037232013428
1.0254062714579995
-0.43945983062485694
0.6347753109025711
1.416037232013428
-0.04882887006942855
0.14648661020828566
1.513694972152285
0.537117570763714
-0.04882887006942855
1.0254062714579995
0.8300907911802854
0.04882887006942855
0.7324330510414282
1.2207217517357138
0.24414435034714274
0.43945983062485694
1.2207217517357138
0.537117570763714
0.14648661020828566
0.8300907911802854
33.93606469825284
165.77401388570993
379.644464789807
540.7797360189212
546.0532539864195
428.2780193789578
291.9478141451133
196.73151750972764
138.5275043869688
100.24567025253681
74.85465781643397
56.29968719005112
40.08850232700084
28.369573510337986
21.63118944075685
15.381094071869994
10.205233844510566
8.05676356145571
6.201266498817426
3.466849774929427
2.5879301136797133
2.490272373540856
1.1230640115968566
0.43945983062485694
0.9277485313191425
0.43945983062485694
-0.24414435034714274
0.04882887006942855
0.24414435034714274
-0.43945983062485694
-0.24414435034714274
0.04882887006942855
-0.34180209048599985
-0.537117570763714
-0.04882887006942855
-0.14648661020828566
-0.537117570763714
-0.14648661020828566
-0.04882887006942855
-0.43945983062485694
-0.34180209048599985
-0.04882887006942855
-0.34180209048599985
-0.43945983062485694
-0.14648661020828566
-0.24414435034714274
-0.43945983062485694
-0.24414435034714274
-0.14648661020828566
-0.43945983062485694
-0.34180209048599985
-0.14648661020828566
-0.34180209048599985
-0.34180209048599985
-0.24414435034714274
-0.24414435034714274
-0.43945983062485694
-0.34180209048599985
-0.24414435034714274
-0.34180209048599985
-0.34180209048599985
-0.24414435034714274
-0.34180209048599985
-0.34180209048599985
-0.24414435034714274
-0.24414435034714274
-0.34180209048599985
-0.24414435034714274
-0.24414435034714274
-0.34180209048599985
-0.34180209048599985
-0.24414435034714274
-0.34180209048599985
-0.34180209048599985
-0.24414435034714274
-0.24414435034714274
-0.34180209048599985
-0.24414435034714274
-0.24414435034714274
-28.857862211032273
-170.85221637293049
-424.4693675135424
-597.8118562600138
-560.3112840466927
-401.9104295414664
-257.7676050965133
-176.12573434042878
-129.6406500343328
-91.45647364003968
-68.31158922713054
-54.639505607690545
-36.57282368200198
-23.682001983672848
-21.14290074006256
-15.185778591592278
-7.177843900205997
-7.275501640344854
-6.982528419928283
-1.7090104524299992
-1.2207217517357138
-3.5645075150682843
-0.6347753109025711
1.1230640115968566
-1.513694972152285
-0.8300907911802854
1.8066681925688564
0.14648661020828566
-0.9277485313191425
1.416037232013428
1.1230640115968566
-0.8300907911802854
0.537117570763714
1.6113527122911422
0.04882887006942855
0.43945983062485694
1.9043259327077133
0.43945983062485694
-0.34180209048599985
1.0254062714579995
0.8300907911802854
-0.14648661020828566
0.7324330510414282
1.3183794918745708
0.14648661020828566
0.24414435034714274
1.1230640115968566
0.43945983062485694
16.45532921339742
87.84313725490196
237.5524528877699
428.66865033951325
546.0532539864195
510.8964675364309
380.7186999313344
254.6425574120699
173.00068665598536
124.56244754711223
90.38223849851225
67.0420386053254
50.83085374227512
36.0845349813077
24.95155260547799
19.385061417563133
14.11154345006485
8.838025482566568
6.982528419928283
5.810635538261997
3.076218814373999
2.0019836728465705
2.392614633401999
1.1230640115968566
0.04882887006942855
0.7324330510414282
0.537117570763714
-0.43945983062485694
-0.04882887006942855
0.34180209048599985
-0.43945983062485694
-0.43945983062485694
0.14648661020828566
-0.24414435034714274
-0.6347753109025711
-0.04882887006942855
-0.04882887006942855
-0.6347753109025711
-0.24414435034714274
0.04882887006942855
-0.43945983062485694
-0.43945983062485694
-0.04882887006942855
-0.24414435034714274
-0.537117570763714
-0.14648661020828566
-0.14648661020828566
-0.537117570763714
-0.34180209048599985
-0.04882887006942855
-0.34180209048599985
-0.43945983062485694
-0.14648661020828566
-0.24414435034714274
-0.43945983062485694
-0.24414435034714274
-0.24414435034714274
-0.43945983062485694
-0.24414435034714274
-0.14648661020828566
-0.34180209048599985
-0.34180209048599985
-0.14648661020828566
-0.24414435034714274
-0.43945983062485694
-0.24414435034714274
-0.24414435034714274
-0.34180209048599985
-0.34180209048599985
-0.24414435034714274
-0.34180209048599985
-0.34180209048599985
-0.24414435034714274
-0.24414435034714274
-48.877698939497975
-232.66956588082704
-485.8960860608835
-603.6713206683452
-523.103685053788
-361.08949416342415
-233.74380102235446
-164.30914778362708
-119.09361409933624
-84.22980086976425
-65.57717250324254
-50.34256504158083
-32.08056763561456
-23.19371328297856
-20.263981078812847
-12.256046387426567
-6.6895551995117115
-7.959105821316854
-5.517662317845426
-0.9277485313191425
-2.392614633401999
-3.076218814373999
0.34180209048599985
0.24414435034714274
-1.8066681925688564
0.34180209048599985
1.6113527122911422
-0.6347753109025711
-0.14648661020828566
1.7090104524299992
0.24414435034714274
-0.537117570763714
1.3183794918745708
1.0254062714579995
-0.43945983062485694
0.7324330510414282
1.3183794918745708
-0.14648661020828566
0.04882887006942855
1.3183794918745708
0.43945983062485694
0.04882887006942855
1.2207217517357138
1.0254062714579995
0.04882887006942855
0.6347753109025711
1.1230640115968566
0.14648661020828566
0.24414435034714274
1.0254062714579995
0.43945983062485694
0.14648661020828566
0.9277485313191425
0.8300907911802854
0.24414435034714274
0.6347753109025711
43.50652323186084
192.14160372320134
399.07835507743954
534.1390096894789
527.7912565804531
414.7035934996567
286.674296177615
195.07133592736704
135.40245670252537
98.39017318989853
74.75700007629511
54.83482108796826
38.525978484779124
28.857862211032273
21.533531700617992
14.209201190203707
10.400549324788281
8.642710002288853
5.322346837567712
3.2715342946517127
3.2715342946517127
2.0996414129854277
0.537117570763714
0.9277485313191425
1.0254062714579995
-0.14648661020828566
-0.04882887006942855
0.43945983062485694
-0.14648661020828566
-0.537117570763714
0.04882887006942855
-0.04882887006942855
-0.6347753109025711
-0.14648661020828566
0.04882887006942855
-0.537117570763714
-0.34180209048599985
0.04882887006942855
-0.34180209048599985
-0.537117570763714
-0.04882887006942855
-0.14648661020828566
-0.537117570763714
-0.24414435034714274
-0.04882887006942855
-0.43945983062485694
-0.34180209048599985
-0.04882887006942855
-35.010299839780274
-147.70733196002135
-280.91248950942247
-372.12481879911496
-439.70397497520406
-458.74723430228124
-395.2697032120241
-288.041504539559
-189.40718699931335
-128.4687571526665
-95.2651255054551
-25.830472266727703
160.7934691386282
420.36774242771037
569.1981383993286
518.318455786984
361.08949416342415
228.86091401541162
162.25833524071106
118.99595635919738
80.61646448462653
63.526359960326545
52.002746623941405
31.201647974364842
21.14290074006256
21.826504921034562
13.13496604867628
5.0293736171511405
8.642710002288853
7.275501640344854
0.04882887006942855
2.0019836728465705
4.834058136873426
-0.43945983062485694
-1.2207217517357138
2.9785610742351416
0.43945983062485694
-2.392614633401999
1.1230640115968566
-17.041275654230564
-141.55489433127337
-393.5118638895247
-592.6359960326544
-579.9404898146029
-423.78576333257035
-268.3146410315099
-181.9851987487602
-136.4766918440528
-94.28854810406654
-68.79987792782482
-58.25284199282826
-39.014267185473415
-22.705424582284277
-22.21713588158999
-17.43190661478599
-6.39658197909514
-6.787212939650568
-8.838025482566568
-1.6113527122911422
0.04882887006942855
-4.541084916456855
-1.2207217517357138
2.392614633401999
-1.7090104524299992
-1.9043259327077133
2.490272373540856
0.43945983062485694
-2.0019836728465705
1.513694972152285
1.9043259327077133
-1.3183794918745708
0.43945983062485694
2.392614633401999
-0.24414435034714274
-0.537117570763714
2.0996414129854277
0.7324330510414282
-0.7324330510414282
1.3183794918745708
1.416037232013428
-0.537117570763714
0.43945983062485694
1.8066681925688564
7.275501640344854
68.21393148699168
248.19714656290532
480.6225680933852
588.8273441672388
513.7285420004578
358.3550774395361
231.98596169985504
162.35599298084992
118.99595635919738
84.13214312962539
64.11230640115969
50.04959182116426
32.86182955672541
22.705424582284277
20.068665598535134
13.232623788815136
6.982528419928283
7.666132600900283
6.201266498817426
1.513694972152285
2.0996414129854277
3.36919203479057
0.24414435034714274
-0.43945983062485694
1.8066681925688564
0.43945983062485694
-1.3183794918745708
0.537117570763714
0.6347753109025711
-1.3183794918745708
-0.43945983062485694
0.8300907911802854
-0.7324330510414282
-1.0254062714579995
0.537117570763714
-0.14648661020828566
-1.1230640115968566
0.04882887006942855
0.14648661020828566
-0.9277485313191425
-0.43945983062485694
0.34180209048599985
-0.6347753109025711
-0.7324330510414282
0.14648661020828566
-0.24414435034714274
-0.8300907911802854
-0.04882887006942855
-18.506141756313422
-115.48027771419852
-309.13557640955213
-494.39230945296407
-548.5923552300297
-466.85282673380635
-334.526588845655
-224.27100022888533
-145.85183489738307
-44.48310063324941
160.01220721751736
416.8520637827115
545.4673075455863
481.5991454947738
331.108567940795
211.96612497138932
150.3440909437705
108.93720912489509
75.53826199740597
60.01068131532769
47.0222018768597
28.66254673075456
20.84992751964599
19.775692378118563
11.279468986037996
5.615320057984283
8.154421301594567
5.71297779812314
0.34180209048599985
-39.40489814602884
-208.25513084611276
-465.97390707255664
-601.718165865568
-532.3811703669795
-374.2732890821698
-243.02128633554588
-166.65293354695964
-121.53505760280765
-88.23376821545739
-66.06546120393683
-50.34256504158083
-34.717326619363696
-24.072632944228275
-19.287403677424276
-13.427939269092851
-8.05676356145571
-6.884870679789426
-5.517662317845426
-2.2949568932631417
-1.8066681925688564
-2.392614633401999
-0.537117570763714
0.14648661020828566
-0.8300907911802854
-0.24414435034714274
0.9277485313191425
0.14648661020828566
-0.04882887006942855
0.9277485313191425
0.6347753109025711
-0.04882887006942855
0.7324330510414282
1.0254062714579995
0.14648661020828566
0.43945983062485694
1.1230640115968566
0.34180209048599985
0.14648661020828566
0.9277485313191425
0.7324330510414282
0.14648661020828566
0.6347753109025711
0.8300907911802854
7.177843900205997
81.88601510643167
290.3852903028916
524.0802624551766
594.3938353551538
487.75158312352175
329.25307087815673
215.4818036163882
154.25040054932478
111.18333714808881
79.3469138628214
62.64744029907683
46.72922865644312
29.541466392004274
22.803082322423133
19.385061417563133
10.986495765621424
6.982528419928283
8.252079041733426
4.736400396734569
1.0254062714579995
3.076218814373999
2.783245593957427
-0.6347753109025711
0.34180209048599985
2.0019836728465705
-0.537117570763714
-1.0254062714579995
1.2207217517357138
0.04882887006942855
-1.416037232013428
0.24414435034714274
0.537117570763714
-1.2207217517357138
-0.43945983062485694
0.6347753109025711
-0.7324330510414282
-0.9277485313191425
0.43945983062485694
-0.14648661020828566
-1.1230640115968566
0.04882887006942855
0.14648661020828566
-0.9277485313191425
-0.34180209048599985
0.24414435034714274
-0.537117570763714
-0.7324330510414282
0.14648661020828566
-0.24414435034714274
-0.8300907911802854
-0.04882887006942855
0.04882887006942855
-0.6347753109025711
-0.34180209048599985
0.04882887006942855
-0.537117570763714
-0.6347753109025711
-0.04882887006942855
-0.34180209048599985
-0.6347753109025711
-0.14648661020828566
-0.14648661020828566
-0.537117570763714
-0.34180209048599985
-0.04882887006942855
-0.43945983062485694
-0.43945983062485694
-0.04882887006942855
-0.24414435034714274
-0.537117570763714
-0.24414435034714274
-0.14648661020828566
-0.43945983062485694
-0.34180209048599985
-0.14648661020828566
-0.34180209048599985
-0.34180209048599985
-0.14648661020828566
-0.24414435034714274
-0.43945983062485694
-0.24414435034714274
-42.529945830472265
-213.33333333333334
-466.65751125352864
-601.718165865568
-534.9202716105898
-373.98031586175324
-241.06813153276875
-167.92248416876478
-122.51163500419624
-86.47592889295797
-66.26077668421455
-51.709773403524835
-33.545433737697415
-23.291371023117417
-20.752269779507134
-13.427939269092851
-6.982528419928283
-7.861448081177996
-6.103608758678568
-1.2207217517357138
-1.9043259327077133
-3.2715342946517127
0.14648661020828566
0.7324330510414282
-1.513694972152285
0.04882887006942855
1.7090104524299992
-0.43945983062485694
-0.43945983062485694
1.7090104524299992
0.6347753109025711
-0.6347753109025711
1.0254062714579995
1.3183794918745708
-0.24414435034714274
0.43945983062485694
1.416037232013428
0.04882887006942855
0.04882887006942855
1.416037232013428
0.7324330510414282
0.04882887006942855
0.9277485313191425
0.9277485313191425
-0.04882887006942855
0.537117570763714
1.2207217517357138
0.24414435034714274
0.14648661020828566
1.0254062714579995
0.6347753109025711
0.14648661020828566
0.8300907911802854
3.36919203479057
75.53826199740597
299.17448691538874
545.2719920653086
604.452582589456
482.6733806363012
319.9755855649653
209.62233920805676
151.80895704585336
108.83955138475623
77.68673228046082
62.35446707866026
45.947966735332265
28.27191577019913
22.705424582284277
19.48271915770199
10.205233844510566
6.884870679789426
8.74036774242771
4.443427176317998
0.7324330510414282
3.466849774929427
2.783245593957427
-0.9277485313191425
0.537117570763714
2.197299153124285
-0.8300907911802854
-0.9277485313191425
1.513694972152285
-0.04882887006942855
-1.6113527122911422
0.537117570763714
0.537117570763714
-1.513694972152285
-0.24414435034714274
0.8300907911802854
-0.9277485313191425
-0.9277485313191425
0.6347753109025711
-0.24414435034714274
-1.2207217517357138
0.04882887006942855
0.04882887006942855
-1.1230640115968566
-0.34180209048599985
0.34180209048599985
-0.7324330510414282
-0.7324330510414282
0.24414435034714274
-0.34180209048599985
-0.8300907911802854
0.04882887006942855
0.04882887006942855
-0.7324330510414282
-0.24414435034714274
0.04882887006942855
-0.537117570763714
-0.537117570763714
0.04882887006942855
-0.24414435034714274
-0.6347753109025711
-0.04882887006942855
-0.04882887006942855
-0.6347753109025711
-0.34180209048599985
-0.04882887006942855
-0.43945983062485694
-0.43945983062485694
-0.04882887006942855
-0.24414435034714274
-0.537117570763714
-0.14648661020828566
-0.14648661020828566
-0.43945983062485694
-0.24414435034714274
-0.14648661020828566
-0.43945983062485694
-0.34180209048599985
-48.584725719081405
-232.47425040054932
-485.70077058060576
-603.3783474479286
-523.0060273136492
-361.28480964370186
-233.74380102235446
-164.21149004348823
-119.28892957961395
-84.52277409018082
-65.57717250324254
-50.44022278171969
-32.27588311589227
-23.291371023117417
-20.361638818951704
-12.353704127565424
-6.6895551995117115
-7.959105821316854
-5.615320057984283
-0.9277485313191425
-2.2949568932631417
-3.1738765545128556
0.24414435034714274
0.34180209048599985
-1.8066681925688564
0.14648661020828566
1.6113527122911422
-0.537117570763714
-0.24414435034714274
1.7090104524299992
0.34180209048599985
-0.43945983062485694
1.3183794918745708
1.1230640115968566
-0.34180209048599985
0.7324330510414282
1.416037232013428
-0.04882887006942855
0.04882887006942855
1.416037232013428
0.537117570763714
-0.04882887006942855
0.9277485313191425
0.8300907911802854
0.04882887006942855
0.7324330510414282
1.2207217517357138
0.24414435034714274
17.82253757534142
129.8359655146105
367.43724727244984
571.2489509422446
579.3545433737697
439.1180285343709
286.38132295719845
192.04394598306249
140.3830014496071
99.3667505912871
72.70618753337911
58.643472953383686
40.96742198825055
25.830472266727703
22.21713588158999
17.334248874647134
8.44739452201114
7.373159380483711
8.252079041733426
2.9785610742351416
1.1230640115968566
3.8574807354848555
1.7090104524299992
-1.1230640115968566
1.3183794918745708
1.6113527122911422
-1.3183794918745708
-0.24414435034714274
1.513694972152285
-0.7324330510414282
-1.2207217517357138
0.9277485313191425
0.04882887006942855
-1.6113527122911422
0.04882887006942855
0.43945983062485694
-1.2207217517357138
-0.537117570763714
0.6347753109025711
-0.7324330510414282
-0.9277485313191425
0.34180209048599985
-0.14648661020828566
-1.0254062714579995
0.04882887006942855
0.14648661020828566
-0.9277485313191425
-0.43945983062485694
0.24414435034714274
-0.537117570763714
-0.7324330510414282
0.04882887006942855
-0.14648661020828566
-0.7324330510414282
-0.14648661020828566
0.04882887006942855
-0.6347753109025711
-0.34180209048599985
0.04882887006942855
-0.43945983062485694
-0.537117570763714
0.04882887006942855
-0.24414435034714274
-0.6347753109025711
-0.14648661020828566
-0.04882887006942855
-0.537117570763714
-0.34180209048599985
-0.04882887006942855
-0.34180209048599985
-0.43945983062485694
-0.14648661020828566
-0.24414435034714274
-0.43945983062485694
-14.50217441062028
-100.34332799267567
-299.4674601358053
-512.7519645990692
-579.0615701533532
-480.2319371328298
-328.8624399176013
-216.1654077973602
-152.49256122682536
-110.49973296711681
-79.73754482337682
-61.37788967727169
-45.55733577477684
-30.029755092698558
-22.314793621728846
-18.21316853589685
-11.181811245899137
-7.177843900205997
-7.275501640344854
-4.638742656595713
-1.416037232013428
-2.2949568932631417
-2.0996414129854277
0.34180209048599985
-0.04882887006942855
-1.2207217517357138
0.34180209048599985
0.9277485313191425
-0.34180209048599985
0.24414435034714274
1.3183794918745708
0.04882887006942855
-0.14648661020828566
1.0254062714579995
0.6347753109025711
0.04882887006942855
1.0254062714579995
1.2207217517357138
0.14648661020828566
0.43945983062485694
1.1230640115968566
0.34180209048599985
0.14648661020828566
1.0254062714579995
0.8300907911802854
0.24414435034714274
0.6347753109025711
0.7324330510414282
0.24414435034714274
0.43945983062485694
0.8300907911802854
0.43945983062485694
0.34180209048599985
0.9277485313191425
41.16273746852827
207.37621118486305
461.0910200656138
601.6205081254292
538.4359502555886
378.0819409475853
243.99786373693445
169.28969253070878
123.58587014572366
87.64782177462425
66.94438086518655
52.19806210421912
34.32669565880827
23.87731746395056
20.84992751964599
13.720912489509422
7.373159380483711
8.05676356145571
6.39658197909514
1.7090104524299992
2.197299153124285
3.466849774929427
0.34180209048599985
-0.34180209048599985
1.8066681925688564
0.43945983062485694
-1.3183794918745708
0.537117570763714
0.7324330510414282
-1.2207217517357138
-0.34180209048599985
0.8300907911802854
-0.7324330510414282
-0.9277485313191425
0.537117570763714
-0.14648661020828566
-1.1230640115968566
0.04882887006942855
0.14648661020828566
-1.0254062714579995
-0.43945983062485694
0.24414435034714274
-0.6347753109025711
-0.7324330510414282
0.14648661020828566
-0.24414435034714274
-0.8300907911802854
-0.04882887006942855
0.04882887006942855
-0.7324330510414282
-0.34180209048599985
0.04882887006942855
-0.43945983062485694
-0.537117570763714
0.04882887006942855
-0.24414435034714274
-0.6347753109025711
-0.14648661020828566
-0.04882887006942855
-0.537117570763714
-0.34180209048599985
-0.04882887006942855
-0.43945983062485694
-0.43945983062485694
-0.04882887006942855
-0.24414435034714274
-0.537117570763714
-0.14648661020828566
-0.14648661020828566
-0.43945983062485694
-0.34180209048599985
-0.14648661020828566
-0.34180209048599985
-0.43945983062485694
-0.14648661020828566
-0.24414435034714274
-0.43945983062485694
-0.24414435034714274
-24.267948424505988
-157.08247501335165
-410.69962615396355
-596.2493324177921
-568.8075074387732
-411.2855725947967
-263.13878080415043
-178.7624933241779
-131.98443579766536
-92.92133974212253
-68.79987792782482
-55.713740749217976
-37.74471656366827
-23.87731746395056
-21.43587396047913
-15.869382772564279
-7.177843900205997
-6.982528419928283
-7.373159380483711
-1.9043259327077133
-0.9277485313191425
-3.7598229953459983
-0.9277485313191425
1.416037232013428
-1.416037232013428
-1.1230640115968566
1.8066681925688564
0.24414435034714274
-1.0254062714579995
1.3183794918745708
1.3183794918745708
-0.7324330510414282
0.6347753109025711
1.9043259327077133
-0.04882887006942855
-0.14648661020828566
1.6113527122911422
0.6347753109025711
-0.24414435034714274
1.2207217517357138
1.1230640115968566
-0.24414435034714274
0.537117570763714
1.3183794918745708
0.14648661020828566
0.34180209048599985
21.045242999923705
123.68352788586252
335.4055085069047
534.6272983901732
571.5419241626612
456.7940794995041
309.33089188982984
206.10666056305791
145.94949263752193
104.93324177920195
77.29610131990539
59.62005035477226
42.822919050888835
28.95551995117113
22.510109102006563
17.041275654230564
10.400549324788281
7.861448081177996
7.080186160067139
3.7598229953459983
2.0019836728465705
2.8809033340962844
1.7090104524299992
0.04882887006942855
0.8300907911802854
1.0254062714579995
-0.537117570763714
-0.14648661020828566
0.6347753109025711
-0.34180209048599985
-0.7324330510414282
0.24414435034714274
-0.04882887006942855
-0.8300907911802854
-0.04882887006942855
0.04882887006942855
-0.7324330510414282
-0.43945983062485694
0.14648661020828566
-0.43945983062485694
-0.6347753109025711
0.04882887006942855
-0.14648661020828566
-0.6347753109025711
-0.14648661020828566
-0.04882887006942855
-0.537117570763714
-0.34180209048599985
0.04882887006942855
-0.43945983062485694
-0.537117570763714
-0.04882887006942855
-0.24414435034714274
-0.537117570763714
-0.24414435034714274
-0.14648661020828566
-0.43945983062485694
-0.34180209048599985
-0.14648661020828566
-0.34180209048599985
-0.43945983062485694
-0.14648661020828566
-0.24414435034714274
-0.43945983062485694
-0.24414435034714274
-0.14648661020828566
-0.43945983062485694
-0.34180209048599985
-0.24414435034714274
-0.43945983062485694
-4.052796215762569
-68.11627374685283
-268.7052719920653
-511.77538719768063
-599.1790646219578
-500.54474708171205
-340.28839551384755
-221.73189898527505
-157.57076371404594
-113.72243839169909
-81.00709544518196
-63.6240177004654
-47.705806057831694
-30.22507057297627
-22.803082322423133
-19.58037689784085
-11.181811245899137
-6.787212939650568
-8.05676356145571
-4.931715877012284
-0.8300907911802854
-2.5879301136797133
-2.5879301136797133
0.7324330510414282
0.14648661020828566
-1.513694972152285
0.7324330510414282
1.416037232013428
-0.7324330510414282
0.04882887006942855
1.6113527122911422
0.04882887006942855
-0.34180209048599985
1.416037232013428
0.7324330510414282
-0.34180209048599985
1.0254062714579995
1.3183794918745708
-0.04882887006942855
0.24414435034714274
1.3183794918745708
0.24414435034714274
0.04882887006942855
1.0254062714579995
0.537117570763714
-0.04882887006942855
0.7324330510414282
1.0254062714579995
0.04882887006942855
0.43945983062485694
1.0254062714579995
0.34180209048599985
0.24414435034714274
0.9277485313191425
27.1976806286717
144.28931105516136
356.20660715648125
535.6038757915618
558.1628137636377
444.0009155413138
302.2018768596933
201.90737773708705
142.6291294728008
103.27306019684139
76.22186617837797
57.95986877241169
41.84634164950027
28.857862211032273
21.92416266117342
16.45532921339742
10.498207064927138
7.861448081177996
6.6895551995117115
3.8574807354848555
2.197299153124285
2.5879301136797133
1.513694972152285
0.14648661020828566
0.7324330510414282
0.8300907911802854
-0.34180209048599985
-0.14648661020828566
0.43945983062485694
-0.24414435034714274
-0.537117570763714
0.04882887006942855
-0.04882887006942855
-0.6347753109025711
-0.14648661020828566
0.04882887006942855
-0.537117570763714
-0.34180209048599985
0.04882887006942855
-0.34180209048599985
-0.537117570763714
-0.04882887006942855
-0.24414435034714274
-0.537117570763714
-0.24414435034714274
-0.04882887006942855
-0.43945983062485694
-0.34180209048599985
-0.04882887006942855
-0.34180209048599985
-0.43945983062485694
-0.14648661020828566
-0.24414435034714274
-0.43945983062485694
-0.24414435034714274
-0.14648661020828566
-0.43945983062485694
-0.34180209048599985
-0.14648661020828566
-0.34180209048599985
-0.34180209048599985
-0.24414435034714274
-0.34180209048599985
-0.43945983062485694
-0.34180209048599985
-0.24414435034714274
-0.34180209048599985
-0.34180209048599985
-0.24414435034714274
-0.34180209048599985
-0.34180209048599985
-0.24414435034714274
-0.24414435034714274
-0.34180209048599985
-0.24414435034714274
-0.24414435034714274
-0.34180209048599985
-0.34180209048599985
-0.24414435034714274
-40.772106507972836
-207.66918440527962
-460.99336232547495
-601.1322194247349
-537.9476615548944
-377.3983367666133
-243.2166018158236
-169.09437705043106
-123.39055466544595
-87.25719081406882
-66.74906538490883
-52.19806210421912
-34.0337224383917
-23.48668650339513
-20.752269779507134
-13.525597009231708
-6.982528419928283
-7.861448081177996
-6.39658197909514
-1.416037232013428
-1.9043259327077133
-3.2715342946517127
0.04882887006942855
0.8300907911802854
-1.6113527122911422
-0.24414435034714274
1.513694972152285
-0.43945983062485694
-0.537117570763714
1.6113527122911422
0.6347753109025711
-0.537117570763714
1.2207217517357138
1.3183794918745708
-0.34180209048599985
0.43945983062485694
1.6113527122911422
0.24414435034714274
0.04882887006942855
1.416037232013428
0.7324330510414282
-0.14648661020828566
0.7324330510414282
0.9277485313191425
0.04882887006942855
0.537117570763714
1.2207217517357138
0.43945983062485694
35.303273060196844
191.75097276264592
444.78217746242467
599.3743801022355
548.5923552300297
389.21492332341495
249.85732814526588
172.51239795529108
126.9062333104448
89.30800335698481
67.53032730601969
53.85824368657969
35.49858854047456
23.48668650339513
21.24055848020142
14.697489890897993
7.080186160067139
7.763790341039139
7.177843900205997
1.7090104524299992
1.7090104524299992
3.8574807354848555
0.537117570763714
-0.8300907911802854
1.9043259327077133
0.8300907911802854
-1.6113527122911422
0.34180209048599985
1.1230640115968566
-1.3183794918745708
-0.6347753109025711
1.0254062714579995
-0.537117570763714
-1.2207217517357138
0.537117570763714
0.04882887006942855
-1.3183794918745708
0.04882887006942855
0.43945983062485694
-1.0254062714579995
-0.537117570763714
0.43945983062485694
-0.537117570763714
-0.9277485313191425
0.24414435034714274
-0.04882887006942855
-0.9277485313191425
-0.14648661020828566
0.14648661020828566
-0.7324330510414282
-0.43945983062485694
0.14648661020828566
-0.43945983062485694
-0.6347753109025711
0.04882887006942855
-0.14648661020828566
-0.7324330510414282
-0.14648661020828566
0.04882887006942855
-0.6347753109025711
-0.43945983062485694
-0.04882887006942855
-0.43945983062485694
-0.537117570763714
-0.04882887006942855
-4.150453955901427
-76.71015487907225
-292.24078736552985
-534.0413519493401
-600.9369039444572
-486.38437476157776
-324.6631570916304
-212.7473868925002
-153.46913862821393
-109.8161287861448
-78.27267872129397
-62.64744029907683
-46.04562447547112
-28.467231250476843
-22.60776684214542
-19.18974593728542
-9.912260624093996
-6.6895551995117115
-8.44739452201114
-4.150453955901427
-0.6347753109025711
-3.36919203479057
-2.490272373540856
1.2207217517357138
-0.24414435034714274
-1.9043259327077133
1.1230640115968566
1.3183794918745708
-1.0254062714579995
0.43945983062485694
1.9043259327077133
-0.34180209048599985
-0.34180209048599985
1.6113527122911422
0.537117570763714
-0.34180209048599985
1.416037232013428
1.2207217517357138
-0.34180209048599985
0.6347753109025711
1.513694972152285
0.04882887006942855
0.04882887006942855
1.3183794918745708
0.6347753109025711
-0.04882887006942855
0.9277485313191425
0.9277485313191425
0.04882887006942855
0.6347753109025711
1.1230640115968566
0.24414435034714274
0.24414435034714274
1.0254062714579995
0.6347753109025711
0.24414435034714274
25.63515678644999
159.7192339971008
412.8480964370184
596.8352788586252
567.9285877775235
409.723048752575
262.3575188830396
178.86015106431677
131.78912031738764
92.82368200198367
69.28816662851911
55.90905622949569
37.549401083390556
24.17029068436713
21.826504921034562
15.771725032425422
7.470817120622568
7.666132600900283
7.763790341039139
2.0996414129854277
1.416037232013428
4.052796215762569
1.0254062714579995
-1.0254062714579995
1.8066681925688564
1.2207217517357138
-1.6113527122911422
0.04882887006942855
1.416037232013428
-1.1230640115968566
-0.9277485313191425
1.1230640115968566
-0.34180209048599985
-1.513694972152285
0.34180209048599985
0.14648661020828566
-1.416037232013428
-0.14648661020828566
0.537117570763714
-0.9277485313191425
-0.7324330510414282
0.43945983062485694
-0.34180209048599985
-1.0254062714579995
0.14648661020828566
0.04882887006942855
-1.0254062714579995
-0.24414435034714274
0.24414435034714274
-0.7324330510414282
-0.6347753109025711
0.14648661020828566
-0.34180209048599985
-0.7324330510414282
0.04882887006942855
-0.04882887006942855
-0.7324330510414282
-0.24414435034714274
0.04882887006942855
-0.537117570763714
-0.43945983062485694
0.04882887006942855
-0.34180209048599985
-0.537117570763714
-0.04882887006942855
-0.14648661020828566
-0.537117570763714
-0.24414435034714274
-0.04882887006942855
-0.43945983062485694
-0.43945983062485694
-0.04882887006942855
-0.34180209048599985
-0.43945983062485694
-0.14648661020828566
-0.24414435034714274
-19.775692378118563
-141.35957885099566
-393.1212329289693
-592.2453650720989
-577.4013885709926
-422.41855497062636
-270.7560845349813
-182.76646066987107
-134.9141680018311
-95.36278324559396
-70.16708628976883
-56.7879758907454
-38.818951705195694
-24.267948424505988
-21.533531700617992
-16.357671473258563
-7.568474860761425
-7.080186160067139
-7.763790341039139
-2.197299153124285
-0.8300907911802854
-3.7598229953459983
-1.1230640115968566
1.513694972152285
-1.2207217517357138
-1.3183794918745708
1.8066681925688564
0.537117570763714
-1.1230640115968566
1.3183794918745708
1.513694972152285
-0.7324330510414282
0.43945983062485694
1.8066681925688564
-0.04882887006942855
-0.14648661020828566
1.6113527122911422
0.7324330510414282
-0.34180209048599985
1.1230640115968566
1.2207217517357138
-0.14648661020828566
0.537117570763714
1.416037232013428
0.14648661020828566
0.04882887006942855
1.2207217517357138
0.7324330510414282
77.10078583962768
321.14747844663157
573.5927367055772
611.4839398794537
470.27084763866634
303.764400701915
199.36827649347677
147.51201647974364
105.12855725947966
74.46402685587854
61.475547417410546
44.67841611352712
26.318760967421987
22.412451361867703
19.58037689784085
9.033340962844282
6.39658197909514
9.228656443121995
3.9551384756237127
0.04882887006942855
3.9551384756237127
2.783245593957427
-1.7090104524299992
0.7324330510414282
2.490272373540856
-1.3183794918745708
-1.1230640115968566
1.9043259327077133
-0.24414435034714274
-1.9043259327077133
0.9277485313191425
0.537117570763714
-1.9043259327077133
-0.04882887006942855
1.0254062714579995
-1.2207217517357138
-0.9277485313191425
0.9277485313191425
-0.43945983062485694
-1.416037232013428
0.34180209048599985
0.14648661020828566
-1.3183794918745708
-0.24414435034714274
0.43945983062485694
-0.8300907911802854
-0.7324330510414282
0.43945983062485694
-0.34180209048599985
-0.9277485313191425
0.04882887006942855
0.04882887006942855
-0.9277485313191425
-0.24414435034714274
0.14648661020828566
-0.6347753109025711
-0.537117570763714
0.14648661020828566
-0.34180209048599985
-0.7324330510414282
-0.04882887006942855
-0.14648661020828566
-0.7324330510414282
-0.34180209048599985
0.04882887006942855
-0.537117570763714
-0.43945983062485694
0.04882887006942855
-0.34180209048599985
-0.537117570763714
-0.14648661020828566
-0.14648661020828566
-0.537117570763714
-0.24414435034714274
-0.04882887006942855
-0.43945983062485694
-3.466849774929427
-74.17105363546197
-291.459525444419
-535.8968490119784
-602.3041123064012
-486.87266346227204
-324.76081483176927
-212.45441367208363
-153.2738231479362
-110.10910200656139
-78.37033646143283
-62.45212481879911
-46.14328221560998
-28.564888990615703
-22.510109102006563
-19.287403677424276
-10.205233844510566
-6.6895551995117115
-8.349736781872283
-4.345769436179141
-0.537117570763714
-3.076218814373999
-2.490272373540856
1.2207217517357138
-0.14648661020828566
-1.8066681925688564
1.1230640115968566
1.416037232013428
-1.0254062714579995
0.24414435034714274
1.9043259327077133
-0.14648661020828566
-0.24414435034714274
1.7090104524299992
0.6347753109025711
-0.43945983062485694
1.2207217517357138
1.2207217517357138
-0.24414435034714274
0.537117570763714
1.416037232013428
0.04882887006942855
0.04882887006942855
1.416037232013428
0.537117570763714
-0.24414435034714274
0.8300907911802854
0.9277485313191425
31.2993057145037
175.93041886015106
422.71152819104293
587.6554512855726
554.1588464179446
403.6682688639658
261.96688792248415
178.5671778439002
130.71488517586022
92.82368200198367
69.0928511482414
54.83482108796826
37.4517433432517
24.560921644922562
21.24055848020142
15.47875181200885
7.959105821316854
7.470817120622568
7.275501640344854
2.392614633401999
1.6113527122911422
3.5645075150682843
1.1230640115968566
-0.7324330510414282
1.513694972152285
1.0254062714579995
-1.2207217517357138
0.04882887006942855
1.1230640115968566
-0.9277485313191425
-0.8300907911802854
0.8300907911802854
-0.34180209048599985
-1.3183794918745708
0.24414435034714274
0.04882887006942855
-1.2207217517357138
-0.24414435034714274
0.34180209048599985
-0.8300907911802854
-0.7324330510414282
0.34180209048599985
-0.34180209048599985
-0.9277485313191425
0.04882887006942855
0.04882887006942855
-0.8300907911802854
-0.24414435034714274
0.04882887006942855
-0.6347753109025711
-0.537117570763714
0.04882887006942855
-0.34180209048599985
-0.6347753109025711
-0.04882887006942855
-0.14648661020828566
-0.6347753109025711
-0.24414435034714274
0.04882887006942855
-0.43945983062485694
-0.43945983062485694
-0.04882887006942855
-0.34180209048599985
-0.537117570763714
-0.14648661020828566
-0.14648661020828566
-0.43945983062485694
-0.24414435034714274
-0.14648661020828566
-0.43945983062485694
-0.34180209048599985
-0.14648661020828566
-0.34180209048599985
-0.43945983062485694
-0.14648661020828566
-0.24414435034714274
-0.43945983062485694
-0.24414435034714274
-0.14648661020828566
-0.34180209048599985
-9.71694514381628
-102.88242923628596
-339.40947585259784
-566.1707484550241
-593.5149156939041
-456.89173723964296
-298.1979095140002
-197.5127794308385
-144.48462653543908
-102.88242923628596
-74.07339589532312
-59.91302357518883
-42.72526131074998
-26.22110322728313
-22.119478141451133
-18.11551079575799
-8.935683222705425
-6.982528419928283
-8.349736781872283
-3.1738765545128556
-0.43945983062485694
-3.5645075150682843
-2.0019836728465705
1.513694972152285
-0.6347753109025711
-1.7090104524299992
1.513694972152285
1.0254062714579995
-1.2207217517357138
0.8300907911802854
1.8066681925688564
-0.43945983062485694
-0.04882887006942855
1.7090104524299992
0.24414435034714274
-0.34180209048599985
1.513694972152285
1.0254062714579995
-0.43945983062485694
0.7324330510414282
1.3183794918745708
-0.04882887006942855
0.24414435034714274
1.416037232013428
0.43945983062485694
0.04882887006942855
1.0254062714579995
0.7324330510414282
-0.04882887006942855
0.7324330510414282
18.60379949645228
114.4060425726711
322.221713588159
527.4006256198977
574.5693141069657
465.5832761120012
316.85053788052187
209.71999694819561
148.29327840085452
107.37468528267338
78.37033646143283
60.108339055466544
43.99481193255512
29.63912413214313
22.412451361867703
17.52956435492485
10.986495765621424
7.666132600900283
7.177843900205997
4.345769436179141
2.0019836728465705
2.68558785381857
2.0019836728465705
0.04882887006942855
0.537117570763714
1.1230640115968566
-0.24414435034714274
-0.43945983062485694
0.6347753109025711
-0.04882887006942855
-0.8300907911802854
0.04882887006942855
0.04882887006942855
-0.8300907911802854
-0.24414435034714274
0.14648661020828566
-0.537117570763714
-0.537117570763714
0.04882887006942855
-0.34180209048599985
-0.7324330510414282
-0.14648661020828566
-0.14648661020828566
-0.6347753109025711
-0.34180209048599985
0.04882887006942855
-0.537117570763714
-0.43945983062485694
-0.04882887006942855
-0.24414435034714274
-0.537117570763714
-0.14648661020828566
-0.14648661020828566
-0.537117570763714
-0.34180209048599985
-0.04882887006942855
-0.43945983062485694
-0.43945983062485694
-0.14648661020828566
-0.24414435034714274
-0.43945983062485694
-0.24414435034714274
-0.24414435034714274
-0.43945983062485694
-0.24414435034714274
-0.14648661020828566
-0.34180209048599985
-0.34180209048599985
-0.14648661020828566
-0.24414435034714274
-0.43945983062485694
-0.24414435034714274
-0.24414435034714274
-0.34180209048599985
-0.34180209048599985
-0.24414435034714274
-15.47875181200885
-122.6092927443351
-362.3590447852293
-573.1044480048829
-583.3585107194629
-441.85244525825897
-287.6508735790036
-192.33691920347906
-140.67597467002366
-99.75738155184253
-72.60852979324025
-58.44815747310597
-40.96742198825055
-25.63515678644999
-21.92416266117342
-17.236591134508277
-8.349736781872283
-6.884870679789426
-7.959105821316854
-2.783245593957427
-0.7324330510414282
-3.5645075150682843
-1.6113527122911422
1.3183794918745708
-0.9277485313191425
-1.416037232013428
1.6113527122911422
0.6347753109025711
-1.2207217517357138
0.8300907911802854
1.416037232013428
-0.6347753109025711
0.24414435034714274
2.0019836728465705
0.24414435034714274
-0.14648661020828566
1.513694972152285
0.8300907911802854
-0.34180209048599985
0.9277485313191425
1.3183794918745708
-0.04882887006942855
0.24414435034714274
1.3183794918745708
0.34180209048599985
0.14648661020828566
1.2207217517357138
0.7324330510414282
0.04882887006942855
0.8300907911802854
1.0254062714579995
0.04882887006942855
38.72129396505684
201.8097199969482
454.54795147631035
600.5462729839018
542.7328908216983
382.2812237735561
245.85336079957276
170.75455863279163
125.05073624780651
88.03845273517967
67.13969634546426
53.07698176546884
34.61966887922484
23.58434424353399
21.24055848020142
14.11154345006485
7.080186160067139
8.05676356145571
6.884870679789426
1.513694972152285
2.0019836728465705
3.8574807354848555
0.34180209048599985
-0.6347753109025711
2.0019836728465705
0.537117570763714
-1.513694972152285
0.537117570763714
1.0254062714579995
-1.416037232013428
-0.43945983062485694
1.0254062714579995
-0.7324330510414282
-1.1230640115968566
0.6347753109025711
-0.04882887006942855
-1.3183794918745708
0.04882887006942855
0.34180209048599985
-1.1230640115968566
-0.43945983062485694
0.43945983062485694
-0.6347753109025711
-0.8300907911802854
0.24414435034714274
-0.14648661020828566
-0.9277485313191425
-0.14648661020828566
0.04882887006942855
-0.8300907911802854
-0.43945983062485694
0.14648661020828566
-0.537117570763714
-0.6347753109025711
0.04882887006942855
-0.24414435034714274
-0.6347753109025711
-0.14648661020828566
-0.04882887006942855
-0.6347753109025711
-0.34180209048599985
0.04882887006942855
-0.43945983062485694
-0.537117570763714
-0.04882887006942855
-0.24414435034714274
-0.537117570763714
-0.14648661020828566
-0.14648661020828566
-0.43945983062485694
-0.34180209048599985
-0.04882887006942855
-0.34180209048599985
-0.43945983062485694
-0.14648661020828566
-0.24414435034714274
-0.43945983062485694
-0.24414435034714274
-0.24414435034714274
-4.052796215762569
-85.59700923170824
-322.80766002899213
-565.6824597543298
-604.452582589456
-467.8294041351949
-304.2526894026093
-200.6378271152819
-147.31670099946592
-104.44495307850767
-74.65934233615626
-61.182574196993976
-43.99481193255512
-26.318760967421987
-22.314793621728846
-18.799114976729992
-8.74036774242771
-6.494239719233997
-8.74036774242771
-3.36919203479057
-0.14648661020828566
-3.7598229953459983
-2.197299153124285
1.6113527122911422
-0.7324330510414282
-2.0019836728465705
1.7090104524299992
1.1230640115968566
-1.513694972152285
0.7324330510414282
2.0019836728465705
-0.7324330510414282
-0.14648661020828566
2.0996414129854277
0.34180209048599985
-0.537117570763714
1.513694972152285
1.1230640115968566
-0.537117570763714
0.7324330510414282
1.513694972152285
-0.04882887006942855
0.24414435034714274
1.6113527122911422
0.43945983062485694
0.04882887006942855
1.3183794918745708
0.9277485313191425
-0.14648661020828566
31.103990234225986
168.02014190890364
400.83619439993896
569.1981383993286
554.8424505989166
415.87548638132296
274.5647364003967
186.9657434958419
134.62119478141452
95.55809872587167
71.8272678721294
56.20202944991226
38.23300526436255
25.92813000686656
22.021820401312276
15.47875181200885
8.44739452201114
8.05676356145571
7.080186160067139
2.490272373540856
2.0019836728465705
3.5645075150682843
0.9277485313191425
-0.34180209048599985
1.6113527122911422
0.7324330510414282
-1.1230640115968566
0.24414435034714274
0.8300907911802854
-0.9277485313191425
-0.537117570763714
0.7324330510414282
-0.43945983062485694
-1.0254062714579995
0.34180209048599985
0.04882887006942855
-1.1230640115968566
-0.04882887006942855
0.24414435034714274
-0.8300907911802854
-0.537117570763714
0.24414435034714274
-0.43945983062485694
-0.8300907911802854
0.04882887006942855
-0.14648661020828566
-0.8300907911802854
-0.24414435034714274
0.04882887006942855
-0.6347753109025711
-0.43945983062485694
0.04882887006942855
-0.34180209048599985
-0.6347753109025711
-0.04882887006942855
-0.14648661020828566
-0.6347753109025711
-0.24414435034714274
-0.04882887006942855
-0.537117570763714
-0.34180209048599985
-0.04882887006942855
-0.34180209048599985
-0.537117570763714
-0.14648661020828566
-0.24414435034714274
-8.838025482566568
-72.70618753337911
-252.49408712901504
-482.9663538567178
-587.6554512855726
-509.3339436942092
-354.83939879453726
-231.00938429846647
-160.89112687876707
-117.04280155642023
-83.93682764934768
-63.91699092088197
-48.78004119935912
-32.37354085603113
-22.90074006256199
-19.18974593728542
-12.549019607843137
-7.275501640344854
-7.177843900205997
-5.224689097428855
-1.416037232013428
-2.0019836728465705
-2.68558785381857
-0.04882887006942855
0.24414435034714274
-1.3183794918745708
0.04882887006942855
1.3183794918745708
-0.14648661020828566
-0.04882887006942855
1.3183794918745708
0.43945983062485694
-0.24414435034714274
1.0254062714579995
1.1230640115968566
0.04882887006942855
0.537117570763714
1.1230640115968566
0.04882887006942855
0.24414435034714274
1.2207217517357138
0.6347753109025711
0.24414435034714274
0.9277485313191425
0.8300907911802854
0.04882887006942855
0.537117570763714
0.9277485313191425
0.24414435034714274
0.14648661020828566
0.8300907911802854
0.537117570763714
0.14648661020828566
0.6347753109025711
0.7324330510414282
0.34180209048599985
0.6347753109025711
0.8300907911802854
0.43945983062485694
0.43945983062485694
29.9320973525597
173.00068665598536
426.42252231631954
598.300144960708
559.5300221255817
400.83619439993896
257.279316395819
176.22339208056763
129.54299229419394
91.45647364003968
68.70222018768597
54.83482108796826
36.67048142214084
24.072632944228275
21.43587396047913
15.185778591592278
7.373159380483711
7.666132600900283
7.275501640344854
2.0019836728465705
1.6113527122911422
3.8574807354848555
0.8300907911802854
-0.8300907911802854
1.7090104524299992
0.9277485313191425
-1.513694972152285
0.24414435034714274
1.1230640115968566
-1.1230640115968566
-0.7324330510414282
1.0254062714579995
-0.43945983062485694
-1.3183794918745708
0.43945983062485694
0.14648661020828566
-1.3183794918745708
-0.14648661020828566
0.43945983062485694
-0.9277485313191425
-0.6347753109025711
0.43945983062485694
-0.43945983062485694
-0.9277485313191425
0.14648661020828566
-0.04882887006942855
-0.9277485313191425
-0.14648661020828566
0.14648661020828566
-0.7324330510414282
-0.537117570763714
0.14648661020828566
-0.34180209048599985
-0.7324330510414282
-0.04882887006942855
-0.14648661020828566
-0.7324330510414282
-0.24414435034714274
0.04882887006942855
-0.537117570763714
-0.43945983062485694
0.04882887006942855
-0.34180209048599985
-0.537117570763714
-0.14648661020828566
-0.14648661020828566
-0.537117570763714
-0.24414435034714274
-0.14648661020828566
-0.43945983062485694
-0.34180209048599985
-0.04882887006942855
-0.34180209048599985
-0.43945983062485694
-0.14648661020828566
-0.24414435034714274
-0.43945983062485694
-0.24414435034714274
-25.342183566033416
-160.40283817807278
-414.0199893186847
-596.4446478980698
-566.5613794155795
-408.9417868314641
-261.8692301823453
-178.0788891432059
-131.39848935683221
-92.5307087815671
-68.70222018768597
-55.420767528801406
-37.35408560311284
-23.779659723811704
-21.338216220340275
-15.771725032425422
-7.275501640344854
-7.177843900205997
-7.568474860761425
-2.0019836728465705
-1.1230640115968566
-3.7598229953459983
-0.9277485313191425
1.3183794918745708
-1.3183794918745708
-0.9277485313191425
2.0019836728465705
0.24414435034714274
-1.1230640115968566
1.416037232013428
1.3183794918745708
-0.7324330510414282
0.6347753109025711
1.7090104524299992
-0.24414435034714274
-0.04882887006942855
1.7090104524299992
0.6347753109025711
-0.24414435034714274
1.2207217517357138
1.1230640115968566
-0.14648661020828566
0.43945983062485694
1.2207217517357138
0.04882887006942855
0.04882887006942855
1.1230640115968566
0.43945983062485694
59.522392614633404
267.1427481498436
519.9786373693446
606.503395132372
502.98619058518346
339.5071335927367
220.4623483634699
157.96139467460137
114.21072709239338
80.71412222476539
63.91699092088197
48.48706797894255
30.127412832837415
22.803082322423133
20.263981078812847
11.47478446631571
6.787212939650568
8.642710002288853
5.322346837567712
0.8300907911802854
2.9785610742351416
3.2715342946517127
-0.6347753109025711
0.04882887006942855
2.2949568932631417
-0.34180209048599985
-1.2207217517357138
1.3183794918745708
0.24414435034714274
-1.6113527122911422
0.24414435034714274
0.8300907911802854
-1.3183794918745708
-0.6347753109025711
0.8300907911802854
-0.7324330510414282
-1.2207217517357138
0.43945983062485694
-0.04882887006942855
-1.2207217517357138
-0.04882887006942855
0.24414435034714274
-0.9277485313191425
-0.537117570763714
0.34180209048599985
-0.537117570763714
-0.8300907911802854
0.14648661020828566
-0.14648661020828566
-0.8300907911802854
-0.04882887006942855
0.04882887006942855
-0.7324330510414282
-0.43945983062485694
0.04882887006942855
-0.43945983062485694
-0.6347753109025711
0.04882887006942855
-0.14648661020828566
-0.6347753109025711
-0.14648661020828566
-0.04882887006942855
-0.537117570763714
-0.34180209048599985
-0.04882887006942855
-0.34180209048599985
-0.43945983062485694
-0.04882887006942855
-0.24414435034714274
-0.537117570763714
-0.24414435034714274
-13.13496604867628
-113.2341496910048
-346.92912184328986
-563.3386739909972
-586.4835584039063
-451.81353475242236
-296.0494392309453
-196.92683299000535
-143.5080491340505
-102.00350957503625
-73.87808041504539
-59.62005035477226
-42.33463035019455
-26.22110322728313
-21.92416266117342
-17.724879835202564
-8.74036774242771
-6.884870679789426
-8.154421301594567
-3.2715342946517127
-0.7324330510414282
-3.466849774929427
-1.8066681925688564
1.3183794918745708
-0.8300907911802854
-1.513694972152285
1.6113527122911422
0.8300907911802854
-1.1230640115968566
0.8300907911802854
1.7090104524299992
-0.537117570763714
0.04882887006942855
1.8066681925688564
0.24414435034714274
-0.34180209048599985
1.416037232013428
0.9277485313191425
-0.43945983062485694
0.7324330510414282
1.2207217517357138
-0.04882887006942855
0.24414435034714274
1.3183794918745708
0.34180209048599985
0.04882887006942855
1.2207217517357138
0.8300907911802854
0.04882887006942855
0.7324330510414282
1.0254062714579995
16.064698252841993
104.1519798580911
300.24872205691617
508.2597085526818
575.3505760280766
480.32959487296864
330.5226214999619
217.14198519874876
152.98084992751964
111.08567940794995
80.12817578393225
61.475547417410546
46.14328221560998
30.615701533531702
22.510109102006563
18.40848401617456
11.670099946593423
7.373159380483711
7.373159380483711
4.931715877012284
1.8066681925688564
2.490272373540856
2.490272373540856
0.04882887006942855
0.24414435034714274
1.416037232013428
-0.14648661020828566
-0.8300907911802854
0.537117570763714
0.04882887006942855
-1.0254062714579995
0.04882887006942855
0.34180209048599985
-0.8300907911802854
-0.537117570763714
0.34180209048599985
-0.43945983062485694
-0.8300907911802854
0.04882887006942855
-0.04882887006942855
-0.8300907911802854
-0.14648661020828566
0.04882887006942855
-0.6347753109025711
-0.43945983062485694
0.04882887006942855
-0.34180209048599985
-0.6347753109025711
-0.04882887006942855
-0.14648661020828566
-0.6347753109025711
-0.14648661020828566
-0.04882887006942855
-0.537117570763714
-0.34180209048599985
-0.04882887006942855
-0.34180209048599985
-0.537117570763714
-0.14648661020828566
-0.24414435034714274
-0.537117570763714
-0.24414435034714274
-0.14648661020828566
-0.43945983062485694
-0.34180209048599985
-0.14648661020828566
-0.34180209048599985
-0.43945983062485694
-0.14648661020828566
-0.24414435034714274
-0.43945983062485694
-0.24414435034714274
-0.14648661020828566
-0.34180209048599985
-0.34180209048599985
-0.14648661020828566
-0.34180209048599985
-0.34180209048599985
-0.24414435034714274
-0.34180209048599985
-33.93606469825284
-186.0868238345922
-439.6063172350652
-599.1790646219578
-551.0337987335012
-391.65636682688637
-251.71282520790416
-173.29365987640193
-127.10154879072252
-89.69863431754024
-67.62798504615854
-53.56527046616312
-35.49858854047456
-23.779659723811704
-21.045242999923705
-14.404516670481422
-7.080186160067139
-7.568474860761425
-6.787212939650568
-1.7090104524299992
-1.513694972152285
-3.36919203479057
-0.14648661020828566
1.1230640115968566
-1.513694972152285
-0.537117570763714
1.7090104524299992
-0.04882887006942855
-0.7324330510414282
1.513694972152285
0.9277485313191425
-0.6347753109025711
0.8300907911802854
1.416037232013428
-0.24414435034714274
0.24414435034714274
1.6113527122911422
0.43945983062485694
-0.04882887006942855
1.2207217517357138
0.7324330510414282
-0.24414435034714274
0.7324330510414282
1.1230640115968566
0.04882887006942855
0.537117570763714
5.420004577706569
55.32310978866255
225.34523537041275
468.22003509575035
594.4914930952926
526.2287327382314
369.48805981536583
239.50560769054704
165.8716716258488
121.24208438239108
86.67124437323568
65.6748302433814
50.83085374227512
34.0337224383917
23.58434424353399
20.068665598535134
13.525597009231708
7.666132600900283
7.568474860761425
6.103608758678568
2.0019836728465705
2.0996414129854277
3.076218814373999
0.43945983062485694
-0.24414435034714274
1.513694972152285
0.43945983062485694
-1.1230640115968566
0.43945983062485694
0.6347753109025711
-1.0254062714579995
-0.34180209048599985
0.6347753109025711
-0.6347753109025711
-0.8300907911802854
0.34180209048599985
-0.14648661020828566
-1.0254062714579995
0.04882887006942855
0.04882887006942855
-0.8300907911802854
-0.34180209048599985
0.14648661020828566
-0.537117570763714
-0.6347753109025711
0.04882887006942855
-0.24414435034714274
-0.7324330510414282
-0.04882887006942855
0.04882887006942855
-0.6347753109025711
-0.34180209048599985
0.04882887006942855
-0.43945983062485694
-0.537117570763714
-0.04882887006942855
-0.24414435034714274
-0.537117570763714
-0.14648661020828566
-0.14648661020828566
-0.537117570763714
-0.34180209048599985
-0.04882887006942855
-0.43945983062485694
-0.43945983062485694
-0.14648661020828566
-0.24414435034714274
-0.43945983062485694
-0.24414435034714274
-0.14648661020828566
-0.43945983062485694
-0.34180209048599985
-0.14648661020828566
-0.34180209048599985
-0.34180209048599985
-44.48310063324941
-217.2396429388876
-465.77859159227893
-595.1750972762646
-530.1350423437858
-374.0779736018921
-243.50957503624016
-169.58266575112535
-122.90226596475166
-87.15953307392996
-66.94438086518655
-51.51445792324712
-33.64309147783627
-23.779659723811704
-20.55695429922942
-13.232623788815136
-7.275501640344854
-7.861448081177996
-5.810635538261997
-1.3183794918745708
-2.0996414129854277
-2.9785610742351416
0.14648661020828566
0.537117570763714
-1.513694972152285
0.04882887006942855
1.513694972152285
-0.24414435034714274
-0.04882887006942855
1.7090104524299992
0.43945983062485694
-0.6347753109025711
1.0254062714579995
1.0254062714579995
-0.24414435034714274
0.6347753109025711
1.513694972152285
0.14648661020828566
0.14648661020828566
1.2207217517357138
0.43945983062485694
-0.14648661020828566
0.9277485313191425
1.0254062714579995
0.04882887006942855
0.537117570763714
1.0254062714579995
0.04882887006942855
0.14648661020828566
0.9277485313191425
0.537117570763714
0.24414435034714274
0.9277485313191425
18.017853055619135
126.51560234988938
361.870756084535
567.1473258564126
578.8662546730754
442.14541847867554
290.48294804303043
194.09475852597848
140.87129015030138
100.63630121309224
73.58510719462882
58.44815747310597
41.358052948805984
26.61173418783856
22.021820401312276
17.236591134508277
9.130998702983138
7.373159380483711
7.861448081177996
3.36919203479057
1.3183794918745708
3.466849774929427
1.8066681925688564
-0.7324330510414282
1.0254062714579995
1.513694972152285
-1.0254062714579995
-0.34180209048599985
1.2207217517357138
-0.537117570763714
-1.1230640115968566
0.6347753109025711
0.04882887006942855
-1.3183794918745708
0.04882887006942855
0.34180209048599985
-1.0254062714579995
-0.537117570763714
0.43945983062485694
-0.537117570763714
-0.9277485313191425
0.24414435034714274
-0.04882887006942855
-0.9277485313191425
-0.04882887006942855
0.04882887006942855
-0.8300907911802854
-0.537117570763714
0.04882887006942855
-0.43945983062485694
-0.6347753109025711
0.04882887006942855
-0.14648661020828566
-0.7324330510414282
-0.14648661020828566
-0.04882887006942855
-0.537117570763714
-0.34180209048599985
0.04882887006942855
-0.43945983062485694
-0.537117570763714
-0.04882887006942855
-0.24414435034714274
-0.537117570763714
-0.24414435034714274
-0.14648661020828566
-0.43945983062485694
-0.34180209048599985
-0.04882887006942855
-0.34180209048599985
-0.43945983062485694
-0.14648661020828566
-0.24414435034714274
-0.43945983062485694
-0.24414435034714274
-0.14648661020828566
-0.43945983062485694
-0.34180209048599985
-0.14648661020828566
-3.7598229953459983
-90.67521171892882
-339.5071335927367
-582.7725642786297
-606.503395132372
-457.86831464103153
-293.0220492866407
-193.99710078583962
-144.1916533150225
-101.71053635461966
-72.70618753337911
-60.49897001602197
-42.72526131074998
-24.95155260547799
-22.314793621728846
-18.799114976729992
-8.05676356145571
-6.494239719233997
-9.033340962844282
-2.9785610742351416
0.04882887006942855
-4.052796215762569
-2.0019836728465705
2.197299153124285
-0.9277485313191425
-2.0996414129854277
2.0019836728465705
1.0254062714579995
-1.8066681925688564
0.9277485313191425
2.0996414129854277
-0.9277485313191425
-0.04882887006942855
2.2949568932631417
0.14648661020828566
-0.7324330510414282
1.6113527122911422
1.1230640115968566
-0.6347753109025711
0.9277485313191425
1.6113527122911422
-0.14648661020828566
0.24414435034714274
1.6113527122911422
0.24414435034714274
-0.14648661020828566
1.3183794918745708
0.9277485313191425
17.920195315480278
139.01579308766307
393.316548409247
594.2961776150149
579.7451743343252
424.2740520332647
270.46311131456474
182.08285648889907
135.7930876630808
95.75341420614939
69.48348210879682
57.27626459143969
39.69787136644541
23.974975204089418
21.728847180895706
17.334248874647134
7.568474860761425
6.884870679789426
8.545052262149996
2.68558785381857
0.537117570763714
4.150453955901427
1.7090104524299992
-1.6113527122911422
1.416037232013428
1.9043259327077133
-1.7090104524299992
-0.43945983062485694
1.8066681925688564
-0.8300907911802854
-1.513694972152285
1.1230640115968566
0.04882887006942855
-1.7090104524299992
0.24414435034714274
0.6347753109025711
-1.416037232013428
-0.537117570763714
0.8300907911802854
-0.7324330510414282
-1.1230640115968566
0.537117570763714
-0.04882887006942855
-1.2207217517357138
0.04882887006942855
0.24414435034714274
-1.0254062714579995
-0.43945983062485694
0.34180209048599985
-0.537117570763714
-0.8300907911802854
0.14648661020828566
-0.14648661020828566
-0.8300907911802854
-0.04882887006942855
0.04882887006942855
-0.7324330510414282
-0.34180209048599985
0.04882887006942855
-0.43945983062485694
-0.6347753109025711
0.04882887006942855
-0.24414435034714274
-0.6347753109025711
-0.14648661020828566
-0.04882887006942855
-0.537117570763714
-0.34180209048599985
0.04882887006942855
-0.43945983062485694
-0.43945983062485694
-0.04882887006942855
-0.24414435034714274
-0.537117570763714
-0.24414435034714274
-0.14648661020828566
-0.43945983062485694
-41.45571068894484
-209.5246814679179
-463.1418326085298
-601.5228503852903
-536.7757686732281
-376.226443884947
-242.7283131151293
-168.70374608987564
-122.99992370489052
-87.15953307392996
-66.55374990463112
-51.80743114366369
-33.838406958113985
-23.389028763256274
-20.55695429922942
-13.427939269092851
-7.080186160067139
-7.666132600900283
-6.005951018539712
-1.3183794918745708
-1.9043259327077133
-3.1738765545128556
0.04882887006942855
0.6347753109025711
-1.6113527122911422
-0.14648661020828566
1.6113527122911422
-0.34180209048599985
-0.43945983062485694
1.6113527122911422
0.6347753109025711
-0.6347753109025711
0.9277485313191425
1.2207217517357138
-0.24414435034714274
0.537117570763714
1.513694972152285
0.14648661020828566
0.04882887006942855
1.2207217517357138
0.6347753109025711
-0.04882887006942855
1.0254062714579995
1.0254062714579995
0.04882887006942855
0.537117570763714
1.1230640115968566
0.14648661020828566
0.04882887006942855
0.9277485313191425
0.6347753109025711
0.24414435034714274
0.8300907911802854
0.9277485313191425
62.9404135194934
276.6155489433127
529.9397268635081
607.7729457541772
496.73609521629663
332.7687495231556
216.8490119783322
156.00823987182423
112.25757228961623
79.63988708323797
63.526359960326545
47.51049057755398
29.443808651865414
22.998397802700847
19.971007858396277
10.888838025482567
6.884870679789426
8.74036774242771
4.834058136873426
0.8300907911802854
3.2715342946517127
3.076218814373999
-0.8300907911802854
0.34180209048599985
2.2949568932631417
-0.6347753109025711
-1.1230640115968566
1.416037232013428
0.04882887006942855
-1.6113527122911422
0.43945983062485694
0.6347753109025711
-1.416037232013428
-0.43945983062485694
0.8300907911802854
-0.8300907911802854
-1.0254062714579995
0.537117570763714
-0.14648661020828566
-1.2207217517357138
0.04882887006942855
0.24414435034714274
-1.0254062714579995
-0.34180209048599985
0.34180209048599985
-0.6347753109025711
-0.7324330510414282
0.14648661020828566
-0.24414435034714274
-0.9277485313191425
-0.04882887006942855
0.04882887006942855
-0.7324330510414282
-0.34180209048599985
0.04882887006942855
-0.537117570763714
-0.537117570763714
0.04882887006942855
-0.24414435034714274
-0.6347753109025711
-0.14648661020828566
-0.04882887006942855
-0.537117570763714
-0.34180209048599985
-0.04882887006942855
-0.43945983062485694
-0.43945983062485694
-0.04882887006942855
-0.24414435034714274
-0.537117570763714
-0.14648661020828566
-0.14648661020828566
-0.43945983062485694
-0.34180209048599985
-0.14648661020828566
-0.34180209048599985
-0.43945983062485694
-0.14648661020828566
-0.24414435034714274
-0.43945983062485694
-0.24414435034714274
-0.24414435034714274
-0.43945983062485694
-0.24414435034714274
-0.14648661020828566
-66.26077668421455
-286.18600747692074
-538.9242389562829
-608.6518654154269
-490.8766308079652
-325.639734493019
-212.64972915236135
-154.25040054932478
-110.3044174868391
-78.07736324101626
-63.13572899977112
-46.63157091630426
-28.174258030060273
-22.705424582284277
-19.775692378118563
-10.009918364232853
-6.494239719233997
-8.74036774242771
-4.248111696040284
-0.24414435034714274
-3.36919203479057
-2.783245593957427
1.513694972152285
-0.24414435034714274
-2.0996414129854277
1.2207217517357138
1.513694972152285
-1.3183794918745708
0.43945983062485694
2.197299153124285
-0.24414435034714274
-0.24414435034714274
2.0019836728465705
0.7324330510414282
-0.537117570763714
1.3183794918745708
1.3183794918745708
-0.34180209048599985
0.6347753109025711
1.6113527122911422
0.04882887006942855
0.04882887006942855
1.416037232013428
0.537117570763714
-0.14648661020828566
1.0254062714579995
0.9277485313191425
-0.04882887006942855
0.537117570763714
1.1230640115968566
45.16670481422141
221.34126802471962
475.54436560616466
602.6947432669566
529.4514381628138
368.99977111467155
238.62668802929733
166.35996032654307
121.33974212252994
86.28061341268025
66.06546120393683
51.123826962691695
33.545433737697415
23.58434424353399
20.45929655909056
13.330281528953995
7.373159380483711
7.959105821316854
6.201266498817426
1.6113527122911422
2.2949568932631417
3.36919203479057
0.24414435034714274
-0.24414435034714274
1.8066681925688564
0.24414435034714274
-1.2207217517357138
0.6347753109025711
0.6347753109025711
-1.2207217517357138
-0.24414435034714274
0.7324330510414282
-0.8300907911802854
-0.8300907911802854
0.537117570763714
-0.24414435034714274
-1.1230640115968566
0.04882887006942855
0.14648661020828566
-0.9277485313191425
-0.34180209048599985
0.24414435034714274
-0.6347753109025711
-0.6347753109025711
0.14648661020828566
-0.34180209048599985
-0.9277485313191425
-0.14648661020828566
-0.04882887006942855
-0.7324330510414282
-0.34180209048599985
0.04882887006942855
-0.537117570763714
-0.537117570763714
0.04882887006942855
-0.24414435034714274
-0.6347753109025711
-0.14648661020828566
-0.14648661020828566
-0.537117570763714
-0.34180209048599985
-0.04882887006942855
-0.43945983062485694
-0.43945983062485694
-0.04882887006942855
-0.24414435034714274
-0.43945983062485694
-0.14648661020828566
-0.14648661020828566
-0.43945983062485694
-0.34180209048599985
-0.14648661020828566
-0.34180209048599985
-0.34180209048599985
-0.14648661020828566
-1.9043259327077133
-81.00709544518196
-320.854505226215
-568.9051651789121
-608.3588921950103
-469.39192797741663
-303.9597161821927
-200.24719615472648
-147.70733196002135
-104.54261081864652
-74.46402685587854
-61.475547417410546
-43.99481193255512
-25.92813000686656
-22.412451361867703
-19.092088197146563
-8.545052262149996
-6.494239719233997
-9.130998702983138
-3.466849774929427
0.04882887006942855
-3.8574807354848555
-2.2949568932631417
2.0019836728465705
-0.7324330510414282
-2.197299153124285
1.6113527122911422
1.1230640115968566
-1.6113527122911422
0.8300907911802854
2.0996414129854277
-0.7324330510414282
-0.14648661020828566
2.197299153124285
0.24414435034714274
-0.7324330510414282
1.513694972152285
1.2207217517357138
-0.6347753109025711
0.7324330510414282
1.513694972152285
-0.24414435034714274
0.04882887006942855
1.6113527122911422
0.43945983062485694
-0.04882887006942855
1.3183794918745708
0.9277485313191425
-0.14648661020828566
0.6347753109025711
46.533913176165406
214.70054169527734
451.81353475242236
579.4522011139086
526.8146791790646
381.98825055313955
254.25192645151446
176.22339208056763
125.24605172808423
89.89394979781795
69.38582436865796
52.10040436408026
34.717326619363696
25.732814526588847
20.947585259784848
13.13496604867628
8.545052262149996
8.545052262149996
5.517662317845426
2.0996414129854277
3.076218814373999
2.783245593957427
0.04882887006942855
0.43945983062485694
1.6113527122911422
-0.04882887006942855
-0.7324330510414282
0.8300907911802854
0.14648661020828566
-1.1230640115968566
0.04882887006942855
0.34180209048599985
-0.9277485313191425
-0.43945983062485694
0.34180209048599985
-0.537117570763714
-0.8300907911802854
0.14648661020828566
-0.14648661020828566
-0.8300907911802854
-0.04882887006942855
0.04882887006942855
-0.7324330510414282
-0.43945983062485694
0.04882887006942855
-0.43945983062485694
-0.6347753109025711
0.04882887006942855
-0.14648661020828566
-0.6347753109025711
-0.14648661020828566
-0.04882887006942855
-0.537117570763714
-0.34180209048599985
-0.04882887006942855
-0.34180209048599985
-0.43945983062485694
-0.04882887006942855
-0.24414435034714274
-0.537117570763714
-0.24414435034714274
-0.14648661020828566
-0.43945983062485694
-0.34180209048599985
-0.04882887006942855
-0.34180209048599985
-0.43945983062485694
-0.14648661020828566
-0.34180209048599985
-0.537117570763714
-0.24414435034714274
-0.24414435034714274
-0.43945983062485694
-0.34180209048599985
-0.14648661020828566
-0.34180209048599985
-0.34180209048599985
-0.24414435034714274
-0.24414435034714274
-0.34180209048599985
-0.24414435034714274
-55.713740749217976
-254.1542687113756
-507.18547341115436
-605.4291599908446
-510.0175478751812
-346.831464103151
-225.14991989013504
-160.30518043793393
-115.77325093461509
-81.78835736629281
-64.50293736171511
-48.877698939497975
-30.615701533531702
-22.998397802700847
-20.068665598535134
-11.377126726176853
-6.591897459372854
-8.252079041733426
-5.0293736171511405
-0.7324330510414282
-2.783245593957427
-2.9785610742351416
0.8300907911802854
0.04882887006942855
-2.0019836728465705
0.537117570763714
1.513694972152285
-0.9277485313191425
-0.04882887006942855
1.8066681925688564
0.04882887006942855
-0.43945983062485694
1.6113527122911422
0.9277485313191425
-0.43945983062485694
0.9277485313191425
1.416037232013428
-0.04882887006942855
0.34180209048599985
1.416037232013428
0.24414435034714274
-0.04882887006942855
1.2207217517357138
0.8300907911802854
-0.04882887006942855
20.947585259784848
145.75417715724421
398.59006637674526
595.3704127565424
576.8154421301595
419.1958495460441
267.8263523308156
181.69222552834364
134.32822156099795
94.28854810406654
69.87411306935225
57.08094911116198
38.525978484779124
24.17029068436713
22.119478141451133
16.45532921339742
7.373159380483711
7.470817120622568
8.05676356145571
2.0996414129854277
1.0254062714579995
4.248111696040284
1.2207217517357138
-1.3183794918745708
1.8066681925688564
1.416037232013428
-1.7090104524299992
0.04882887006942855
1.6113527122911422
-1.1230640115968566
-1.1230640115968566
1.2207217517357138
-0.24414435034714274
-1.6113527122911422
0.43945983062485694
0.43945983062485694
-1.416037232013428
-0.24414435034714274
0.7324330510414282
-0.9277485313191425
-0.9277485313191425
0.537117570763714
-0.24414435034714274
-1.1230640115968566
0.14648661020828566
0.04882887006942855
-1.0254062714579995
-0.24414435034714274
0.24414435034714274
-0.7324330510414282
-0.6347753109025711
0.24414435034714274
-0.34180209048599985
-0.8300907911802854
0.04882887006942855
0.04882887006942855
-0.7324330510414282
-0.24414435034714274
0.04882887006942855
-0.537117570763714
-0.537117570763714
0.04882887006942855
-0.24414435034714274
-0.6347753109025711
-0.04882887006942855
-0.14648661020828566
-0.537117570763714
-0.24414435034714274
-0.04882887006942855
-0.43945983062485694
-0.43945983062485694
-0.04882887006942855
-0.34180209048599985
-0.537117570763714
-40.38147554741741
-206.69260700389106
-460.4074158846418
-601.034561684596
-538.3382925154498
-378.277256427863
-243.80254825665673
-168.9967193102922
-123.4882124055848
-87.45250629434653
-66.65140764476998
-52.19806210421912
-34.22903791866941
-23.48668650339513
-20.654612039368278
-13.623254749370565
-7.080186160067139
-7.666132600900283
-6.201266498817426
-1.3183794918745708
-1.8066681925688564
-3.36919203479057
-0.04882887006942855
0.8300907911802854
-1.416037232013428
-0.04882887006942855
1.7090104524299992
-0.24414435034714274
-0.537117570763714
1.513694972152285
0.6347753109025711
-0.537117570763714
1.0254062714579995
1.3183794918745708
-0.24414435034714274
0.43945983062485694
1.513694972152285
0.14648661020828566
-0.04882887006942855
1.2207217517357138
0.7324330510414282
0.04882887006942855
1.0254062714579995
1.0254062714579995
0.04882887006942855
0.43945983062485694
1.2207217517357138
0.43945983062485694
0.14648661020828566
0.9277485313191425
0.6347753109025711
0.14648661020828566
0.7324330510414282
0.7324330510414282
0.14648661020828566
13.623254749370565
105.7145037003128
321.63576714732585
538.1429770351721
584.4327458609903
467.34111543450064
313.1395437552453
207.37621118486305
148.7815671015488
106.49576562142367
77.19844357976653
60.987258716716255
44.19012741283284
28.369573510337986
22.60776684214542
18.21316853589685
10.009918364232853
7.373159380483711
8.05676356145571
3.9551384756237127
1.3183794918745708
3.36919203479057
2.197299153124285
-0.6347753109025711
0.8300907911802854
1.6113527122911422
-0.7324330510414282
-0.537117570763714
1.1230640115968566
-0.24414435034714274
-1.2207217517357138
0.537117570763714
0.14648661020828566
-1.2207217517357138
-0.14648661020828566
0.43945983062485694
-0.9277485313191425
-0.6347753109025711
0.43945983062485694
-0.43945983062485694
-0.9277485313191425
0.14648661020828566
0.04882887006942855
-0.9277485313191425
-0.14648661020828566
0.14648661020828566
-0.6347753109025711
-0.537117570763714
0.14648661020828566
-0.34180209048599985
-0.7324330510414282
0.04882887006942855
-0.14648661020828566
-0.6347753109025711
-0.24414435034714274
0.04882887006942855
-0.537117570763714
-0.43945983062485694
0.04882887006942855
-0.34180209048599985
-0.537117570763714
-0.04882887006942855
-0.14648661020828566
-0.537117570763714
-0.24414435034714274
-0.04882887006942855
-0.43945983062485694
-0.34180209048599985
-0.04882887006942855
-0.34180209048599985
-0.43945983062485694
-0.14648661020828566
-0.24414435034714274
-0.43945983062485694
-0.24414435034714274
-0.14648661020828566
