ecg
1.1230640115968566
0.8300907911802854
1.2207217517357138
0.24414435034714274
-0.14648661020828566
0.34180209048599985
0.04882887006942855
-0.537117570763714
-0.04882887006942855
0.04882887006942855
-0.537117570763714
-0.34180209048599985
0.04882887006942855
-0.34180209048599985
-0.537117570763714
-0.04882887006942855
-0.14648661020828566
-0.537117570763714
-0.24414435034714274
-0.14648661020828566
-0.537117570763714
-0.43945983062485694
-0.04882887006942855
-0.34180209048599985
-0.43945983062485694
-0.14648661020828566
-0.24414435034714274
-0.43945983062485694
-0.24414435034714274
-0.14648661020828566
-0.43945983062485694
-0.34180209048599985
-0.14648661020828566
-0.34180209048599985
-0.34180209048599985
-0.24414435034714274
-0.24414435034714274
-0.34180209048599985
-0.24414435034714274
-0.24414435034714274
-0.34180209048599985
-0.34180209048599985
-0.14648661020828566
-0.34180209048599985
-0.34180209048599985
-0.24414435034714274
-0.24414435034714274
-0.34180209048599985
-0.24414435034714274
-0.24414435034714274
-0.34180209048599985
-0.34180209048599985
-0.24414435034714274
-0.34180209048599985
-0.34180209048599985
-0.24414435034714274
-0.24414435034714274
-0.34180209048599985
-0.24414435034714274
-59.03410391393912
-264.11535820553905
-517.0489051651789
-606.3080796520943
-503.96276798657203
-340.28839551384755
-221.34126802471962
-158.25436789501794
-113.82009613183794
-80.71412222476539
-64.20996414129854
-48.19409475852598
-29.834439612420844
-22.90074006256199
-20.16632333867399
-11.08415350576028
-6.787212939650568
-8.545052262149996
-4.834058136873426
-0.537117570763714
-2.8809033340962844
-2.8809033340962844
0.9277485313191425
0.04882887006942855
-1.9043259327077133
0.8300907911802854
1.513694972152285
-1.0254062714579995
0.14648661020828566
2.0019836728465705
-0.04882887006942855
-0.43945983062485694
1.6113527122911422
0.8300907911802854
-0.43945983062485694
1.1230640115968566
1.3183794918745708
-0.34180209048599985
0.34180209048599985
1.416037232013428
0.14648661020828566
-0.04882887006942855
1.2207217517357138
0.7324330510414282
0.04882887006942855
0.9277485313191425
14.599832150759136
104.05432211795224
316.65522240024416
532.771801327535
582.4795910582131
469.78255893797206
317.436484321355
209.5246814679179
149.07454032196537
107.66765850308995
78.17502098115511
60.59662775616083
44.48310063324941
29.346150911726557
22.412451361867703
18.017853055619135
10.79118028534371
7.470817120622568
7.568474860761425
4.345769436179141
1.6113527122911422
2.8809033340962844
2.2949568932631417
-0.14648661020828566
0.537117570763714
1.416037232013428
-0.34180209048599985
-0.537117570763714
0.8300907911802854
-0.04882887006942855
-1.0254062714579995
0.24414435034714274
0.14648661020828566
-0.9277485313191425
-0.24414435034714274
0.34180209048599985
-0.7324330510414282
-0.7324330510414282
0.14648661020828566
-0.34180209048599985
-0.8300907911802854
0.04882887006942855
0.04882887006942855
-0.7324330510414282
-0.34180209048599985
0.04882887006942855
-0.537117570763714
-0.537117570763714
0.04882887006942855
-0.24414435034714274
-0.6347753109025711
-0.14648661020828566
-0.04882887006942855
-0.537117570763714
-0.34180209048599985
-0.04882887006942855
-0.43945983062485694
-0.43945983062485694
-0.04882887006942855
-0.34180209048599985
-0.537117570763714
-0.14648661020828566
-0.14648661020828566
-0.43945983062485694
-0.24414435034714274
-0.14648661020828566
-0.34180209048599985
-0.43945983062485694
-0.14648661020828566
-0.24414435034714274
-0.43945983062485694
-0.24414435034714274
-0.24414435034714274
-0.34180209048599985
-0.24414435034714274
-0.24414435034714274
-0.34180209048599985
-0.34180209048599985
-0.24414435034714274
-0.34180209048599985
-0.34180209048599985
-16.943617914091707
-134.13290608072023
-388.1406881818875
-594.1985198748761
-582.2842755779354
-426.22720683604183
-272.1232928969253
-183.05943389028764
-135.69542992294194
-95.65575646601053
-69.87411306935225
-57.178606851300835
-39.20958266575113
-24.072632944228275
-21.63118944075685
-16.84596017395285
-7.568474860761425
-6.884870679789426
-8.05676356145571
-2.2949568932631417
-0.43945983062485694
-3.7598229953459983
-1.3183794918745708
1.6113527122911422
-1.2207217517357138
-1.513694972152285
1.9043259327077133
0.537117570763714
-1.416037232013428
1.2207217517357138
1.7090104524299992
-0.8300907911802854
0.24414435034714274
1.9043259327077133
-0.04882887006942855
-0.34180209048599985
1.6113527122911422
0.8300907911802854
-0.43945983062485694
1.0254062714579995
1.3183794918745708
-0.14648661020828566
0.43945983062485694
1.416037232013428
0.24414435034714274
0.04882887006942855
1.3183794918745708
0.6347753109025711
-0.04882887006942855
50.53788052185855
223.1967650873579
446.9306477454795
562.4597543297475
517.8301670862897
384.1367208361944
259.91607537956816
180.81330586709393
127.00389105058366
90.87052719920653
70.65537499046312
52.49103532463569
34.717326619363696
26.416418707560844
21.338216220340275
12.84199282825971
8.74036774242771
8.935683222705425
5.322346837567712
2.0019836728465705
3.36919203479057
2.783245593957427
-0.04882887006942855
0.6347753109025711
1.7090104524299992
-0.34180209048599985
-0.6347753109025711
1.0254062714579995
0.04882887006942855
-1.1230640115968566
0.24414435034714274
0.34180209048599985
-1.0254062714579995
-0.34180209048599985
0.43945983062485694
-0.6347753109025711
-0.7324330510414282
0.34180209048599985
-0.24414435034714274
-0.9277485313191425
0.04882887006942855
0.04882887006942855
-0.8300907911802854
-0.34180209048599985
0.14648661020828566
-0.537117570763714
-0.6347753109025711
0.04882887006942855
-0.24414435034714274
-0.6347753109025711
-0.04882887006942855
-0.04882887006942855
-0.6347753109025711
-0.34180209048599985
-0.04882887006942855
-0.537117570763714
-0.537117570763714
-0.14648661020828566
-0.34180209048599985
-0.537117570763714
-0.14648661020828566
-0.14648661020828566
-0.537117570763714
-0.34180209048599985
-0.04882887006942855
-0.34180209048599985
-0.43945983062485694
-0.14648661020828566
-0.24414435034714274
-0.43945983062485694
-0.24414435034714274
-0.14648661020828566
-0.43945983062485694
-3.076218814373999
-72.70618753337911
-288.725108720531
-533.8460364690624
-602.8900587472343
-488.82581826504924
-326.42099641412983
-213.33333333333334
-153.66445410849164
-110.20675974670024
-78.37033646143283
-62.64744029907683
-46.33859769588769
-28.564888990615703
-22.510109102006563
-19.385061417563133
-10.302891584649425
-6.6895551995117115
-8.545052262149996
-4.443427176317998
-0.537117570763714
-3.1738765545128556
-2.490272373540856
1.2207217517357138
-0.14648661020828566
-1.9043259327077133
1.1230640115968566
1.3183794918745708
-1.1230640115968566
0.34180209048599985
1.9043259327077133
-0.14648661020828566
-0.34180209048599985
1.6113527122911422
0.6347753109025711
-0.537117570763714
1.2207217517357138
1.416037232013428
-0.14648661020828566
0.537117570763714
1.416037232013428
0.04882887006942855
0.14648661020828566
1.416037232013428
0.6347753109025711
-0.04882887006942855
0.9277485313191425
0.9277485313191425
0.04882887006942855
0.537117570763714
1.2207217517357138
38.23300526436255
199.46593423361563
453.66903181506063
600.6439307240406
542.6352330815595
383.35545891508355
247.02525368123904
170.55924315251391
125.05073624780651
88.81971465629053
67.13969634546426
52.78400854505226
35.10795757991913
23.779659723811704
20.84992751964599
14.306858930342566
7.470817120622568
7.763790341039139
6.6895551995117115
1.8066681925688564
1.8066681925688564
3.466849774929427
0.537117570763714
-0.537117570763714
1.7090104524299992
0.6347753109025711
-1.3183794918745708
0.34180209048599985
0.8300907911802854
-1.1230640115968566
-0.537117570763714
0.8300907911802854
-0.537117570763714
-1.0254062714579995
0.43945983062485694
0.04882887006942855
-1.1230640115968566
0.04882887006942855
0.24414435034714274
-0.9277485313191425
-0.537117570763714
0.34180209048599985
-0.537117570763714
-0.8300907911802854
0.14648661020828566
-0.14648661020828566
-0.8300907911802854
-0.14648661020828566
0.04882887006942855
-0.6347753109025711
-0.43945983062485694
0.04882887006942855
-0.43945983062485694
-0.6347753109025711
0.04882887006942855
-0.14648661020828566
-0.6347753109025711
-0.14648661020828566
-0.04882887006942855
-0.537117570763714
-0.34180209048599985
-0.04882887006942855
-0.34180209048599985
-0.43945983062485694
-0.14648661020828566
-0.24414435034714274
-0.537117570763714
-0.24414435034714274
-0.14648661020828566
-0.43945983062485694
-0.34180209048599985
-0.14648661020828566
-0.34180209048599985
-0.43945983062485694
-0.14648661020828566
-0.24414435034714274
-75.63591973754482
-314.89738307774473
-567.5379568169681
-611.4839398794537
-473.49355306324867
-306.59647516594185
-201.51674677653162
-148.68390936140995
-105.32387273975738
-74.75700007629511
-61.67086289768826
-44.28778515297169
-25.92813000686656
-22.510109102006563
-19.385061417563133
-8.545052262149996
-6.39658197909514
-9.228656443121995
-3.5645075150682843
0.04882887006942855
-3.7598229953459983
-2.392614633401999
1.9043259327077133
-0.7324330510414282
-2.2949568932631417
1.8066681925688564
1.3183794918745708
-1.6113527122911422
0.6347753109025711
2.0996414129854277
-0.9277485313191425
-0.34180209048599985
2.0996414129854277
0.14648661020828566
-0.8300907911802854
1.6113527122911422
1.3183794918745708
-0.6347753109025711
0.8300907911802854
1.6113527122911422
-0.24414435034714274
0.04882887006942855
1.6113527122911422
0.537117570763714
-0.04882887006942855
1.2207217517357138
0.9277485313191425
5.420004577706569
54.053559166857404
211.38017853055618
447.80956740672923
589.1203173876554
536.2874799725338
380.62104219119556
245.56038757915618
169.58266575112535
124.36713206683451
87.84313725490196
66.45609216449226
52.588693064774546
34.81498435950255
23.389028763256274
20.752269779507134
14.306858930342566
7.275501640344854
7.666132600900283
6.787212939650568
1.8066681925688564
1.8066681925688564
3.662165255207141
0.537117570763714
-0.6347753109025711
1.8066681925688564
0.7324330510414282
-1.416037232013428
0.34180209048599985
0.9277485313191425
-1.2207217517357138
-0.537117570763714
0.9277485313191425
-0.537117570763714
-1.1230640115968566
0.537117570763714
0.04882887006942855
-1.2207217517357138
-0.04882887006942855
0.34180209048599985
-0.9277485313191425
-0.537117570763714
0.34180209048599985
-0.537117570763714
-0.8300907911802854
0.14648661020828566
-0.14648661020828566
-0.8300907911802854
-0.14648661020828566
0.04882887006942855
-0.7324330510414282
-0.537117570763714
0.04882887006942855
-0.43945983062485694
-0.6347753109025711
0.04882887006942855
-0.14648661020828566
-0.6347753109025711
-0.14648661020828566
-0.04882887006942855
-0.537117570763714
-0.43945983062485694
0.04882887006942855
-0.34180209048599985
-0.537117570763714
-0.04882887006942855
-0.24414435034714274
-0.537117570763714
-0.24414435034714274
-0.14648661020828566
-0.43945983062485694
-0.34180209048599985
-0.14648661020828566
-0.34180209048599985
-0.43945983062485694
-0.14648661020828566
-0.24414435034714274
-0.43945983062485694
-0.24414435034714274
-0.14648661020828566
-0.34180209048599985
-57.471580071717405
-259.03715571831844
-512.2636758983749
-606.1127641718166
-506.99015793087665
-343.6087586785687
-223.48973830777447
-159.2309452964065
-114.60135805294881
-81.30006866559853
-64.3076218814374
-48.38941023880369
-30.22507057297627
-23.096055542839704
-20.068665598535134
-11.08415350576028
-6.591897459372854
-8.349736781872283
-4.931715877012284
-0.6347753109025711
-2.783245593957427
-2.8809033340962844
0.8300907911802854
0.04882887006942855
-1.9043259327077133
0.7324330510414282
1.416037232013428
-1.0254062714579995
0.04882887006942855
1.8066681925688564
-0.04882887006942855
-0.34180209048599985
1.7090104524299992
0.8300907911802854
-0.537117570763714
0.9277485313191425
1.3183794918745708
-0.24414435034714274
0.34180209048599985
1.416037232013428
0.24414435034714274
0.04882887006942855
1.3183794918745708
0.8300907911802854
-0.04882887006942855
0.8300907911802854
1.0254062714579995
0.14648661020828566
0.537117570763714
1.1230640115968566
7.177843900205997
90.57755397878996
318.02243076218815
551.3267719539177
596.6399633783475
471.14976729991605
311.38170443274583
204.83710994125278
148.87922484168766
106.69108110170139
76.22186617837797
61.28023193713283
44.873731593804834
27.68596932936599
22.412451361867703
18.994430457007706
9.912260624093996
6.787212939650568
8.545052262149996
4.248111696040284
0.7324330510414282
3.466849774929427
2.68558785381857
-1.0254062714579995
0.6347753109025711
2.0996414129854277
-0.9277485313191425
-0.9277485313191425
1.416037232013428
-0.14648661020828566
-1.6113527122911422
0.537117570763714
0.43945983062485694
-1.513694972152285
-0.24414435034714274
0.7324330510414282
-0.9277485313191425
-0.9277485313191425
0.6347753109025711
-0.34180209048599985
-1.1230640115968566
0.14648661020828566
0.04882887006942855
-1.0254062714579995
-0.24414435034714274
0.34180209048599985
-0.7324330510414282
-0.6347753109025711
0.24414435034714274
-0.34180209048599985
-0.8300907911802854
0.04882887006942855
0.04882887006942855
-0.8300907911802854
-0.24414435034714274
0.04882887006942855
-0.537117570763714
-0.537117570763714
0.04882887006942855
-0.24414435034714274
-0.6347753109025711
-0.04882887006942855
-0.14648661020828566
-0.537117570763714
-0.24414435034714274
-0.04882887006942855
-0.43945983062485694
-0.43945983062485694
-0.04882887006942855
-0.34180209048599985
-0.537117570763714
-0.14648661020828566
-0.14648661020828566
-0.43945983062485694
-0.24414435034714274
-0.14648661020828566
-0.43945983062485694
-0.34180209048599985
-0.14648661020828566
-14.795147631036851
-127.49217975127794
-381.2069886320287
-593.4172579537652
-586.5812161440451
-430.71946288242924
-274.6623941405356
-184.5242999923705
-137.06263828488594
-96.53467612726024
-70.36240177004655
-57.66689555199512
-39.600213626306555
-23.974975204089418
-21.728847180895706
-17.041275654230564
-7.373159380483711
-6.787212939650568
-8.252079041733426
-2.2949568932631417
-0.43945983062485694
-4.052796215762569
-1.416037232013428
1.8066681925688564
-1.2207217517357138
-1.6113527122911422
2.0019836728465705
0.7324330510414282
-1.416037232013428
1.2207217517357138
1.7090104524299992
-0.9277485313191425
0.24414435034714274
2.0019836728465705
-0.04882887006942855
-0.34180209048599985
1.7090104524299992
0.8300907911802854
-0.43945983062485694
1.1230640115968566
1.3183794918745708
-0.14648661020828566
0.537117570763714
1.6113527122911422
0.24414435034714274
0.14648661020828566
1.513694972152285
0.8300907911802854
0.04882887006942855
0.9277485313191425
9.130998702983138
61.768520637827116
221.34126802471962
452.98542763408864
584.9210345616846
528.0842298008698
375.8358129243915
243.31425955596245
166.84824902723736
122.8046082246128
87.94079499504082
65.28419928282597
51.22148470283055
35.20561532005799
23.389028763256274
19.775692378118563
14.404516670481422
7.666132600900283
6.982528419928283
6.591897459372854
2.392614633401999
1.6113527122911422
3.1738765545128556
1.0254062714579995
-0.537117570763714
1.3183794918745708
0.8300907911802854
-1.0254062714579995
0.04882887006942855
0.8300907911802854
-0.8300907911802854
-0.7324330510414282
0.6347753109025711
-0.24414435034714274
-1.0254062714579995
0.14648661020828566
0.04882887006942855
-1.0254062714579995
-0.24414435034714274
0.24414435034714274
-0.7324330510414282
-0.6347753109025711
0.24414435034714274
-0.34180209048599985
-0.8300907911802854
0.04882887006942855
-0.04882887006942855
-0.7324330510414282
-0.24414435034714274
0.04882887006942855
-0.537117570763714
-0.537117570763714
0.04882887006942855
-0.34180209048599985
-0.6347753109025711
-0.04882887006942855
-0.14648661020828566
-0.537117570763714
-0.24414435034714274
-0.04882887006942855
-0.537117570763714
-0.537117570763714
-0.14648661020828566
-0.34180209048599985
-0.537117570763714
-0.14648661020828566
-0.24414435034714274
-0.43945983062485694
-0.24414435034714274
-0.14648661020828566
-0.43945983062485694
-0.34180209048599985
-0.14648661020828566
-0.34180209048599985
-0.43945983062485694
-0.24414435034714274
-0.24414435034714274
-0.43945983062485694
-0.24414435034714274
-0.14648661020828566
-0.34180209048599985
-42.822919050888835
-213.72396429388877
-467.1457999542229
-601.8158236057069
-534.3343251697567
-373.29671168078124
-240.87281605249103
-167.82482642862593
-122.31631952391852
-86.57358663309682
-66.3584344243534
-51.61211566338598
-33.545433737697415
-23.48668650339513
-20.55695429922942
-13.13496604867628
-6.982528419928283
-7.861448081177996
-6.103608758678568
-1.2207217517357138
-1.9043259327077133
-3.076218814373999
0.14648661020828566
0.6347753109025711
-1.6113527122911422
-0.14648661020828566
1.416037232013428
-0.537117570763714
-0.537117570763714
1.513694972152285
0.537117570763714
-0.43945983062485694
1.2207217517357138
1.2207217517357138
-0.24414435034714274
0.537117570763714
1.513694972152285
0.04882887006942855
0.04882887006942855
1.3183794918745708
0.6347753109025711
-0.04882887006942855
0.9277485313191425
1.0254062714579995
0.04882887006942855
0.43945983062485694
1.1230640115968566
0.34180209048599985
0.34180209048599985
1.0254062714579995
0.6347753109025711
0.24414435034714274
0.8300907911802854
0.8300907911802854
34.81498435950255
189.79781795986878
443.70794232089725
599.5696955825132
549.080643930724
390.09384298466466
250.7362478065156
172.51239795529108
126.80857557030595
89.69863431754024
67.53032730601969
53.56527046616312
35.79156176089113
23.779659723811704
21.045242999923705
14.795147631036851
7.373159380483711
7.666132600900283
7.080186160067139
1.9043259327077133
1.7090104524299992
3.7598229953459983
0.7324330510414282
-0.7324330510414282
1.7090104524299992
0.8300907911802854
-1.416037232013428
0.24414435034714274
1.1230640115968566
-1.1230640115968566
-0.6347753109025711
0.9277485313191425
-0.537117570763714
-1.2207217517357138
0.43945983062485694
0.04882887006942855
-1.2207217517357138
-0.04882887006942855
0.34180209048599985
-0.9277485313191425
-0.6347753109025711
0.43945983062485694
-0.43945983062485694
-0.9277485313191425
0.14648661020828566
-0.04882887006942855
-0.9277485313191425
-0.14648661020828566
0.04882887006942855
-0.6347753109025711
-0.43945983062485694
0.04882887006942855
-0.43945983062485694
-0.6347753109025711
0.04882887006942855
-0.14648661020828566
-0.6347753109025711
-0.14648661020828566
0.04882887006942855
-0.537117570763714
-0.43945983062485694
0.04882887006942855
-0.34180209048599985
-0.537117570763714
-0.04882887006942855
-0.14648661020828566
-0.537117570763714
-0.24414435034714274
-0.14648661020828566
-0.43945983062485694
-0.34180209048599985
-0.14648661020828566
-0.34180209048599985
-0.43945983062485694
-0.14648661020828566
-0.24414435034714274
-0.43945983062485694
-0.24414435034714274
-0.14648661020828566
-0.43945983062485694
-0.34180209048599985
-0.14648661020828566
-0.34180209048599985
-22.21713588158999
-127.5898374914168
-334.526588845655
-527.0099946593423
-566.2684061951629
-457.38002594033725
-311.6746776531624
-207.08323796444648
-146.2424658579385
-105.51918822003509
-77.29610131990539
-59.13176165407798
-43.018234531166556
-29.053177691309987
-21.92416266117342
-16.84596017395285
-10.595864805065995
-7.666132600900283
-6.884870679789426
-3.8574807354848555
-1.7090104524299992
-2.2949568932631417
-1.513694972152285
0.04882887006942855
-0.43945983062485694
-0.8300907911802854
0.537117570763714
0.537117570763714
-0.14648661020828566
0.6347753109025711
1.2207217517357138
0.14648661020828566
0.24414435034714274
1.0254062714579995
0.43945983062485694
0.14648661020828566
0.9277485313191425
0.8300907911802854
0.24414435034714274
0.6347753109025711
0.8300907911802854
0.24414435034714274
0.34180209048599985
0.9277485313191425
0.6347753109025711
0.34180209048599985
0.8300907911802854
0.7324330510414282
0.43945983062485694
0.6347753109025711
0.8300907911802854
0.34180209048599985
22.510109102006563
103.07774471656367
243.4119172961013
409.4300755321584
520.2716105897612
501.61898222323947
387.3594262607767
263.9200427252613
176.80933852140078
126.41794460975052
93.2143129625391
67.7256427862974
50.53788052185855
37.64705882352941
25.92813000686656
18.60379949645228
14.599832150759136
9.912260624093996
6.39658197909514
5.517662317845426
4.052796215762569
1.9043259327077133
1.7090104524299992
1.7090104524299992
0.34180209048599985
0.14648661020828566
0.7324330510414282
0.04882887006942855
-0.43945983062485694
0.14648661020828566
0.04882887006942855
-0.537117570763714
-0.14648661020828566
0.04882887006942855
-0.43945983062485694
-0.43945983062485694
0.04882887006942855
-0.24414435034714274
-0.537117570763714
-0.14648661020828566
-0.14648661020828566
-0.537117570763714
-0.24414435034714274
-0.04882887006942855
-0.43945983062485694
-0.43945983062485694
-0.04882887006942855
-0.34180209048599985
-0.43945983062485694
-0.14648661020828566
-0.14648661020828566
-0.43945983062485694
-0.24414435034714274
-0.14648661020828566
-0.34180209048599985
-0.34180209048599985
-0.14648661020828566
-0.24414435034714274
-0.43945983062485694
-0.24414435034714274
-0.24414435034714274
-0.34180209048599985
-0.24414435034714274
-0.24414435034714274
-0.34180209048599985
-0.34180209048599985
-0.24414435034714274
-0.34180209048599985
-0.34180209048599985
-0.24414435034714274
-0.24414435034714274
-0.34180209048599985
-0.24414435034714274
-0.24414435034714274
-0.34180209048599985
-0.34180209048599985
-0.24414435034714274
-0.24414435034714274
-6.005951018539712
-70.85069047074083
-263.8223849851224
-501.22835126268404
-594.2961776150149
-503.0838483253223
-345.17128252079044
-224.95460440985732
-158.74265659571222
-114.79667353322652
-81.98367284657053
-63.6240177004654
-47.998779278248264
-31.00633249408713
-22.90074006256199
-19.385061417563133
-11.670099946593423
-6.982528419928283
-7.763790341039139
-4.931715877012284
-1.0254062714579995
-2.490272373540856
-2.783245593957427
0.43945983062485694
0.14648661020828566
-1.416037232013428
0.43945983062485694
1.3183794918745708
-0.43945983062485694
0.14648661020828566
1.7090104524299992
0.24414435034714274
-0.34180209048599985
1.3183794918745708
0.9277485313191425
-0.14648661020828566
0.8300907911802854
1.2207217517357138
-0.04882887006942855
0.24414435034714274
1.3183794918745708
0.43945983062485694
0.04882887006942855
1.1230640115968566
0.9277485313191425
0.14648661020828566
0.7324330510414282
0.9277485313191425
0.04882887006942855
0.34180209048599985
0.9277485313191425
23.096055542839704
148.19562066071566
393.41420614938585
582.9678797589074
569.7840848401618
422.41855497062636
274.27176317998016
184.81727321278706
135.40245670252537
96.43701838712138
70.94834821087969
56.59266041046769
39.40489814602884
25.24452582589456
21.533531700617992
16.45532921339742
8.349736781872283
7.275501640344854
7.666132600900283
2.8809033340962844
1.3183794918745708
3.662165255207141
1.513694972152285
-0.8300907911802854
1.3183794918745708
1.3183794918745708
-1.2207217517357138
-0.14648661020828566
1.2207217517357138
-0.7324330510414282
-1.0254062714579995
0.8300907911802854
-0.04882887006942855
-1.416037232013428
0.04882887006942855
0.24414435034714274
-1.2207217517357138
-0.43945983062485694
0.43945983062485694
-0.7324330510414282
-0.8300907911802854
0.34180209048599985
-0.14648661020828566
-0.9277485313191425
0.04882887006942855
0.04882887006942855
-0.8300907911802854
-0.34180209048599985
0.14648661020828566
-21.43587396047913
-104.05432211795224
-246.6346227206836
-401.12916762035553
-501.5213244831006
-490.38834210727094
-386.08987563897153
-260.59967956054015
-102.39414053559167
152.00427252613107
417.6333257038224
520.6622415503166
438.82505531395435
293.510337987335
189.40718699931335
135.9884031433585
96.92530708781567
68.4092469672694
55.81139848935683
41.651026169222554
24.95155260547799
19.971007858396277
17.920195315480278
9.033340962844282
5.615320057984283
8.05676356145571
4.150453955901427
0.14648661020828566
3.076218814373999
2.783245593957427
-1.1230640115968566
0.24414435034714274
2.197299153124285
-0.8300907911802854
-1.1230640115968566
-32.08056763561456
-186.18448157473105
-441.46181429770354
-598.2024872205692
-549.6665903715572
-392.632944228275
-251.6151674677653
-171.9264515144579
-127.5898374914168
-90.38223849851225
-66.55374990463112
-53.467612726024264
-36.475165941863125
-23.096055542839704
-20.361638818951704
-15.283436331731137
-7.275501640344854
-6.787212939650568
-7.177843900205997
-2.0019836728465705
-0.8300907911802854
-3.466849774929427
-1.0254062714579995
1.2207217517357138
-1.2207217517357138
-1.1230640115968566
1.6113527122911422
0.34180209048599985
-0.9277485313191425
1.3183794918745708
1.3183794918745708
-0.6347753109025711
0.43945983062485694
1.7090104524299992
-0.04882887006942855
-0.04882887006942855
1.513694972152285
0.7324330510414282
-0.14648661020828566
1.1230640115968566
1.0254062714579995
-0.14648661020828566
15.869382772564279
120.46082246128023
350.7377737087053
560.6042572671092
582.4795910582131
449.1767757686732
295.36583504997327
197.41512169069964
143.3127336537728
101.51522087434195
74.26871137560083
59.71770809491112
41.943999389639124
26.61173418783856
22.60776684214542
17.627222095063708
8.838025482566568
7.470817120622568
8.252079041733426
3.1738765545128556
1.2207217517357138
3.8574807354848555
1.8066681925688564
-0.9277485313191425
1.2207217517357138
1.6113527122911422
-1.2207217517357138
-0.24414435034714274
1.416037232013428
-0.7324330510414282
-1.2207217517357138
0.8300907911802854
0.04882887006942855
-1.416037232013428
0.14648661020828566
0.43945983062485694
-1.2207217517357138
-0.537117570763714
0.537117570763714
-0.6347753109025711
-0.9277485313191425
0.34180209048599985
-0.14648661020828566
-1.0254062714579995
-0.04882887006942855
0.14648661020828566
-0.8300907911802854
-0.43945983062485694
0.24414435034714274
-0.537117570763714
-0.7324330510414282
0.04882887006942855
-0.14648661020828566
-0.7324330510414282
-0.14648661020828566
0.04882887006942855
-0.6347753109025711
-0.34180209048599985
0.04882887006942855
-0.43945983062485694
-0.537117570763714
-0.04882887006942855
-0.24414435034714274
-0.537117570763714
-0.14648661020828566
-0.14648661020828566
-0.537117570763714
-0.34180209048599985
-0.04882887006942855
-0.34180209048599985
-0.43945983062485694
-0.14648661020828566
-0.24414435034714274
-0.43945983062485694
-44.580758373388264
-219.58342870222017
-473.10292210269324
-602.3041123064012
-530.6233310444801
-369.5857175555047
-238.72434576943618
-166.65293354695964
-121.33974212252994
-85.88998245212481
-66.06546120393683
-51.22148470283055
-33.252460517280845
-23.389028763256274
-20.361638818951704
-12.939650568398566
-6.982528419928283
-7.763790341039139
-5.810635538261997
-1.1230640115968566
-2.0996414129854277
-3.1738765545128556
0.04882887006942855
0.43945983062485694
-1.7090104524299992
0.04882887006942855
1.7090104524299992
-0.34180209048599985
-0.34180209048599985
1.6113527122911422
0.43945983062485694
-0.537117570763714
1.1230640115968566
1.2207217517357138
-0.34180209048599985
0.537117570763714
1.416037232013428
0.04882887006942855
0.04882887006942855
1.2207217517357138
0.6347753109025711
0.04882887006942855
1.1230640115968566
1.0254062714579995
0.04882887006942855
0.537117570763714
1.0254062714579995
0.24414435034714274
0.24414435034714274
38.03768978408484
197.12214847028307
450.05569542992293
600.6439307240406
545.1743343251698
384.8203250171664
248.0018310826276
171.7311360341802
125.24605172808423
88.52674143587396
67.7256427862974
53.17463950560769
34.81498435950255
23.974975204089418
21.24055848020142
14.013885709925994
7.373159380483711
8.154421301594567
6.6895551995117115
1.6113527122911422
2.197299153124285
3.662165255207141
0.34180209048599985
-0.43945983062485694
1.9043259327077133
0.43945983062485694
-1.416037232013428
0.6347753109025711
0.8300907911802854
-1.3183794918745708
-0.34180209048599985
0.9277485313191425
-0.7324330510414282
-1.0254062714579995
0.6347753109025711
-0.04882887006942855
-1.2207217517357138
0.04882887006942855
0.24414435034714274
-1.0254062714579995
-0.43945983062485694
0.34180209048599985
-0.6347753109025711
-0.7324330510414282
0.24414435034714274
-0.24414435034714274
-0.9277485313191425
-0.04882887006942855
-6.494239719233997
-80.12817578393225
-285.01411459525445
-513.6308842603189
-562.6550698100252
-411.090257114519
-169.87563897154192
104.73792629892424
340.3860532539864
427.98504615854125
361.08949416342415
236.57587548638134
149.6604867627985
111.37865262836652
79.3469138628214
52.78400854505226
45.45967803463798
35.596246280613414
18.506141756313422
15.185778591592278
16.260013733119706
6.884870679789426
2.9785610742351416
7.666132600900283
3.9551384756237127
-1.3183794918745708
2.68558785381857
3.466849774929427
-1.9043259327077133
-0.34180209048599985
2.9785610742351416
-0.9277485313191425
-54.54184786755169
-242.92362859540702
-497.5173571374075
-606.7963683527886
-514.6074616617075
-351.22606240939956
-230.42343785763333
-162.25833524071106
-115.18730449378195
-83.4485389486534
-66.26077668421455
-48.291752498664835
-30.908674753948272
-24.4632639047837
-19.678034637979707
-10.79118028534371
-7.666132600900283
-8.44739452201114
-4.248111696040284
-1.3183794918745708
-3.36919203479057
-2.197299153124285
0.9277485313191425
-0.537117570763714
-1.513694972152285
1.0254062714579995
0.8300907911802854
-1.0254062714579995
0.43945983062485694
1.513694972152285
-0.24414435034714274
0.04882887006942855
1.6113527122911422
0.537117570763714
-0.24414435034714274
1.2207217517357138
1.0254062714579995
-0.14648661020828566
0.6347753109025711
1.2207217517357138
0.04882887006942855
0.24414435034714274
1.3183794918745708
0.537117570763714
0.04882887006942855
1.0254062714579995
21.045242999923705
118.70298313878081
318.90135042343786
516.267643244068
568.2215609979401
467.4387731746395
321.538109407187
212.5520714122225
149.17219806210423
108.44892042420081
79.24925612268254
60.01068131532769
44.48310063324941
30.420386053253985
22.314793621728846
17.43190661478599
11.47478446631571
7.763790341039139
6.884870679789426
4.638742656595713
2.197299153124285
2.392614633401999
2.0019836728465705
0.24414435034714274
0.34180209048599985
1.0254062714579995
-0.04882887006942855
-0.43945983062485694
0.34180209048599985
0.04882887006942855
-0.7324330510414282
-0.04882887006942855
0.04882887006942855
-0.6347753109025711
-0.34180209048599985
0.04882887006942855
-0.43945983062485694
-0.537117570763714
0.04882887006942855
-0.14648661020828566
-0.6347753109025711
-0.14648661020828566
-0.04882887006942855
-0.537117570763714
-0.34180209048599985
-0.04882887006942855
-0.34180209048599985
-0.537117570763714
-0.04882887006942855
-0.24414435034714274
-0.537117570763714
-0.24414435034714274
-0.14648661020828566
-0.43945983062485694
-0.34180209048599985
-0.14648661020828566
-0.34180209048599985
-0.43945983062485694
-0.14648661020828566
-0.24414435034714274
-0.43945983062485694
-0.24414435034714274
-0.24414435034714274
-0.43945983062485694
-0.34180209048599985
-0.14648661020828566
-0.34180209048599985
-0.34180209048599985
-0.24414435034714274
-0.24414435034714274
-0.34180209048599985
-0.24414435034714274
-0.24414435034714274
-0.34180209048599985
-45.362020294499125
-205.61837186236363
-425.54360265506983
-553.3775844968337
-524.8615243762874
-398.101777676051
-270.65842679484246
-185.69619287403677
-130.42191195544365
-93.8979171435111
-71.8272678721294
-53.27229724574655
-36.475165941863125
-26.90470740825513
-20.947585259784848
-13.427939269092851
-9.033340962844282
-8.154421301594567
-5.224689097428855
-2.392614633401999
-2.8809033340962844
-2.2949568932631417
-0.14648661020828566
-0.24414435034714274
-0.8300907911802854
0.43945983062485694
0.7324330510414282
-0.24414435034714274
0.24414435034714274
1.0254062714579995
0.04882887006942855
0.04882887006942855
1.2207217517357138
0.8300907911802854
0.04882887006942855
0.7324330510414282
0.8300907911802854
0.14648661020828566
0.537117570763714
1.0254062714579995
0.43945983062485694
0.43945983062485694
0.9277485313191425
0.537117570763714
0.14648661020828566
0.7324330510414282
0.7324330510414282
0.34180209048599985
0.537117570763714
0.9277485313191425
0.43945983062485694
0.34180209048599985
0.6347753109025711
0.537117570763714
0.34180209048599985
40.38147554741741
189.21187151903564
407.86755168993665
550.7408255130846
535.2132448310064
410.1136797131304
278.1780727855344
189.79781795986878
133.83993286030366
96.14404516670481
72.90150301365682
54.932478828107115
37.84237430380713
27.392996108949415
21.533531700617992
14.50217441062028
9.42397192339971
8.44739452201114
6.005951018539712
2.783245593957427
2.783245593957427
2.68558785381857
0.6347753109025711
0.43945983062485694
1.3183794918745708
0.14648661020828566
-0.537117570763714
0.43945983062485694
0.14648661020828566
-0.7324330510414282
-0.04882887006942855
0.24414435034714274
-0.6347753109025711
-0.537117570763714
0.14648661020828566
-0.34180209048599985
-0.7324330510414282
0.04882887006942855
-0.04882887006942855
-0.6347753109025711
-0.24414435034714274
0.04882887006942855
-0.537117570763714
-0.43945983062485694
0.04882887006942855
-0.34180209048599985
-0.537117570763714
-6.494239719233997
-61.475547417410546
-189.79781795986878
-302.49485008010987
-344.9759670405127
-377.00770580605786
-379.25383382925156
-299.7604333562219
-199.7589074540322
-92.82368200198367
102.19882505531396
343.90173189898525
469.39192797741663
414.8989089799344
276.12726024261843
176.41870756084535
130.5195696955825
90.47989623865111
60.30365453574426
53.66292820630198
40.96742198825055
20.654612039368278
18.40848401617456
19.287403677424276
7.080186160067139
3.662165255207141
9.619287403677424
4.052796215762569
-1.8066681925688564
3.8574807354848555
3.8574807354848555
-2.68558785381857
0.04882887006942855
3.662165255207141
-1.6113527122911422
-2.0996414129854277
2.68558785381857
0.04882887006942855
-13.81857022964828
-96.53467612726024
-312.35828183413446
-538.9242389562829
-587.9484245059891
-469.6849011978332
-317.33882658121615
-209.81765468833447
-147.70733196002135
-106.98405432211796
-78.95628290226597
-60.2059967956054
-43.50652323186084
-29.63912413214313
-22.412451361867703
-16.943617914091707
-10.693522545204852
-7.763790341039139
-6.787212939650568
-3.9551384756237127
-2.0019836728465705
-2.392614633401999
-1.416037232013428
0.04882887006942855
-0.43945983062485694
-0.6347753109025711
0.537117570763714
0.43945983062485694
-0.14648661020828566
0.537117570763714
0.9277485313191425
0.04882887006942855
0.34180209048599985
1.0254062714579995
0.43945983062485694
0.14648661020828566
0.9277485313191425
0.8300907911802854
0.14648661020828566
0.537117570763714
0.8300907911802854
0.34180209048599985
0.537117570763714
0.9277485313191425
0.6347753109025711
0.34180209048599985
0.7324330510414282
15.967040512703136
109.8161287861448
306.0105287251087
477.10688944838637
510.60349431601435
441.9501029983978
342.72983901731897
252.7870603494316
180.9109636072328
124.26947432669566
89.7962920576791
69.48348210879682
48.78004119935912
33.3501182574197
27.392996108949415
19.87335011825742
11.47478446631571
9.81460288395514
8.74036774242771
3.7598229953459983
2.5879301136797133
4.052796215762569
1.6113527122911422
-0.14648661020828566
1.7090104524299992
1.1230640115968566
-1.0254062714579995
0.14648661020828566
1.0254062714579995
-0.8300907911802854
-0.7324330510414282
0.7324330510414282
-0.24414435034714274
-1.1230640115968566
0.24414435034714274
0.14648661020828566
-1.0254062714579995
-0.24414435034714274
0.34180209048599985
-0.7324330510414282
-0.6347753109025711
0.24414435034714274
-0.34180209048599985
-0.8300907911802854
0.04882887006942855
-0.04882887006942855
-0.8300907911802854
-0.24414435034714274
0.04882887006942855
-0.537117570763714
-0.537117570763714
0.04882887006942855
-0.34180209048599985
-0.6347753109025711
-0.04882887006942855
-0.14648661020828566
-0.537117570763714
-0.24414435034714274
-0.04882887006942855
-0.537117570763714
-0.537117570763714
-0.04882887006942855
-0.34180209048599985
-0.537117570763714
-0.14648661020828566
-0.24414435034714274
-0.43945983062485694
-0.24414435034714274
-0.14648661020828566
-0.43945983062485694
-0.34180209048599985
-0.14648661020828566
-9.326314183260854
-89.01503013656824
-297.7096208133059
-525.5451285572594
-590.3898680094605
-481.9897764553292
-325.3467612726024
-213.82162203402763
-152.49256122682536
-109.52315556572823
-78.6633096818494
-61.96383611810483
-45.654993514915695
-29.053177691309987
-22.510109102006563
-18.60379949645228
-10.498207064927138
-7.080186160067139
-7.959105821316854
-4.150453955901427
-0.9277485313191425
-2.783245593957427
-2.2949568932631417
0.6347753109025711
-0.34180209048599985
-1.416037232013428
0.9277485313191425
1.2207217517357138
-0.7324330510414282
0.24414435034714274
1.513694972152285
-0.14648661020828566
-0.14648661020828566
1.416037232013428
0.537117570763714
-0.14648661020828566
1.1230640115968566
1.1230640115968566
-0.04882887006942855
0.537117570763714
1.2207217517357138
0.14648661020828566
0.24414435034714274
1.2207217517357138
0.6347753109025711
0.04882887006942855
0.9277485313191425
0.9277485313191425
0.04882887006942855
0.43945983062485694
1.0254062714579995
0.34180209048599985
19.971007858396277
118.70298313878081
312.5535973144122
496.5407797360189
549.080643930724
465.5832761120012
332.6710917830167
226.02883955138475
157.8637369344625
111.96459906919966
82.17898832684826
63.03807125963226
45.362020294499125
31.201647974364842
24.17029068436713
17.920195315480278
11.181811245899137
8.642710002288853
7.470817120622568
4.052796215762569
2.490272373540856
3.076218814373999
1.7090104524299992
0.14648661020828566
0.9277485313191425
0.9277485313191425
-0.43945983062485694
-0.04882887006942855
0.537117570763714
-0.34180209048599985
-0.537117570763714
0.24414435034714274
-0.14648661020828566
-0.8300907911802854
-0.04882887006942855
0.04882887006942855
-0.7324330510414282
-0.34180209048599985
0.04882887006942855
-0.43945983062485694
-0.537117570763714
0.04882887006942855
-0.24414435034714274
-0.6347753109025711
-0.14648661020828566
-0.04882887006942855
-0.537117570763714
-0.34180209048599985
-0.04882887006942855
-0.34180209048599985
-0.43945983062485694
-0.04882887006942855
-0.24414435034714274
-0.43945983062485694
-0.24414435034714274
-0.14648661020828566
-0.43945983062485694
-0.34180209048599985
-0.14648661020828566
-0.34180209048599985
-0.43945983062485694
-0.14648661020828566
-0.24414435034714274
-0.43945983062485694
-0.24414435034714274
-0.14648661020828566
-0.34180209048599985
-0.34180209048599985
-0.14648661020828566
-0.34180209048599985
-0.34180209048599985
-0.24414435034714274
-0.24414435034714274
-0.34180209048599985
-0.24414435034714274
-0.24414435034714274
-0.34180209048599985
-0.24414435034714274
-14.404516670481422
-101.12458991378652
-296.7330434119173
-498.7869077592126
-562.8503852903029
-477.0092317082475
-336.9680323491264
-226.22415503166246
-158.5473411154345
-112.94117647058823
-82.0813305867094
-63.13572899977112
-46.14328221560998
-31.103990234225986
-23.779659723811704
-18.310826276035705
-11.181811245899137
-7.861448081177996
-7.373159380483711
-4.150453955901427
-1.9043259327077133
-2.783245593957427
-1.7090104524299992
0.34180209048599985
-0.34180209048599985
-0.9277485313191425
0.6347753109025711
0.7324330510414282
-0.34180209048599985
0.537117570763714
1.1230640115968566
0.04882887006942855
0.04882887006942855
1.1230640115968566
0.537117570763714
0.14648661020828566
1.0254062714579995
0.8300907911802854
0.04882887006942855
0.6347753109025711
0.9277485313191425
0.24414435034714274
0.34180209048599985
1.0254062714579995
0.6347753109025711
0.24414435034714274
0.6347753109025711
0.537117570763714
0.14648661020828566
0.6347753109025711
0.8300907911802854
0.34180209048599985
0.43945983062485694
14.892805371175708
64.20996414129854
159.0356298161288
306.2058442053864
441.16884107728697
464.7043564507515
402.69169146257724
327.8858625162127
255.03318837262532
189.40718699931335
132.66803997863738
90.77286945906768
68.79987792782482
51.80743114366369
34.32669565880827
25.830472266727703
21.43587396047913
13.037308308537423
8.252079041733426
8.74036774242771
5.615320057984283
1.8066681925688564
3.076218814373999
2.9785610742351416
-0.04882887006942855
0.34180209048599985
1.9043259327077133
-0.14648661020828566
-0.9277485313191425
1.0254062714579995
0.14648661020828566
-1.2207217517357138
0.14648661020828566
0.537117570763714
-1.0254062714579995
-0.537117570763714
0.537117570763714
-0.537117570763714
-0.9277485313191425
0.24414435034714274
-0.04882887006942855
-0.9277485313191425
-0.04882887006942855
0.14648661020828566
-0.8300907911802854
-0.43945983062485694
0.14648661020828566
-0.43945983062485694
-0.6347753109025711
0.04882887006942855
-0.14648661020828566
-0.7324330510414282
-0.14648661020828566
0.04882887006942855
-0.6347753109025711
-0.43945983062485694
0.04882887006942855
-0.43945983062485694
-0.537117570763714
-0.04882887006942855
-0.24414435034714274
-0.537117570763714
-0.24414435034714274
-0.14648661020828566
-0.43945983062485694
-0.34180209048599985
-0.04882887006942855
-0.34180209048599985
-0.43945983062485694
-0.14648661020828566
-0.24414435034714274
-0.43945983062485694
-0.24414435034714274
-0.14648661020828566
-51.123826962691695
-239.31029221026932
-492.2438391699092
-604.1596093690395
-519.0997177080949
-356.4995803768978
-231.00938429846647
-163.13725490196077
-118.11703669794767
-83.54619668879225
-65.28419928282597
-49.85427634088655
-31.592278934920273
-23.291371023117417
-20.45929655909056
-12.060730907148852
-6.884870679789426
-8.252079041733426
-5.420004577706569
-0.9277485313191425
-2.490272373540856
-2.9785610742351416
0.537117570763714
0.24414435034714274
-1.8066681925688564
0.43945983062485694
1.6113527122911422
-0.7324330510414282
-0.04882887006942855
1.9043259327077133
0.14648661020828566
-0.6347753109025711
1.3183794918745708
1.0254062714579995
-0.43945983062485694
0.7324330510414282
1.416037232013428
0.04882887006942855
0.24414435034714274
1.416037232013428
0.24414435034714274
-0.04882887006942855
1.2207217517357138
0.9277485313191425
0.04882887006942855
0.6347753109025711
0.9277485313191425
0.04882887006942855
12.45136186770428
99.85503929198138
300.4440375371939
501.91195544365604
559.8229953459983
473.10292210269324
336.2844281681544
228.76325627527277
161.2817578393225
113.33180743114366
82.66727702754254
64.69825284199283
46.240939955748836
30.811017013809415
24.756237125200276
18.799114976729992
10.79118028534371
8.545052262149996
8.252079041733426
3.9551384756237127
2.0019836728465705
3.662165255207141
1.9043259327077133
-0.34180209048599985
1.1230640115968566
1.3183794918745708
-0.8300907911802854
-0.14648661020828566
1.0254062714579995
-0.43945983062485694
-0.9277485313191425
0.537117570763714
0.04882887006942855
-1.1230640115968566
0.04882887006942855
0.24414435034714274
-0.9277485313191425
-0.537117570763714
0.24414435034714274
-0.6347753109025711
-0.7324330510414282
0.14648661020828566
-0.14648661020828566
-0.8300907911802854
-0.04882887006942855
0.04882887006942855
-0.7324330510414282
-0.34180209048599985
0.04882887006942855
-0.43945983062485694
-0.6347753109025711
0.04882887006942855
-0.24414435034714274
-0.6347753109025711
-0.14648661020828566
-0.04882887006942855
-0.537117570763714
-0.34180209048599985
-0.04882887006942855
-0.34180209048599985
-0.43945983062485694
-0.04882887006942855
-0.24414435034714274
-0.537117570763714
-0.14648661020828566
-0.14648661020828566
-0.43945983062485694
-0.34180209048599985
-0.14648661020828566
-0.34180209048599985
-0.43945983062485694
-0.14648661020828566
-0.24414435034714274
-22.412451361867703
-134.13290608072023
-353.47219043259327
-545.2719920653086
-567.5379568169681
-445.8564126039521
-299.36980239566645
-199.9542229343099
-142.6291294728008
-102.29648279545282
-75.04997329671168
-58.25284199282826
-41.5533684290837
-27.783627069504846
-22.021820401312276
-16.748302433813993
-9.619287403677424
-7.373159380483711
-6.884870679789426
-3.1738765545128556
-1.416037232013428
-2.783245593957427
-1.513694972152285
0.43945983062485694
-0.6347753109025711
-0.8300907911802854
0.8300907911802854
0.43945983062485694
-0.43945983062485694
0.8300907911802854
1.1230640115968566
-0.04882887006942855
0.24414435034714274
1.2207217517357138
0.34180209048599985
0.14648661020828566
1.2207217517357138
0.7324330510414282
0.04882887006942855
0.7324330510414282
1.0254062714579995
0.14648661020828566
0.43945983062485694
1.0254062714579995
0.537117570763714
0.24414435034714274
0.7324330510414282
0.537117570763714
0.14648661020828566
0.7324330510414282
0.9277485313191425
12.060730907148852
54.7371633478294
133.7422751201648
268.60761425192646
445.6610971236744
543.1235217822538
485.8960860608835
348.29633020523386
227.00541695277332
156.00823987182423
115.28496223392081
82.37430380712597
60.59662775616083
47.80346379797055
33.15480277714199
21.63118944075685
18.310826276035705
13.720912489509422
7.177843900205997
6.298924238956283
6.298924238956283
2.2949568932631417
1.2207217517357138
2.9785610742351416
1.1230640115968566
-0.6347753109025711
1.0254062714579995
0.9277485313191425
-1.0254062714579995
-0.04882887006942855
0.8300907911802854
-0.7324330510414282
-0.9277485313191425
0.537117570763714
-0.24414435034714274
-1.1230640115968566
0.04882887006942855
0.14648661020828566
-0.9277485313191425
-0.34180209048599985
0.24414435034714274
-0.6347753109025711
-0.6347753109025711
0.14648661020828566
-0.24414435034714274
-0.8300907911802854
-0.04882887006942855
0.04882887006942855
-0.7324330510414282
-0.34180209048599985
0.04882887006942855
-0.537117570763714
-0.537117570763714
0.04882887006942855
-0.24414435034714274
-0.6347753109025711
-0.14648661020828566
-0.04882887006942855
-0.537117570763714
-0.34180209048599985
-0.04882887006942855
-0.43945983062485694
-0.43945983062485694
-0.04882887006942855
-0.24414435034714274
-0.43945983062485694
-0.14648661020828566
-0.14648661020828566
-0.43945983062485694
-0.34180209048599985
-0.14648661020828566
-0.34180209048599985
-0.43945983062485694
-19.385061417563133
-125.5390249485008
-344.87830930037387
-544.1000991836423
-572.7138170443275
-451.9111924925612
-302.8854810406653
-201.61440451667048
-144.38696879530022
-103.4683756771191
-75.34294651712825
-58.8387884336614
-42.43228809033341
-27.783627069504846
-22.021820401312276
-17.041275654230564
-9.521629663538567
-7.080186160067139
-7.275501640344854
-3.5645075150682843
-1.3183794918745708
-2.8809033340962844
-1.7090104524299992
0.6347753109025711
-0.537117570763714
-1.0254062714579995
1.0254062714579995
0.6347753109025711
-0.6347753109025711
0.6347753109025711
1.2207217517357138
-0.14648661020828566
0.14648661020828566
1.3183794918745708
0.34180209048599985
-0.04882887006942855
1.1230640115968566
0.9277485313191425
0.04882887006942855
0.7324330510414282
1.0254062714579995
0.14648661020828566
0.43945983062485694
12.646677347981994
89.21034561684596
265.1895933470665
452.2041657129778
532.6741435873961
486.0914015411612
369.390402075227
256.0097657740139
175.73510337987335
122.70695048447395
90.38223849851225
68.60456244754711
49.17067215991455
34.91264209964141
26.807049668116274
19.092088197146563
12.549019607843137
10.009918364232853
7.763790341039139
4.345769436179141
3.2715342946517127
3.2715342946517127
1.513694972152285
0.537117570763714
1.2207217517357138
0.6347753109025711
-0.43945983062485694
0.14648661020828566
0.34180209048599985
-0.537117570763714
-0.34180209048599985
0.24414435034714274
-0.34180209048599985
-0.6347753109025711
0.04882887006942855
-0.14648661020828566
-0.6347753109025711
-0.14648661020828566
0.04882887006942855
-0.537117570763714
-0.43945983062485694
0.04882887006942855
-0.34180209048599985
-0.537117570763714
-0.04882887006942855
-0.14648661020828566
-0.537117570763714
-0.24414435034714274
-0.14648661020828566
-0.43945983062485694
-0.34180209048599985
-31.592278934920273
-177.0046540016785
-424.56702525368127
-589.413290608072
-553.865873197528
-401.6174563210498
-260.2090485999847
-177.78591592278934
-129.8359655146105
-77.10078583962768
20.16632333867399
173.29365987640193
332.57343404287786
444.6845197222858
469.0012970168612
400.7385366598001
293.2173647669184
193.89944304570076
130.12893873502708
99.65972381170367
73.58510719462882
49.365987640192266
39.307240405889985
31.103990234225986
17.920195315480278
13.13496604867628
13.427939269092851
7.177843900205997
2.9785610742351416
5.615320057984283
3.8574807354848555
-0.34180209048599985
-28.857862211032273
-162.25833524071106
-395.2697032120241
-562.8503852903029
-550.8384832532234
-419.48882276646066
-280.4242008087282
-187.74700541695276
-134.52353704127566
-97.99954222934309
-71.8272678721294
-54.639505607690545
-39.600213626306555
-27.002365148393988
-20.361638818951704
-15.47875181200885
-9.71694514381628
-6.884870679789426
-6.005951018539712
-3.36919203479057
-1.513694972152285
-2.0019836728465705
-1.416037232013428
0.04882887006942855
-0.24414435034714274
-0.43945983062485694
0.6347753109025711
0.537117570763714
-0.24414435034714274
0.43945983062485694
0.9277485313191425
0.24414435034714274
0.24414435034714274
0.9277485313191425
0.43945983062485694
0.14648661020828566
0.7324330510414282
0.7324330510414282
0.14648661020828566
0.537117570763714
0.8300907911802854
0.34180209048599985
0.43945983062485694
0.8300907911802854
0.537117570763714
0.24414435034714274
0.7324330510414282
36.86579690241855
164.6997787441825
318.51071946288243
379.05851834897385
380.0350957503624
385.6992446784161
364.3121995880064
298.29556725413903
215.28648813611048
150.1487754634928
113.52712291142137
82.37430380712597
53.95590142671855
42.72526131074998
34.717326619363696
20.16632333867399
14.209201190203707
14.990463111314565
8.252079041733426
3.076218814373999
6.103608758678568
4.541084916456855
-0.537117570763714
1.513694972152285
3.1738765545128556
-0.8300907911802854
-0.8300907911802854
2.197299153124285
-0.04882887006942855
-1.8066681925688564
0.9277485313191425
0.7324330510414282
-1.8066681925688564
-0.14648661020828566
1.1230640115968566
-1.1230640115968566
-1.0254062714579995
0.9277485313191425
-0.34180209048599985
-1.416037232013428
0.34180209048599985
0.24414435034714274
-1.3183794918745708
-0.24414435034714274
0.537117570763714
-0.8300907911802854
-0.7324330510414282
0.43945983062485694
-0.34180209048599985
-1.0254062714579995
0.04882887006942855
0.04882887006942855
-0.9277485313191425
-0.24414435034714274
0.14648661020828566
-0.6347753109025711
-0.537117570763714
0.14648661020828566
-0.34180209048599985
-0.7324330510414282
0.04882887006942855
-0.04882887006942855
-0.7324330510414282
-0.24414435034714274
0.04882887006942855
-0.537117570763714
-0.43945983062485694
0.04882887006942855
-0.34180209048599985
-0.537117570763714
-0.14648661020828566
-0.14648661020828566
-0.537117570763714
-0.24414435034714274
-0.04882887006942855
-0.43945983062485694
-0.34180209048599985
-0.14648661020828566
-0.34180209048599985
-35.20561532005799
-171.0475318532082
-385.79690241855496
-542.6352330815595
-543.3188372625315
-423.78576333257035
-288.3344777599756
-194.9736781872282
-137.3556115053025
-99.07377737087053
-74.17105363546197
-55.81139848935683
-39.20958266575113
-27.783627069504846
-21.43587396047913
-14.990463111314565
-9.81460288395514
-8.05676356145571
-5.908293278400855
-2.9785610742351416
-2.392614633401999
-2.392614633401999
-0.6347753109025711
-0.04882887006942855
-0.7324330510414282
0.04882887006942855
0.7324330510414282
0.04882887006942855
0.04882887006942855
0.7324330510414282
0.43945983062485694
0.04882887006942855
0.7324330510414282
0.9277485313191425
0.24414435034714274
0.537117570763714
0.8300907911802854
0.34180209048599985
0.24414435034714274
0.8300907911802854
0.6347753109025711
0.43945983062485694
0.8300907911802854
0.8300907911802854
0.34180209048599985
0.43945983062485694
6.6895551995117115
62.45212481879911
235.79461356527045
473.0052643625544
591.3664454108491
520.2716105897612
364.4098573281453
236.47821774624248
164.30914778362708
119.87487602044709
85.6946669718471
65.08888380254825
50.24490730144198
33.44777599755856
23.389028763256274
19.971007858396277
13.232623788815136
7.470817120622568
7.666132600900283
6.005951018539712
1.9043259327077133
2.197299153124285
3.076218814373999
0.43945983062485694
-0.14648661020828566
1.6113527122911422
0.34180209048599985
-1.0254062714579995
0.43945983062485694
0.537117570763714
-1.0254062714579995
-0.24414435034714274
0.6347753109025711
-0.6347753109025711
-0.8300907911802854
0.43945983062485694
-0.14648661020828566
-1.0254062714579995
0.04882887006942855
0.04882887006942855
-0.8300907911802854
-0.34180209048599985
0.24414435034714274
-0.537117570763714
-0.6347753109025711
0.04882887006942855
-0.24414435034714274
-0.7324330510414282
-0.14648661020828566
-0.04882887006942855
-0.7324330510414282
-15.283436331731137
-75.04997329671168
-184.7196154726482
-299.2721446555276
-323.3936064698253
-172.51239795529108
73.68276493476768
228.6655985351339
232.37659266041047
164.0161745632105
104.1519798580911
72.60852979324025
51.02616922255284
34.81498435950255
28.760204470893417
22.60776684214542
12.939650568398566
9.81460288395514
9.71694514381628
4.834058136873426
2.2949568932631417
4.150453955901427
2.490272373540856
-0.34180209048599985
1.2207217517357138
1.7090104524299992
-36.768139162279695
-166.0669871061265
-359.9176012817578
-514.900434882124
-539.1195544365606
-437.3601892118715
-304.9362935835813
-206.20431830319677
-141.84786755168994
-102.58945601586939
-77.97970550087739
-57.178606851300835
-40.08850232700084
-29.9320973525597
-22.21713588158999
-14.599832150759136
-10.693522545204852
-8.74036774242771
-5.322346837567712
-3.2715342946517127
-3.2715342946517127
-2.0996414129854277
-0.43945983062485694
-0.8300907911802854
-0.7324330510414282
0.43945983062485694
0.34180209048599985
-0.24414435034714274
0.537117570763714
0.8300907911802854
0.04882887006942855
0.34180209048599985
0.9277485313191425
0.43945983062485694
0.14648661020828566
0.8300907911802854
0.6347753109025711
0.24414435034714274
0.7324330510414282
0.9277485313191425
0.43945983062485694
0.537117570763714
0.8300907911802854
0.43945983062485694
0.34180209048599985
0.8300907911802854
0.7324330510414282
0.34180209048599985
0.6347753109025711
19.287403677424276
81.20241092545967
184.7196154726482
325.5420767528801
448.1025406271458
462.0675974670024
393.0235751888304
313.72549019607845
240.87281605249103
179.05546654459448
126.51560234988938
86.47592889295797
65.28419928282597
49.56130312046998
32.6665140764477
24.17029068436713
20.45929655909056
12.646677347981994
7.666132600900283
8.252079041733426
5.615320057984283
1.6113527122911422
2.783245593957427
3.076218814373999
0.04882887006942855
0.04882887006942855
1.8066681925688564
0.04882887006942855
-1.0254062714579995
0.8300907911802854
0.34180209048599985
-1.2207217517357138
0.04882887006942855
0.537117570763714
-0.9277485313191425
-0.6347753109025711
0.537117570763714
-0.43945983062485694
-0.9277485313191425
0.24414435034714274
0.04882887006942855
-1.0254062714579995
-0.14648661020828566
0.14648661020828566
-0.7324330510414282
-0.537117570763714
0.14648661020828566
-0.43945983062485694
-0.8300907911802854
0.04882887006942855
-0.14648661020828566
-0.7324330510414282
-0.24414435034714274
0.04882887006942855
-0.537117570763714
-0.43945983062485694
0.04882887006942855
-0.34180209048599985
-0.537117570763714
-0.04882887006942855
-0.14648661020828566
-0.537117570763714
-0.24414435034714274
-0.04882887006942855
-0.43945983062485694
-0.34180209048599985
-0.04882887006942855
-0.34180209048599985
-0.43945983062485694
-0.14648661020828566
-0.24414435034714274
-0.43945983062485694
-0.24414435034714274
-0.14648661020828566
-0.34180209048599985
-0.34180209048599985
-9.130998702983138
-79.05394064240483
-268.21698329137104
-496.3454642557412
-587.5577935454337
-499.9588006408789
-344.9759670405127
-225.14991989013504
-158.25436789501794
-114.69901579308767
-81.98367284657053
-63.233386739909974
-47.90112153810941
-31.396963454642556
-22.90074006256199
-19.092088197146563
-11.767757686732281
-6.982528419928283
-7.470817120622568
-5.0293736171511405
-1.3183794918745708
-2.392614633401999
-2.68558785381857
0.14648661020828566
0.04882887006942855
-1.416037232013428
0.34180209048599985
1.3183794918745708
-0.34180209048599985
0.04882887006942855
1.416037232013428
0.24414435034714274
-0.24414435034714274
1.2207217517357138
0.9277485313191425
-0.14648661020828566
0.7324330510414282
1.1230640115968566
0.04882887006942855
0.34180209048599985
1.3183794918745708
0.537117570763714
0.24414435034714274
1.2207217517357138
0.9277485313191425
0.04882887006942855
0.537117570763714
0.9277485313191425
0.24414435034714274
0.43945983062485694
1.0254062714579995
0.6347753109025711
0.34180209048599985
0.7324330510414282
26.416418707560844
142.92210269321737
356.4995803768978
537.8500038147555
559.7253376058594
443.70794232089725
301.1276417181659
201.3214312962539
142.53147173266194
102.98008697642481
76.02655069810025
58.057526512550545
41.74868390936141
28.66254673075456
21.92416266117342
16.357671473258563
10.302891584649425
7.763790341039139
6.787212939650568
3.7598229953459983
2.197299153124285
2.68558785381857
1.6113527122911422
0.14648661020828566
0.7324330510414282
0.8300907911802854
-0.34180209048599985
-0.14648661020828566
0.43945983062485694
-0.34180209048599985
-0.537117570763714
0.14648661020828566
-0.04882887006942855
-0.7324330510414282
-0.04882887006942855
0.04882887006942855
-0.6347753109025711
-0.34180209048599985
0.04882887006942855
-0.43945983062485694
-0.537117570763714
-0.04882887006942855
-0.14648661020828566
-0.537117570763714
-0.24414435034714274
-11.963073167009995
-70.94834821087969
-209.23170824750133
-397.71114671549554
-507.18547341115436
-438.33676661326007
-279.3499656672007
-130.03128099488822
65.57717250324254
301.61593041886016
428.7663080796521
385.11329823758297
261.28328374151215
165.48104066529336
118.89829861905852
84.81574731059739
57.56923781185626
47.90112153810941
37.549401083390556
21.045242999923705
16.357671473258563
16.55298695353628
8.05676356145571
3.7598229953459983
7.373159380483711
4.345769436179141
-0.6347753109025711
2.490272373540856
3.2715342946517127
-1.3183794918745708
-0.34180209048599985
2.490272373540856
-0.537117570763714
-1.7090104524299992
-26.318760967421987
-167.92248416876478
-424.078736552987
-596.6399633783475
-559.9206530861371
-404.44953078507666
-258.9394979781796
-175.05149919890135
-130.42191195544365
-92.92133974212253
-67.43266956588083
-54.44419012741283
-37.94003204394598
-23.389028763256274
-20.263981078812847
-16.064698252841993
-7.666132600900283
-6.494239719233997
-7.568474860761425
-2.490272373540856
-0.43945983062485694
-3.2715342946517127
-1.416037232013428
1.3183794918745708
-1.0254062714579995
-1.416037232013428
1.6113527122911422
0.6347753109025711
-1.2207217517357138
0.9277485313191425
1.6113527122911422
-0.6347753109025711
0.14648661020828566
1.8066681925688564
0.14648661020828566
-0.14648661020828566
1.6113527122911422
0.8300907911802854
-0.34180209048599985
0.9277485313191425
1.3183794918745708
-0.04882887006942855
0.34180209048599985
1.2207217517357138
0.24414435034714274
0.04882887006942855
1.2207217517357138
0.8300907911802854
5.517662317845426
49.951934081025406
192.9228656443122
417.04737926298924
569.1981383993286
541.4633401998932
400.0549324788281
263.13878080415043
179.4460975051499
129.93362325474936
92.62836652170596
69.28816662851911
54.053559166857404
37.06111238269627
25.049210345616846
21.045242999923705
14.990463111314565
8.252079041733426
7.568474860761425
6.6895551995117115
2.490272373540856
1.9043259327077133
3.2715342946517127
0.9277485313191425
-0.34180209048599985
1.416037232013428
0.7324330510414282
-1.0254062714579995
0.14648661020828566
0.8300907911802854
-0.8300907911802854
-0.6347753109025711
0.6347753109025711
-0.34180209048599985
-1.0254062714579995
0.24414435034714274
0.04882887006942855
-1.0254062714579995
-0.14648661020828566
0.24414435034714274
-0.7324330510414282
-0.537117570763714
0.14648661020828566
-0.43945983062485694
-0.7324330510414282
0.04882887006942855
-0.04882887006942855
-0.7324330510414282
-0.24414435034714274
0.04882887006942855
-0.537117570763714
-0.43945983062485694
0.04882887006942855
-0.34180209048599985
-0.537117570763714
-0.04882887006942855
-0.14648661020828566
-0.537117570763714
-0.24414435034714274
-0.04882887006942855
-0.537117570763714
-0.43945983062485694
-0.14648661020828566
-0.34180209048599985
-0.537117570763714
-0.14648661020828566
-0.24414435034714274
-0.43945983062485694
-0.24414435034714274
-0.14648661020828566
-0.43945983062485694
-0.34180209048599985
-11.47478446631571
-88.72205691615167
-282.08438239108875
-503.3768215457389
-583.6514839398794
-491.1696040283818
-337.74929427023727
-221.24361028458077
-155.8129243915465
-112.84351873044938
-81.00709544518196
-62.45212481879911
-46.826886396581976
-30.71335927367056
-22.510109102006563
-18.701457236591136
-11.572442206454566
-7.177843900205997
-7.470817120622568
-4.834058136873426
-1.3183794918745708
-2.2949568932631417
-2.2949568932631417
0.24414435034714274
0.04882887006942855
-1.3183794918745708
0.34180209048599985
1.0254062714579995
-0.537117570763714
0.04882887006942855
1.416037232013428
0.34180209048599985
-0.04882887006942855
1.2207217517357138
0.8300907911802854
-0.04882887006942855
0.8300907911802854
1.1230640115968566
0.04882887006942855
0.34180209048599985
1.1230640115968566
0.34180209048599985
0.14648661020828566
0.9277485313191425
0.6347753109025711
0.04882887006942855
0.8300907911802854
1.0254062714579995
0.24414435034714274
0.34180209048599985
5.322346837567712
55.22545204852369
214.70054169527734
438.82505531395435
567.9285877775235
525.5451285572594
386.96879530022125
257.66994735637445
176.61402304112306
126.61326009002823
91.26115815976196
68.79987792782482
52.19806210421912
35.98687724116884
25.439841306172273
20.361638818951704
14.013885709925994
8.74036774242771
7.763790341039139
5.908293278400855
2.5879301136797133
2.392614633401999
2.68558785381857
0.7324330510414282
0.14648661020828566
1.2207217517357138
0.34180209048599985
-0.6347753109025711
0.34180209048599985
0.34180209048599985
-0.7324330510414282
-0.24414435034714274
0.34180209048599985
-0.537117570763714
-0.6347753109025711
0.14648661020828566
-0.14648661020828566
-0.7324330510414282
-0.04882887006942855
-0.04882887006942855
-0.7324330510414282
-0.43945983062485694
0.04882887006942855
-0.537117570763714
-0.537117570763714
-0.04882887006942855
-0.24414435034714274
-0.537117570763714
-0.14648661020828566
-0.14648661020828566
-0.537117570763714
-0.34180209048599985
-0.04882887006942855
-0.43945983062485694
-0.43945983062485694
-0.04882887006942855
-0.24414435034714274
-0.43945983062485694
-0.14648661020828566
-0.14648661020828566
-0.43945983062485694
-0.34180209048599985
-0.14648661020828566
-0.34180209048599985
-0.34180209048599985
-0.14648661020828566
-0.24414435034714274
-0.43945983062485694
-0.24414435034714274
-0.24414435034714274
-0.34180209048599985
-42.13931486991684
-211.96612497138932
-465.48561837186236
-601.6205081254292
-535.4085603112841
-374.7615777828641
-241.8493934538796
-168.21545738918135
-122.6092927443351
-86.76890211337454
-66.45609216449226
-51.709773403524835
-33.64309147783627
-23.291371023117417
-20.45929655909056
-13.232623788815136
-6.982528419928283
-7.763790341039139
-6.005951018539712
-1.3183794918745708
-2.0019836728465705
-3.2715342946517127
0.04882887006942855
0.537117570763714
-1.7090104524299992
-0.04882887006942855
1.7090104524299992
-0.34180209048599985
-0.43945983062485694
1.6113527122911422
0.537117570763714
-0.6347753109025711
1.0254062714579995
1.2207217517357138
-0.34180209048599985
0.43945983062485694
1.513694972152285
0.14648661020828566
0.04882887006942855
1.2207217517357138
0.537117570763714
-0.04882887006942855
0.9277485313191425
0.9277485313191425
0.04882887006942855
0.7324330510414282
1.3183794918745708
0.34180209048599985
0.14648661020828566
0.9277485313191425
0.537117570763714
0.14648661020828566
30.908674753948272
161.77004654001678
378.960860608835
536.2874799725338
535.8968490119784
423.98107881284807
296.24475471122304
205.0324254215305
144.6799420157168
101.90585183489738
76.71015487907225
58.936446173800256
40.28381780727855
28.467231250476843
23.291371023117417
15.869382772564279
9.521629663538567
8.935683222705425
6.884870679789426
2.783245593957427
2.68558785381857
3.36919203479057
0.6347753109025711
0.04882887006942855
1.513694972152285
0.34180209048599985
-0.9277485313191425
0.43945983062485694
0.537117570763714
-0.9277485313191425
-0.24414435034714274
0.537117570763714
-0.6347753109025711
-0.7324330510414282
0.34180209048599985
-0.14648661020828566
-0.9277485313191425
0.04882887006942855
0.04882887006942855
-0.8300907911802854
-0.34180209048599985
0.14648661020828566
-0.537117570763714
-0.6347753109025711
0.04882887006942855
-0.24414435034714274
-0.7324330510414282
-0.04882887006942855
-0.04882887006942855
-0.6347753109025711
-0.34180209048599985
0.04882887006942855
-0.43945983062485694
-0.537117570763714
-0.04882887006942855
-0.24414435034714274
-0.537117570763714
-0.14648661020828566
-0.14648661020828566
-0.537117570763714
-0.34180209048599985
-0.04882887006942855
-0.34180209048599985
-0.43945983062485694
-0.24414435034714274
-0.34180209048599985
-0.537117570763714
-0.24414435034714274
-0.24414435034714274
-0.43945983062485694
-0.34180209048599985
-0.14648661020828566
-0.34180209048599985
-0.34180209048599985
-0.14648661020828566
-0.24414435034714274
-0.34180209048599985
-0.24414435034714274
-22.90074006256199
-141.0666056305791
-370.36697947661554
-560.115968566415
-567.8309300373846
-435.70000762951094
-288.62745098039215
-193.6064698252842
-139.6017395284962
-99.65972381170367
-73.29213397421225
-57.66689555199512
-40.57679102769512
-26.514076447699704
-21.63118944075685
-16.357671473258563
-8.838025482566568
-7.275501640344854
-7.275501640344854
-2.9785610742351416
-1.3183794918745708
-3.076218814373999
-1.2207217517357138
0.8300907911802854
-0.8300907911802854
-0.8300907911802854
1.3183794918745708
0.43945983062485694
-0.6347753109025711
0.9277485313191425
1.2207217517357138
-0.34180209048599985
0.24414435034714274
1.3183794918745708
0.14648661020828566
0.04882887006942855
1.3183794918745708
0.7324330510414282
0.04882887006942855
1.0254062714579995
1.0254062714579995
0.04882887006942855
0.43945983062485694
1.1230640115968566
0.24414435034714274
0.04882887006942855
0.8300907911802854
0.537117570763714
0.04882887006942855
0.8300907911802854
0.9277485313191425
0.34180209048599985
48.291752498664835
230.5210955977722
483.1616693369955
603.2806897077897
525.2521553368429
363.237964446479
234.72037842374303
165.28572518501565
120.16784924086366
84.71808957045853
65.8701457236591
51.02616922255284
32.56885633630884
23.389028763256274
20.84992751964599
12.84199282825971
6.982528419928283
8.44739452201114
6.103608758678568
1.2207217517357138
2.5879301136797133
3.5645075150682843
-0.14648661020828566
-0.24414435034714274
2.197299153124285
0.04882887006942855
-1.416037232013428
0.9277485313191425
0.6347753109025711
-1.513694972152285
-0.04882887006942855
0.9277485313191425
-1.0254062714579995
-0.8300907911802854
0.6347753109025711
-0.43945983062485694
-1.3183794918745708
0.24414435034714274
0.04882887006942855
-1.1230640115968566
-0.24414435034714274
0.34180209048599985
-0.8300907911802854
-0.6347753109025711
0.34180209048599985
-39.5025558861677
-181.69222552834364
-371.5388723582818
-483.1616693369955
-486.2867170214389
-417.3403524834058
-319.487296864271
-229.3492027161059
-156.59418631265737
-108.2536049439231
-82.96025024795911
-61.475547417410546
-41.065079728389414
-31.68993667505913
-25.146868085755703
27.392996108949415
201.22377355611505
451.61821927214464
591.2687876707103
531.5999084458687
371.92950331883725
240.4821850919356
169.58266575112535
122.02334630350195
85.0110627908751
67.33501182574197
52.49103532463569
32.37354085603113
23.682001983672848
21.92416266117342
12.74433508812085
6.6895551995117115
9.130998702983138
6.201266498817426
0.6347753109025711
2.8809033340962844
3.9551384756237127
-0.537117570763714
-0.24414435034714274
2.5879301136797133
-0.04882887006942855
-1.7090104524299992
1.3183794918745708
-40.186160067139696
-210.59891660944533
-461.9699397268635
-599.7650110627909
-538.4359502555886
-377.3983367666133
-241.45876249332417
-168.9967193102922
-124.26947432669566
-86.28061341268025
-66.16311894407569
-53.17463950560769
-33.64309147783627
-22.412451361867703
-21.24055848020142
-13.720912489509422
-6.103608758678568
-8.05676356145571
-6.982528419928283
-0.8300907911802854
-1.7090104524299992
-3.9551384756237127
0.14648661020828566
1.416037232013428
-1.9043259327077133
-0.24414435034714274
2.197299153124285
-0.537117570763714
-1.1230640115968566
1.9043259327077133
0.8300907911802854
-0.9277485313191425
1.2207217517357138
1.7090104524299992
-0.537117570763714
0.34180209048599985
1.8066681925688564
0.04882887006942855
-0.24414435034714274
1.513694972152285
0.8300907911802854
-0.34180209048599985
3.2715342946517127
40.479133287556266
152.59021896696422
325.3467612726024
485.4077973601892
538.4359502555886
458.3566033417258
326.2256809338521
216.45838101777676
147.70733196002135
109.03486686503395
80.81177996490425
58.1551842526894
43.70183871213855
32.37354085603113
21.826504921034562
15.967040512703136
12.84199282825971
8.252079041733426
5.322346837567712
5.0293736171511405
3.36919203479057
1.3183794918745708
1.6113527122911422
1.6113527122911422
0.04882887006942855
0.04882887006942855
0.7324330510414282
-0.04882887006942855
-0.537117570763714
0.24414435034714274
0.04882887006942855
-0.6347753109025711
-0.04882887006942855
0.04882887006942855
-0.6347753109025711
-0.43945983062485694
0.04882887006942855
-0.43945983062485694
-0.6347753109025711
-0.04882887006942855
-0.14648661020828566
-0.6347753109025711
-0.24414435034714274
-0.04882887006942855
-0.537117570763714
-0.43945983062485694
-0.04882887006942855
-0.34180209048599985
-0.43945983062485694
-0.14648661020828566
-0.24414435034714274
-0.43945983062485694
-0.24414435034714274
-0.14648661020828566
-0.43945983062485694
-0.34180209048599985
-0.14648661020828566
-0.34180209048599985
-0.43945983062485694
-0.14648661020828566
-0.24414435034714274
-0.43945983062485694
-0.24414435034714274
-0.14648661020828566
-0.34180209048599985
-0.34180209048599985
-0.14648661020828566
-0.34180209048599985
-0.34180209048599985
-0.24414435034714274
-0.24414435034714274
-0.34180209048599985
-0.24414435034714274
-22.998397802700847
-147.21904325932707
-388.6289768825818
-577.8896772716869
-569.2957961394675
-424.762340733959
-276.7132066834516
-186.67277027542534
-136.18371862363622
-96.53467612726024
-71.1436636911574
-56.690318150606544
-39.20958266575113
-25.342183566033416
-21.728847180895706
-16.260013733119706
-8.05676356145571
-7.080186160067139
-7.275501640344854
-2.392614633401999
-1.1230640115968566
-3.466849774929427
-1.2207217517357138
1.1230640115968566
-1.0254062714579995
-1.0254062714579995
1.6113527122911422
0.34180209048599985
-1.0254062714579995
1.0254062714579995
1.2207217517357138
-0.537117570763714
0.43945983062485694
1.6113527122911422
0.04882887006942855
-0.04882887006942855
1.416037232013428
0.6347753109025711
-0.14648661020828566
1.1230640115968566
1.2207217517357138
0.04882887006942855
0.6347753109025711
1.3183794918745708
0.14648661020828566
0.04882887006942855
1.0254062714579995
0.537117570763714
0.04882887006942855
0.8300907911802854
0.9277485313191425
0.24414435034714274
0.6347753109025711
1.0254062714579995
25.342183566033416
159.9145494773785
414.11764705882354
596.9329365987641
566.7566948958572
409.6253910124361
262.45517662317843
178.27420462348363
131.78912031738764
93.31197070267795
68.99519340810254
55.51842526894026
37.94003204394598
24.17029068436713
21.338216220340275
16.064698252841993
7.666132600900283
7.275501640344854
7.666132600900283
2.392614633401999
1.2207217517357138
3.8574807354848555
1.3183794918745708
-1.0254062714579995
1.513694972152285
1.3183794918745708
-1.513694972152285
-0.14648661020828566
1.3183794918745708
-0.9277485313191425
-1.0254062714579995
0.9277485313191425
-0.14648661020828566
-1.416037232013428
0.34180209048599985
0.34180209048599985
-1.3183794918745708
-0.24414435034714274
0.537117570763714
-0.8300907911802854
-0.8300907911802854
0.43945983062485694
-0.24414435034714274
-1.0254062714579995
0.04882887006942855
0.04882887006942855
-0.9277485313191425
-0.34180209048599985
0.14648661020828566
-0.6347753109025711
-0.6347753109025711
0.04882887006942855
-0.24414435034714274
-0.7324330510414282
-0.04882887006942855
-0.04882887006942855
-0.6347753109025711
-0.24414435034714274
0.04882887006942855
-0.537117570763714
-0.537117570763714
-0.04882887006942855
-0.34180209048599985
-0.6347753109025711
-0.14648661020828566
-0.14648661020828566
-0.537117570763714
-0.34180209048599985
-0.04882887006942855
-0.43945983062485694
-0.43945983062485694
-0.04882887006942855
-0.24414435034714274
-0.43945983062485694
-20.947585259784848
-128.37109941252766
-344.5853360799573
-539.8031586175326
-569.3934538796063
-451.7158770122835
-304.35034714274815
-202.4933241779202
-144.38696879530022
-103.85900663767453
-75.83123521782254
-58.74113069352254
-42.33463035019455
-27.97894254978256
-21.92416266117342
-17.041275654230564
-10.009918364232853
-7.275501640344854
-6.982528419928283
-3.5645075150682843
-1.513694972152285
-2.8809033340962844
-1.7090104524299992
0.43945983062485694
-0.43945983062485694
-0.7324330510414282
1.0254062714579995
0.7324330510414282
-0.6347753109025711
0.34180209048599985
1.0254062714579995
-0.14648661020828566
0.24414435034714274
1.416037232013428
0.6347753109025711
0.14648661020828566
1.1230640115968566
0.8300907911802854
0.04882887006942855
0.6347753109025711
1.1230640115968566
0.34180209048599985
0.537117570763714
1.1230640115968566
0.537117570763714
0.14648661020828566
0.7324330510414282
0.6347753109025711
0.24414435034714274
0.6347753109025711
0.9277485313191425
47.90112153810941
229.54451819638362
483.06401159685663
603.3783474479286
525.0568398565651
363.7262531471733
235.2086671244373
164.99275196459908
120.0701915007248
85.20637827115281
65.77248798352025
50.73319600213626
32.86182955672541
23.48668650339513
20.55695429922942
12.939650568398566
7.177843900205997
8.154421301594567
6.005951018539712
1.416037232013428
2.490272373540856
3.36919203479057
0.04882887006942855
-0.14648661020828566
1.9043259327077133
0.04882887006942855
-1.3183794918745708
0.7324330510414282
0.537117570763714
-1.416037232013428
-0.14648661020828566
0.7324330510414282
-0.9277485313191425
-0.8300907911802854
0.6347753109025711
-0.34180209048599985
-1.1230640115968566
0.14648661020828566
0.04882887006942855
-1.0254062714579995
-0.24414435034714274
0.24414435034714274
-0.7324330510414282
-0.6347753109025711
0.24414435034714274
-0.34180209048599985
-0.8300907911802854
0.04882887006942855
0.04882887006942855
-0.7324330510414282
-0.24414435034714274
0.04882887006942855
-0.537117570763714
-0.537117570763714
0.04882887006942855
-0.34180209048599985
-0.6347753109025711
-0.04882887006942855
-0.14648661020828566
-0.6347753109025711
-0.34180209048599985
-0.14648661020828566
-0.537117570763714
-0.43945983062485694
-0.04882887006942855
-0.34180209048599985
-0.537117570763714
-0.14648661020828566
-0.14648661020828566
-0.537117570763714
-0.24414435034714274
-0.14648661020828566
-0.43945983062485694
-0.34180209048599985
-0.14648661020828566
-0.24414435034714274
-0.43945983062485694
-0.24414435034714274
-0.24414435034714274
-8.05676356145571
-67.33501182574197
-240.38452735179675
-472.61463340199896
-587.7531090257114
-516.6582742046235
-362.1637293049516
-235.30632486457617
-163.13725490196077
-118.89829861905852
-85.10872053101396
-64.69825284199283
-49.75661860074769
-33.15480277714199
-23.096055542839704
-19.48271915770199
-12.84199282825971
-7.177843900205997
-7.275501640344854
-5.71297779812314
-1.7090104524299992
-1.9043259327077133
-2.8809033340962844
-0.24414435034714274
0.34180209048599985
-1.2207217517357138
-0.04882887006942855
1.2207217517357138
-0.14648661020828566
-0.24414435034714274
1.416037232013428
0.6347753109025711
-0.34180209048599985
0.9277485313191425
1.1230640115968566
-0.04882887006942855
0.43945983062485694
1.2207217517357138
0.14648661020828566
0.04882887006942855
1.1230640115968566
0.7324330510414282
0.04882887006942855
0.8300907911802854
0.9277485313191425
0.14648661020828566
0.43945983062485694
0.9277485313191425
0.34180209048599985
0.34180209048599985
2.392614633401999
78.85862516212711
314.9950408178836
564.1199359121081
608.7495231555657
473.0052643625544
307.96368352788585
202.8839551384756
148.87922484168766
105.7145037003128
75.63591973754482
61.96383611810483
44.580758373388264
26.807049668116274
22.90074006256199
19.287403677424276
9.130998702983138
6.884870679789426
9.130998702983138
3.7598229953459983
0.43945983062485694
4.052796215762569
2.5879301136797133
-1.416037232013428
0.9277485313191425
2.2949568932631417
-1.3183794918745708
-0.8300907911802854
1.8066681925688564
-0.43945983062485694
-1.8066681925688564
0.8300907911802854
0.34180209048599985
-1.8066681925688564
-0.04882887006942855
0.8300907911802854
-1.2207217517357138
-0.8300907911802854
0.8300907911802854
-0.537117570763714
-1.2207217517357138
0.43945983062485694
0.04882887006942855
-1.2207217517357138
-0.14648661020828566
0.43945983062485694
-0.9277485313191425
-0.6347753109025711
0.34180209048599985
-0.43945983062485694
-0.9277485313191425
0.04882887006942855
-0.04882887006942855
-0.8300907911802854
-0.14648661020828566
0.04882887006942855
-0.6347753109025711
-0.537117570763714
0.04882887006942855
-0.34180209048599985
-0.6347753109025711
0.04882887006942855
-0.14648661020828566
-0.6347753109025711
-0.24414435034714274
0.04882887006942855
-0.537117570763714
-0.43945983062485694
0.04882887006942855
-0.34180209048599985
-0.537117570763714
-0.14648661020828566
-0.24414435034714274
-0.6347753109025711
-0.34180209048599985
-4.248111696040284
-92.72602426184481
-341.5579461356527
-582.577248798352
-605.136186770428
-456.7940794995041
-292.43610284580757
-193.6064698252842
-143.9963378347448
-101.51522087434195
-72.5108720531014
-60.401312275883114
-42.72526131074998
-24.853894865339132
-22.21713588158999
-18.799114976729992
-7.959105821316854
-6.39658197909514
-9.130998702983138
-2.9785610742351416
0.14648661020828566
-3.9551384756237127
-2.0996414129854277
2.0996414129854277
-1.0254062714579995
-2.2949568932631417
1.9043259327077133
1.1230640115968566
-1.7090104524299992
1.0254062714579995
2.197299153124285
-0.8300907911802854
-0.04882887006942855
2.2949568932631417
0.14648661020828566
-0.6347753109025711
1.8066681925688564
1.0254062714579995
-0.8300907911802854
0.8300907911802854
1.6113527122911422
-0.34180209048599985
0.04882887006942855
1.6113527122911422
0.34180209048599985
-0.04882887006942855
1.416037232013428
1.0254062714579995
-0.14648661020828566
9.42397192339971
77.88204776073853
231.00938429846647
384.8203250171664
464.2160677500572
467.8294041351949
404.93781948577094
308.84260318913556
215.38414587624933
144.28931105516136
104.73792629892424
79.93286030365454
55.51842526894026
39.893186846723125
32.56885633630884
22.119478141451133
13.525597009231708
12.45136186770428
9.619287403677424
4.052796215762569
3.9551384756237127
4.638742656595713
1.0254062714579995
0.24414435034714274
2.2949568932631417
0.7324330510414282
-1.0254062714579995
0.8300907911802854
0.8300907911802854
-1.2207217517357138
-0.24414435034714274
0.8300907911802854
-0.7324330510414282
-0.9277485313191425
0.537117570763714
-0.14648661020828566
-1.1230640115968566
0.04882887006942855
0.14648661020828566
-1.0254062714579995
-0.34180209048599985
0.34180209048599985
-0.6347753109025711
-0.7324330510414282
0.14648661020828566
-0.24414435034714274
-0.8300907911802854
-0.04882887006942855
0.04882887006942855
-0.7324330510414282
-0.34180209048599985
0.04882887006942855
-0.537117570763714
-0.537117570763714
0.04882887006942855
-0.24414435034714274
-0.7324330510414282
-0.24414435034714274
-0.14648661020828566
-0.6347753109025711
-0.34180209048599985
-0.04882887006942855
-0.43945983062485694
-0.43945983062485694
-0.04882887006942855
-0.24414435034714274
-0.537117570763714
-0.14648661020828566
-0.14648661020828566
-0.43945983062485694
-0.34180209048599985
-0.14648661020828566
-0.34180209048599985
-0.43945983062485694
-0.14648661020828566
-0.24414435034714274
-2.9785610742351416
-57.95986877241169
-244.29083695735105
-490.4859998474098
-599.0814068818189
-515.3887235828183
-355.52300297550926
-230.7164110780499
-162.1606775005722
-117.62874799725337
-83.54619668879225
-64.69825284199283
-49.56130312046998
-31.9829098954757
-23.096055542839704
-19.87335011825742
-12.060730907148852
-6.982528419928283
-7.861448081177996
-5.322346837567712
-1.1230640115968566
-2.2949568932631417
-2.8809033340962844
0.34180209048599985
0.14648661020828566
-1.7090104524299992
0.24414435034714274
1.416037232013428
-0.537117570763714
-0.14648661020828566
1.6113527122911422
0.34180209048599985
-0.34180209048599985
1.2207217517357138
1.0254062714579995
-0.24414435034714274
0.7324330510414282
1.3183794918745708
0.04882887006942855
0.24414435034714274
1.416037232013428
0.43945983062485694
0.04882887006942855
1.0254062714579995
0.7324330510414282
-0.04882887006942855
0.6347753109025711
1.1230640115968566
0.34180209048599985
0.43945983062485694
43.40886549172198
213.72396429388877
466.7551689936675
602.3041123064012
535.0179293507287
373.68734264133667
241.45876249332417
168.60608834973678
122.51163500419624
86.67124437323568
66.94438086518655
51.90508888380255
33.64309147783627
23.87731746395056
21.045242999923705
13.330281528953995
7.275501640344854
8.349736781872283
6.201266498817426
1.416037232013428
2.392614633401999
3.466849774929427
0.04882887006942855
-0.24414435034714274
2.0019836728465705
0.14648661020828566
-1.3183794918745708
0.8300907911802854
0.6347753109025711
-1.416037232013428
-0.14648661020828566
0.8300907911802854
-0.9277485313191425
-0.9277485313191425
0.6347753109025711
-0.24414435034714274
-1.2207217517357138
0.14648661020828566
0.14648661020828566
-1.0254062714579995
-0.24414435034714274
0.34180209048599985
-0.7324330510414282
-0.6347753109025711
0.24414435034714274
-0.34180209048599985
-0.8300907911802854
0.04882887006942855
0.04882887006942855
-0.8300907911802854
-0.24414435034714274
0.04882887006942855
-0.537117570763714
-0.537117570763714
0.04882887006942855
-0.24414435034714274
-0.6347753109025711
-0.04882887006942855
-0.14648661020828566
-0.6347753109025711
-0.34180209048599985
-0.04882887006942855
-0.43945983062485694
-0.43945983062485694
-0.04882887006942855
-0.34180209048599985
-0.537117570763714
-0.14648661020828566
-0.14648661020828566
-0.43945983062485694
-0.24414435034714274
-0.14648661020828566
-0.43945983062485694
-0.34180209048599985
-0.14648661020828566
-0.34180209048599985
-0.43945983062485694
-0.24414435034714274
-0.24414435034714274
-0.43945983062485694
-12.45136186770428
-104.24963759822995
-325.3467612726024
-544.29541466392
-585.995269703212
-464.8996719310292
-309.916838330663
-204.73945220111392
-147.31670099946592
-105.61684596017395
-76.22186617837797
-60.30365453574426
-43.70183871213855
-27.783627069504846
-22.21713588158999
-18.11551079575799
-9.81460288395514
-6.884870679789426
-7.861448081177996
-3.8574807354848555
-0.9277485313191425
-2.9785610742351416
-1.9043259327077133
0.9277485313191425
-0.43945983062485694
-1.3183794918745708
1.1230640115968566
0.9277485313191425
-0.9277485313191425
0.6347753109025711
1.6113527122911422
-0.14648661020828566
0.04882887006942855
1.513694972152285
0.34180209048599985
-0.24414435034714274
1.1230640115968566
1.0254062714579995
-0.14648661020828566
0.6347753109025711
1.2207217517357138
0.04882887006942855
0.14648661020828566
1.1230640115968566
0.43945983062485694
0.04882887006942855
1.0254062714579995
0.8300907911802854
0.04882887006942855
0.537117570763714
1.0254062714579995
0.34180209048599985
0.43945983062485694
1.0254062714579995
23.58434424353399
118.89829861905852
257.0840009155413
336.47974364843213
368.2185091935607
406.98863202868694
411.18791485465783
345.56191348134587
244.48615243762876
160.69581139848935
115.57793545433738
86.1829556725414
58.74113069352254
44.19012741283284
36.27985046158541
22.998397802700847
14.795147631036851
14.599832150759136
9.912260624093996
3.8574807354848555
5.224689097428855
5.127031357289998
0.537117570763714
0.8300907911802854
2.9785610742351416
0.14648661020828566
-1.0254062714579995
1.513694972152285
0.537117570763714
-1.6113527122911422
0.24414435034714274
0.9277485313191425
-1.2207217517357138
-0.6347753109025711
0.9277485313191425
-0.537117570763714
-1.2207217517357138
0.537117570763714
0.04882887006942855
-1.3183794918745708
-0.04882887006942855
0.34180209048599985
-1.0254062714579995
-0.537117570763714
0.34180209048599985
-0.537117570763714
-0.9277485313191425
0.14648661020828566
-0.04882887006942855
-0.9277485313191425
-0.14648661020828566
0.04882887006942855
-0.7324330510414282
-0.43945983062485694
0.04882887006942855
-0.43945983062485694
-0.6347753109025711
0.04882887006942855
-0.14648661020828566
-0.6347753109025711
-0.14648661020828566
-0.04882887006942855
-0.537117570763714
-0.34180209048599985
0.04882887006942855
-0.34180209048599985
-0.537117570763714
-0.04882887006942855
-0.14648661020828566
-0.537117570763714
-0.24414435034714274
-0.14648661020828566
-0.43945983062485694
-0.34180209048599985
-5.615320057984283
-81.69069962615396
-298.7838559548333
-536.1898222323949
-597.8118562600138
-482.1850919356069
-321.83108262760356
-211.0872053101396
-152.1995880064088
-108.93720912489509
-77.78439002059967
-62.2568093385214
-45.75265125505455
-28.27191577019913
-22.510109102006563
-19.18974593728542
-10.205233844510566
-6.884870679789426
-8.44739452201114
-4.150453955901427
-0.537117570763714
-3.1738765545128556
-2.5879301136797133
1.0254062714579995
-0.34180209048599985
-1.8066681925688564
1.0254062714579995
1.1230640115968566
-1.1230640115968566
0.537117570763714
2.0019836728465705
-0.24414435034714274
-0.24414435034714274
1.7090104524299992
0.6347753109025711
-0.34180209048599985
1.2207217517357138
1.2207217517357138
-0.24414435034714274
0.6347753109025711
1.416037232013428
0.04882887006942855
0.04882887006942855
1.3183794918745708
0.6347753109025711
0.04882887006942855
0.9277485313191425
0.8300907911802854
-0.04882887006942855
0.537117570763714
1.2207217517357138
0.43945983062485694
4.931715877012284
87.15953307392996
319.38963912413215
558.8464179446097
602.40177004654
470.5638208590829
307.5730525673304
202.8839551384756
148.68390936140995
105.42153047989623
75.34294651712825
61.86617837796597
44.48310063324941
26.709391927977418
22.803082322423133
19.287403677424276
9.130998702983138
6.884870679789426
9.130998702983138
3.7598229953459983
0.43945983062485694
4.052796215762569
2.5879301136797133
-1.416037232013428
0.9277485313191425
2.2949568932631417
-1.3183794918745708
-0.8300907911802854
1.8066681925688564
-0.43945983062485694
-1.7090104524299992
0.9277485313191425
0.43945983062485694
-1.8066681925688564
0.04882887006942855
0.9277485313191425
-1.2207217517357138
-0.8300907911802854
0.8300907911802854
-0.43945983062485694
-1.3183794918745708
0.34180209048599985
0.04882887006942855
-1.3183794918745708
-0.14648661020828566
0.34180209048599985
-0.9277485313191425
-0.6347753109025711
0.34180209048599985
-0.43945983062485694
-0.9277485313191425
0.04882887006942855
-0.04882887006942855
-0.9277485313191425
-0.14648661020828566
0.04882887006942855
-0.6347753109025711
-0.537117570763714
0.04882887006942855
-0.34180209048599985
-0.6347753109025711
0.04882887006942855
-0.14648661020828566
-0.6347753109025711
-0.24414435034714274
0.04882887006942855
-0.537117570763714
-0.43945983062485694
-0.04882887006942855
-0.34180209048599985
-0.537117570763714
-0.14648661020828566
-0.14648661020828566
-0.537117570763714
-0.24414435034714274
-19.18974593728542
-141.55489433127337
-395.367360952163
-594.7844663157092
-577.9873350118257
-421.4419775692378
-269.09590295262075
-181.7898832684825
-134.81651026169223
-94.87449454489968
-69.58113984893568
-56.88563363088426
-38.818951705195694
-23.87731746395056
-21.43587396047913
-16.45532921339742
-7.275501640344854
-6.884870679789426
-7.959105821316854
-2.197299153124285
-0.6347753109025711
-3.8574807354848555
-1.2207217517357138
1.6113527122911422
-1.3183794918745708
-1.416037232013428
1.9043259327077133
0.34180209048599985
-1.3183794918745708
1.416037232013428
1.7090104524299992
-0.8300907911802854
0.24414435034714274
1.9043259327077133
0.04882887006942855
-0.14648661020828566
1.7090104524299992
0.7324330510414282
-0.43945983062485694
1.0254062714579995
1.1230640115968566
-0.34180209048599985
0.34180209048599985
1.416037232013428
0.14648661020828566
0.04882887006942855
28.27191577019913
126.61326009002823
276.420233463035
413.0434119172961
489.21644922560466
472.5169756618601
379.05851834897385
267.72869459067675
178.7624933241779
124.66010528725108
93.99557488364995
68.11627374685283
48.19409475852598
37.64705882352941
27.49065384908827
17.43190661478599
13.720912489509422
11.47478446631571
6.298924238956283
4.248111696040284
4.931715877012284
2.5879301136797133
0.537117570763714
1.8066681925688564
1.416037232013428
-0.43945983062485694
0.14648661020828566
1.0254062714579995
-0.537117570763714
-0.6347753109025711
0.537117570763714
-0.14648661020828566
-0.9277485313191425
0.14648661020828566
0.04882887006942855
-0.9277485313191425
-0.24414435034714274
0.24414435034714274
-0.6347753109025711
-0.7324330510414282
0.04882887006942855
-0.34180209048599985
-0.8300907911802854
-0.04882887006942855
-0.04882887006942855
-0.7324330510414282
-0.34180209048599985
0.04882887006942855
-22.412451361867703
-110.10910200656139
-253.37300679026475
-392.4376287479973
-482.1850919356069
-482.8686961165789
-395.85564965285727
-281.40077821011675
-187.84466315709162
-129.73830777447165
-97.21828030823224
-71.04600595101854
-50.24490730144198
-38.525978484779124
-28.467231250476843
42.236972610055695
255.61913481345846
510.8964675364309
600.1556420233463
496.24780651560235
331.5968566414893
216.1654077973602
156.39887083237966
111.08567940794995
78.37033646143283
64.11230640115969
47.60814831769284
28.369573510337986
23.19371328297856
20.55695429922942
10.205233844510566
6.591897459372854
9.42397192339971
4.638742656595713
0.24414435034714274
3.8574807354848555
-57.56923781185626
-271.9279774166476
-522.9083695735103
-604.1596093690395
-500.74006256198976
-336.7727168688487
-216.45838101777676
-156.78950179293508
-114.4060425726711
-78.76096742198825
-62.54978255893797
-49.073014419775696
-29.346150911726557
-21.533531700617992
-20.84992751964599
-11.670099946593423
-5.420004577706569
-8.252079041733426
-5.517662317845426
0.14648661020828566
-2.490272373540856
-3.9551384756237127
0.9277485313191425
0.6347753109025711
-2.490272373540856
0.7324330510414282
2.68558785381857
-0.8300907911802854
-0.43945983062485694
2.2949568932631417
0.04882887006942855
-1.1230640115968566
1.6113527122911422
1.513694972152285
-0.537117570763714
0.9277485313191425
1.7090104524299992
-0.43945983062485694
-0.04882887006942855
1.513694972152285
0.24414435034714274
-0.04882887006942855
1.7090104524299992
1.2207217517357138
-0.34180209048599985
24.4632639047837
157.47310597390708
409.82070649271384
596.0540169375143
569.6864271000229
411.4808880750744
262.9434653238727
179.54375524528876
132.47272449835967
92.72602426184481
69.28816662851911
56.39734493018997
37.549401083390556
23.974975204089418
22.021820401312276
15.967040512703136
7.177843900205997
7.666132600900283
7.959105821316854
1.9043259327077133
1.3183794918745708
4.248111696040284
1.0254062714579995
-1.2207217517357138
1.9043259327077133
1.3183794918745708
-1.8066681925688564
0.14648661020828566
1.513694972152285
-1.2207217517357138
-1.0254062714579995
1.2207217517357138
-0.34180209048599985
-1.6113527122911422
0.43945983062485694
0.24414435034714274
-1.513694972152285
-0.14648661020828566
0.6347753109025711
-1.0254062714579995
-0.8300907911802854
0.537117570763714
-0.34180209048599985
-1.1230640115968566
0.14648661020828566
0.04882887006942855
-1.0254062714579995
-0.24414435034714274
0.24414435034714274
-0.7324330510414282
-0.6347753109025711
0.24414435034714274
-0.34180209048599985
-0.7324330510414282
0.04882887006942855
-0.04882887006942855
-0.7324330510414282
-0.24414435034714274
0.04882887006942855
-0.537117570763714
-0.43945983062485694
0.04882887006942855
-0.34180209048599985
-0.6347753109025711
-0.04882887006942855
-0.14648661020828566
-0.537117570763714
-0.24414435034714274
-0.04882887006942855
-0.43945983062485694
-0.43945983062485694
-0.04882887006942855
-0.34180209048599985
-0.537117570763714
-0.24414435034714274
-0.24414435034714274
-0.537117570763714
-0.24414435034714274
-0.14648661020828566
-0.43945983062485694
-1.513694972152285
-72.90150301365682
-299.56511787594417
-548.8853284504463
-606.6987106126497
-481.89211871519035
-317.82711528191044
-208.35278858625162
-151.80895704585336
-108.35126268406195
-77.00312809948882
-62.2568093385214
-45.26436255436027
-27.1976806286717
-22.510109102006563
-19.58037689784085
-9.81460288395514
-6.787212939650568
-8.935683222705425
-4.052796215762569
0.04882887006942855
-2.9785610742351416
-2.490272373540856
1.2207217517357138
-0.8300907911802854
-2.392614633401999
1.0254062714579995
1.3183794918745708
-1.0254062714579995
0.8300907911802854
2.0996414129854277
-0.6347753109025711
-0.537117570763714
1.8066681925688564
0.43945983062485694
-0.537117570763714
1.7090104524299992
1.6113527122911422
-0.43945983062485694
0.34180209048599985
1.3183794918745708
-0.14648661020828566
0.04882887006942855
1.6113527122911422
0.9277485313191425
0.24414435034714274
1.1230640115968566
0.7324330510414282
-0.34180209048599985
0.34180209048599985
37.74471656366827
194.9736781872282
444.8798352025635
592.4406805523766
539.3148699168383
386.1875333791104
253.76363775082018
176.71168078126192
127.98046845197223
90.38223849851225
69.19050888838025
53.760585946440834
35.303273060196844
24.756237125200276
21.533531700617992
14.11154345006485
7.666132600900283
8.349736781872283
6.494239719233997
1.7090104524299992
2.2949568932631417
3.5645075150682843
0.24414435034714274
-0.24414435034714274
1.9043259327077133
0.34180209048599985
-1.3183794918745708
0.6347753109025711
0.7324330510414282
-1.3183794918745708
-0.24414435034714274
0.8300907911802854
-0.8300907911802854
-0.9277485313191425
0.537117570763714
-0.14648661020828566
-1.1230640115968566
0.04882887006942855
0.14648661020828566
-1.0254062714579995
-0.34180209048599985
0.34180209048599985
-0.6347753109025711
-0.7324330510414282
0.14648661020828566
-0.24414435034714274
-0.8300907911802854
-0.04882887006942855
0.04882887006942855
-0.7324330510414282
-0.34180209048599985
0.04882887006942855
-0.537117570763714
-0.6347753109025711
0.04882887006942855
-0.24414435034714274
-0.6347753109025711
-0.14648661020828566
-0.14648661020828566
-0.537117570763714
-0.34180209048599985
-0.04882887006942855
-0.43945983062485694
-0.43945983062485694
-0.04882887006942855
-0.24414435034714274
-0.537117570763714
-0.14648661020828566
-0.14648661020828566
-0.43945983062485694
-0.34180209048599985
-0.14648661020828566
-0.34180209048599985
-0.34180209048599985
-37.256427862973986
-197.31746395056078
-450.8369573510338
-600.1556420233463
-544.29541466392
-384.6250095368887
-247.41588464179446
-170.85221637293049
-124.8554207675288
-88.13611047531853
-67.0420386053254
-53.07698176546884
-35.10795757991913
-23.682001983672848
-20.84992751964599
-13.916227969787137
-6.591897459372854
-7.177843900205997
-6.39658197909514
-1.7090104524299992
-1.9043259327077133
-3.662165255207141
-0.34180209048599985
0.9277485313191425
-1.2207217517357138
0.04882887006942855
1.8066681925688564
-0.34180209048599985
-0.9277485313191425
1.2207217517357138
0.6347753109025711
-0.6347753109025711
1.2207217517357138
1.8066681925688564
-0.04882887006942855
0.24414435034714274
1.3183794918745708
0.04882887006942855
-0.14648661020828566
1.2207217517357138
1.1230640115968566
0.14648661020828566
0.9277485313191425
1.0254062714579995
-0.04882887006942855
0.24414435034714274
1.0254062714579995
0.34180209048599985
0.43945983062485694
1.3183794918745708
0.7324330510414282
-0.04882887006942855
0.537117570763714
75.44060425726711
313.23720149538417
566.1707484550241
611.7769130998703
474.5677882047761
307.76836804760813
202.6886396581979
149.2698558022431
105.61684596017395
75.34294651712825
62.35446707866026
44.77607385366598
26.514076447699704
22.998397802700847
19.58037689784085
8.935683222705425
6.787212939650568
9.42397192339971
3.662165255207141
0.24414435034714274
4.248111696040284
2.68558785381857
-1.7090104524299992
1.0254062714579995
2.490272373540856
-1.513694972152285
-0.9277485313191425
2.0019836728465705
-0.43945983062485694
-1.9043259327077133
1.0254062714579995
0.34180209048599985
-2.0019836728465705
-0.04882887006942855
0.9277485313191425
-1.3183794918745708
-0.9277485313191425
0.9277485313191425
-0.537117570763714
-1.3183794918745708
0.43945983062485694
0.04882887006942855
-1.3183794918745708
-0.04882887006942855
0.43945983062485694
-0.9277485313191425
-0.6347753109025711
0.43945983062485694
-0.43945983062485694
-0.9277485313191425
0.14648661020828566
0.04882887006942855
-0.9277485313191425
-0.14648661020828566
0.14648661020828566
-0.7324330510414282
-0.537117570763714
0.14648661020828566
-0.34180209048599985
-0.7324330510414282
0.04882887006942855
-0.14648661020828566
-0.7324330510414282
-0.24414435034714274
0.04882887006942855
-0.537117570763714
-0.43945983062485694
0.04882887006942855
-0.34180209048599985
-0.6347753109025711
-0.14648661020828566
-0.24414435034714274
-27.68596932936599
-130.5195696955825
-305.131609063859
-474.3724727244984
-539.2172121766995
-469.8802166781109
-340.5813687342641
-229.05622949568934
-156.59418631265737
-113.13649195086595
-83.6438544289311
-61.28023193713283
-44.77607385366598
-32.6665140764477
-23.389028763256274
-17.041275654230564
-12.646677347981994
-8.74036774242771
-5.810635538261997
-3.9551384756237127
-2.5879301136797133
-1.6113527122911422
-1.513694972152285
-1.2207217517357138
-0.537117570763714
-0.14648661020828566
0.04882887006942855
0.6347753109025711
0.9277485313191425
0.43945983062485694
0.14648661020828566
0.34180209048599985
0.24414435034714274
0.24414435034714274
0.6347753109025711
0.9277485313191425
0.8300907911802854
0.6347753109025711
0.43945983062485694
0.14648661020828566
0.34180209048599985
0.537117570763714
0.6347753109025711
0.9277485313191425
1.0254062714579995
0.7324330510414282
0.43945983062485694
0.43945983062485694
0.537117570763714
0.537117570763714
0.7324330510414282
1.1230640115968566
0.9277485313191425
0.537117570763714
0.34180209048599985
14.990463111314565
79.63988708323797
215.18883039597162
391.5587090867475
518.5137712672617
515.2910658426795
405.9143968871595
278.471046005951
186.57511253528648
132.08209353780424
96.82764934767681
70.85069047074083
52.881666285191116
39.11192492561227
27.1976806286717
19.678034637979707
15.088120851453422
10.302891584649425
6.884870679789426
5.71297779812314
3.9551384756237127
2.0996414129854277
1.9043259327077133
1.6113527122911422
0.43945983062485694
0.24414435034714274
0.6347753109025711
0.04882887006942855
-0.24414435034714274
0.14648661020828566
0.04882887006942855
-0.43945983062485694
-0.14648661020828566
0.04882887006942855
-0.43945983062485694
-0.34180209048599985
-0.04882887006942855
-0.34180209048599985
-0.43945983062485694
-0.14648661020828566
-0.14648661020828566
-0.43945983062485694
-0.24414435034714274
-0.14648661020828566
-0.43945983062485694
-0.34180209048599985
-0.14648661020828566
-0.34180209048599985
-0.537117570763714
-0.24414435034714274
-0.24414435034714274
-0.43945983062485694
-0.24414435034714274
-0.24414435034714274
-0.34180209048599985
-6.982528419928283
-30.518043793392845
-67.92095826657511
-125.24605172808423
-196.43854428931107
-193.8017853055619
-75.34294651712825
55.32310978866255
115.67559319447624
121.24208438239108
105.61684596017395
86.47592889295797
62.061493858243686
37.549401083390556
27.783627069504846
23.974975204089418
14.11154345006485
8.935683222705425
10.400549324788281
6.298924238956283
1.513694972152285
3.7598229953459983
3.662165255207141
-0.43945983062485694
0.43945983062485694
2.490272373540856
-0.34180209048599985
-1.2207217517357138
1.416037232013428
0.14648661020828566
-1.7090104524299992
-23.58434424353399
-155.51995117112992
-411.57854581521326
-596.5423056382086
-567.3426413366903
-411.38323033493555
-263.52941176470586
-177.39528496223392
-131.69146257724879
-94.28854810406654
-68.89753566796368
-55.127794308384836
-38.42832074464027
-23.974975204089418
-20.068665598535134
-15.576409552147707
-7.763790341039139
-6.884870679789426
-7.763790341039139
-2.8809033340962844
-0.8300907911802854
-3.2715342946517127
-1.1230640115968566
1.513694972152285
-0.8300907911802854
-1.416037232013428
1.3183794918745708
0.43945983062485694
-1.1230640115968566
1.0254062714579995
1.8066681925688564
-0.14648661020828566
0.24414435034714274
1.513694972152285
-0.04882887006942855
-0.34180209048599985
1.3183794918745708
0.9277485313191425
0.04882887006942855
1.3183794918745708
1.2207217517357138
-0.24414435034714274
0.14648661020828566
1.1230640115968566
0.24414435034714274
0.14648661020828566
1.416037232013428
58.54581521324483
260.013733119707
513.53322652018
606.503395132372
506.0135805294881
342.9251544975967
223.48973830777447
159.13328755626765
114.50370031280995
81.69069962615396
64.60059510185397
48.291752498664835
30.518043793392845
23.48668650339513
20.068665598535134
11.377126726176853
7.177843900205997
8.545052262149996
4.931715877012284
1.0254062714579995
3.1738765545128556
2.9785610742351416
-0.537117570763714
0.34180209048599985
2.0019836728465705
-0.43945983062485694
-1.0254062714579995
1.2207217517357138
0.04882887006942855
-1.513694972152285
0.34180209048599985
0.537117570763714
-1.3183794918745708
-0.43945983062485694
0.7324330510414282
-0.7324330510414282
-0.9277485313191425
0.43945983062485694
-0.14648661020828566
-1.1230640115968566
0.04882887006942855
0.14648661020828566
-0.9277485313191425
-0.43945983062485694
0.24414435034714274
-0.537117570763714
-0.7324330510414282
0.14648661020828566
-0.24414435034714274
-0.8300907911802854
-0.04882887006942855
0.04882887006942855
-0.7324330510414282
-0.43945983062485694
0.04882887006942855
-0.537117570763714
-0.537117570763714
0.04882887006942855
-0.24414435034714274
-0.6347753109025711
-0.14648661020828566
-0.04882887006942855
-0.537117570763714
-0.34180209048599985
-0.04882887006942855
-0.34180209048599985
-0.43945983062485694
-0.14648661020828566
-0.24414435034714274
-0.43945983062485694
-0.24414435034714274
-0.14648661020828566
-0.43945983062485694
-0.34180209048599985
-0.14648661020828566
-0.34180209048599985
-0.34180209048599985
-0.14648661020828566
-66.16311894407569
-286.38132295719845
-539.0218966964218
-608.554207675288
-490.8766308079652
-325.639734493019
-212.64972915236135
-154.15274280918592
-110.20675974670024
-77.78439002059967
-62.745098039215684
-46.533913176165406
-28.369573510337986
-22.90074006256199
-19.971007858396277
-10.10757610437171
-6.494239719233997
-8.545052262149996
-4.052796215762569
-0.24414435034714274
-3.466849774929427
-2.8809033340962844
1.3183794918745708
-0.24414435034714274
-2.0996414129854277
1.416037232013428
1.6113527122911422
-1.3183794918745708
0.14648661020828566
1.9043259327077133
-0.43945983062485694
-0.34180209048599985
2.0019836728465705
0.9277485313191425
-0.24414435034714274
1.3183794918745708
1.1230640115968566
-0.6347753109025711
0.34180209048599985
1.513694972152285
0.04882887006942855
0.24414435034714274
1.7090104524299992
0.6347753109025711
-0.34180209048599985
0.7324330510414282
0.9277485313191425
-0.04882887006942855
0.6347753109025711
41.74868390936141
171.9264515144579
342.72983901731897
466.85282673380635
501.61898222323947
440.77821011673154
332.2804608224613
230.0328068970779
154.6410315098802
110.9880216678111
84.42511635004196
60.2059967956054
42.92057679102769
33.74074921797513
23.87731746395056
15.088120851453422
12.549019607843137
10.009918364232853
5.127031357289998
3.9551384756237127
4.541084916456855
1.8066681925688564
0.43945983062485694
1.9043259327077133
0.9277485313191425
-0.6347753109025711
0.43945983062485694
0.8300907911802854
-0.7324330510414282
-0.34180209048599985
0.6347753109025711
-0.43945983062485694
-0.8300907911802854
0.24414435034714274
-0.04882887006942855
-0.9277485313191425
-0.04882887006942855
0.14648661020828566
-0.7324330510414282
-0.43945983062485694
0.14648661020828566
-0.43945983062485694
-0.6347753109025711
0.04882887006942855
-0.14648661020828566
-0.7324330510414282
-0.14648661020828566
0.04882887006942855
-0.6347753109025711
-0.43945983062485694
-0.04882887006942855
-0.43945983062485694
-0.537117570763714
-0.04882887006942855
-0.24414435034714274
-0.537117570763714
-0.24414435034714274
-0.04882887006942855
-0.43945983062485694
-0.34180209048599985
-0.04882887006942855
-0.34180209048599985
-0.43945983062485694
-0.14648661020828566
-0.24414435034714274
-0.43945983062485694
-0.24414435034714274
-0.14648661020828566
-0.43945983062485694
-0.34180209048599985
-0.14648661020828566
-0.34180209048599985
-0.34180209048599985
-0.14648661020828566
-0.24414435034714274
-0.43945983062485694
-0.24414435034714274
-0.24414435034714274
-0.34180209048599985
-0.34180209048599985
-0.24414435034714274
-0.34180209048599985
-0.34180209048599985
-0.24414435034714274
-28.66254673075456
-170.1686121919585
-423.78576333257035
-597.5188830395972
-560.4089417868315
-402.1057450217441
-257.962920576791
-176.5163653009842
-130.03128099488822
-91.65178912031739
-68.31158922713054
-54.639505607690545
-36.475165941863125
-23.48668650339513
-21.14290074006256
-15.381094071869994
-7.470817120622568
-7.568474860761425
-7.275501640344854
-1.7090104524299992
-0.9277485313191425
-3.36919203479057
-0.6347753109025711
1.0254062714579995
-1.6113527122911422
-0.8300907911802854
1.8066681925688564
0.14648661020828566
-0.8300907911802854
1.6113527122911422
1.2207217517357138
-0.9277485313191425
0.34180209048599985
1.513694972152285
-0.14648661020828566
0.24414435034714274
2.0019836728465705
0.8300907911802854
-0.14648661020828566
1.0254062714579995
0.7324330510414282
-0.34180209048599985
0.537117570763714
1.3183794918745708
0.43945983062485694
0.6347753109025711
1.3183794918745708
0.34180209048599985
-0.04882887006942855
67.82330052643626
290.2876325627527
542.244602121004
609.23781185626
489.21644922560466
323.19829098954756
211.38017853055618
154.05508506904707
109.8161287861448
77.68673228046082
63.42870222018769
46.72922865644312
27.97894254978256
22.998397802700847
20.263981078812847
9.912260624093996
6.6895551995117115
9.326314183260854
4.443427176317998
0.24414435034714274
3.8574807354848555
3.076218814373999
-1.416037232013428
0.6347753109025711
2.5879301136797133
-1.1230640115968566
-1.1230640115968566
1.8066681925688564
-0.04882887006942855
-1.9043259327077133
0.7324330510414282
0.6347753109025711
-1.7090104524299992
-0.24414435034714274
1.0254062714579995
-1.1230640115968566
-1.0254062714579995
0.8300907911802854
-0.24414435034714274
-1.416037232013428
0.24414435034714274
0.24414435034714274
-1.2207217517357138
-0.24414435034714274
0.43945983062485694
-0.9277485313191425
-0.8300907911802854
0.34180209048599985
-0.34180209048599985
-1.0254062714579995
0.04882887006942855
0.04882887006942855
-0.8300907911802854
-0.24414435034714274
0.14648661020828566
-0.6347753109025711
-0.537117570763714
0.04882887006942855
-0.34180209048599985
-0.7324330510414282
-0.04882887006942855
-0.04882887006942855
-0.6347753109025711
-0.24414435034714274
0.04882887006942855
-0.537117570763714
-0.43945983062485694
0.04882887006942855
-0.24414435034714274
-0.537117570763714
-0.14648661020828566
-0.14648661020828566
-0.537117570763714
-0.24414435034714274
-0.04882887006942855
-0.43945983062485694
-0.34180209048599985
-0.14648661020828566
-0.34180209048599985
-0.43945983062485694
-0.14648661020828566
-15.381094071869994
-124.36713206683451
-367.2419317921721
-577.5967040512703
-583.6514839398794
-438.9227130540932
-284.4281681544213
-190.38376440070192
-139.79705500877392
-98.87846189059282
-71.72961013199054
-58.057526512550545
-40.67444876783398
-25.342183566033416
-22.021820401312276
-17.334248874647134
-8.154421301594567
-6.884870679789426
-7.861448081177996
-2.490272373540856
-0.6347753109025711
-3.8574807354848555
-1.8066681925688564
1.2207217517357138
-1.1230640115968566
-1.416037232013428
1.9043259327077133
0.8300907911802854
-1.2207217517357138
0.9277485313191425
1.513694972152285
-0.8300907911802854
0.04882887006942855
1.8066681925688564
0.24414435034714274
-0.04882887006942855
1.6113527122911422
0.8300907911802854
-0.43945983062485694
0.9277485313191425
1.2207217517357138
-0.04882887006942855
0.537117570763714
1.513694972152285
0.24414435034714274
-0.04882887006942855
1.0254062714579995
0.6347753109025711
-0.04882887006942855
17.627222095063708
77.4914168001831
161.08644235904478
237.84542610818647
279.838254367895
207.2785534447242
11.181811245899137
-165.3833829251545
-220.65766384374763
-182.18051422903793
-120.85145342183566
-82.56961928740368
-59.62005035477226
-38.23300526436255
-28.760204470893417
-25.732814526588847
-15.674067292286564
-8.545052262149996
-10.009918364232853
-6.982528419928283
-1.513694972152285
-3.2715342946517127
-4.150453955901427
0.24414435034714274
58.25284199282826
259.1348134584573
514.8027771419852
607.870603494316
504.06042572671095
340.97199969481954
223.8803692683299
158.64499885557336
113.13649195086595
82.17898832684826
65.08888380254825
47.21751735713741
30.420386053253985
24.267948424505988
19.48271915770199
10.79118028534371
7.959105821316854
8.642710002288853
4.345769436179141
1.513694972152285
3.5645075150682843
2.2949568932631417
-0.6347753109025711
0.8300907911802854
1.7090104524299992
-0.8300907911802854
-0.537117570763714
1.2207217517357138
-0.24414435034714274
-1.2207217517357138
0.537117570763714
0.14648661020828566
-1.3183794918745708
-0.04882887006942855
0.537117570763714
-0.9277485313191425
-0.6347753109025711
0.43945983062485694
-0.43945983062485694
-0.9277485313191425
0.14648661020828566
0.04882887006942855
-0.9277485313191425
-0.24414435034714274
0.14648661020828566
-0.6347753109025711
-0.537117570763714
0.14648661020828566
-0.34180209048599985
-0.7324330510414282
0.04882887006942855
-0.14648661020828566
-0.7324330510414282
-0.24414435034714274
0.04882887006942855
-0.537117570763714
-0.43945983062485694
0.04882887006942855
-55.03013656824598
-252.00579842832076
-504.6463721675441
-605.3315022507057
-511.97070267795834
-348.49164568551157
-225.9311818112459
-160.5981536583505
-115.87090867475395
-81.88601510643167
-64.79591058213168
-49.365987640192266
-30.811017013809415
-23.096055542839704
-20.361638818951704
-11.377126726176853
-6.39658197909514
-8.349736781872283
-5.224689097428855
-0.7324330510414282
-2.8809033340962844
-3.1738765545128556
0.8300907911802854
0.24414435034714274
-1.8066681925688564
0.6347753109025711
1.513694972152285
-1.1230640115968566
-0.14648661020828566
1.8066681925688564
0.04882887006942855
-0.34180209048599985
1.7090104524299992
0.9277485313191425
-0.6347753109025711
0.7324330510414282
1.3183794918745708
-0.24414435034714274
0.24414435034714274
1.6113527122911422
0.43945983062485694
0.04882887006942855
1.2207217517357138
0.7324330510414282
-0.14648661020828566
0.7324330510414282
1.1230640115968566
0.24414435034714274
0.537117570763714
29.63912413214313
167.72716868848707
415.68017090104524
590.1945525291828
560.2136263065538
406.8909742885481
263.6270695048447
179.9343862058442
131.2031738765545
93.01899748226138
69.87411306935225
55.22545204852369
37.256427862973986
24.853894865339132
21.63118944075685
15.283436331731137
7.959105821316854
7.861448081177996
7.177843900205997
2.197299153124285
1.8066681925688564
3.662165255207141
0.8300907911802854
-0.6347753109025711
1.7090104524299992
0.8300907911802854
-1.3183794918745708
0.24414435034714274
1.0254062714579995
-1.0254062714579995
-0.6347753109025711
0.8300907911802854
-0.43945983062485694
-1.2207217517357138
0.34180209048599985
0.04882887006942855
-1.2207217517357138
-0.14648661020828566
0.34180209048599985
-0.8300907911802854
-0.6347753109025711
0.34180209048599985
-0.43945983062485694
-0.8300907911802854
0.04882887006942855
-0.04882887006942855
-0.8300907911802854
-0.14648661020828566
0.04882887006942855
-0.6347753109025711
-0.43945983062485694
0.04882887006942855
-0.34180209048599985
-0.6347753109025711
0.04882887006942855
-0.14648661020828566
-0.6347753109025711
-0.24414435034714274
-0.04882887006942855
-0.537117570763714
-0.43945983062485694
-0.04882887006942855
-0.34180209048599985
-0.537117570763714
-0.14648661020828566
-0.24414435034714274
-0.537117570763714
-0.24414435034714274
-0.14648661020828566
-0.43945983062485694
-0.43945983062485694
-0.24414435034714274
-0.43945983062485694
-0.43945983062485694
-0.24414435034714274
-0.24414435034714274
-0.43945983062485694
-0.24414435034714274
-26.416418707560844
-163.7232013427939
-417.3403524834058
-596.7376211184863
-564.6082246128024
-406.8909742885481
-260.59967956054015
-177.39528496223392
-130.71488517586022
-92.14007782101167
-68.60456244754711
-55.32310978866255
-37.35408560311284
-23.974975204089418
-21.338216220340275
-15.47875181200885
-7.080186160067139
-6.982528419928283
-7.373159380483711
-2.0019836728465705
-1.2207217517357138
-3.8574807354848555
-0.8300907911802854
1.3183794918745708
-1.2207217517357138
-0.7324330510414282
1.9043259327077133
0.04882887006942855
-1.2207217517357138
1.2207217517357138
1.2207217517357138
-0.6347753109025711
0.7324330510414282
1.9043259327077133
-0.14648661020828566
-0.04882887006942855
1.416037232013428
0.34180209048599985
-0.24414435034714274
1.3183794918745708
1.3183794918745708
0.04882887006942855
0.6347753109025711
1.3183794918745708
0.14648661020828566
0.24414435034714274
1.2207217517357138
19.775692378118563
103.4683756771191
236.77119096665905
334.81956206607157
392.8282597085527
434.9187457084001
420.85603112840465
339.995422293431
237.25947966735333
157.76607919432365
113.9177538719768
84.42511635004196
58.54581521324483
44.09246967269398
35.010299839780274
22.60776684214542
15.185778591592278
14.013885709925994
9.326314183260854
4.345769436179141
5.224689097428855
4.541084916456855
0.7324330510414282
1.1230640115968566
2.490272373540856
0.04882887006942855
-0.6347753109025711
1.2207217517357138
0.34180209048599985
-1.2207217517357138
0.24414435034714274
0.6347753109025711
-1.0254062714579995
-0.43945983062485694
0.6347753109025711
-0.6347753109025711
-0.9277485313191425
0.34180209048599985
-0.04882887006942855
-1.0254062714579995
-0.04882887006942855
0.14648661020828566
-0.8300907911802854
-0.43945983062485694
0.14648661020828566
-0.537117570763714
-0.8300907911802854
0.04882887006942855
-0.14648661020828566
-0.7324330510414282
-0.14648661020828566
0.04882887006942855
-0.6347753109025711
-0.43945983062485694
0.04882887006942855
-0.43945983062485694
-0.537117570763714
-0.04882887006942855
-0.24414435034714274
-0.537117570763714
-0.14648661020828566
-0.04882887006942855
-0.537117570763714
-0.34180209048599985
-0.04882887006942855
-0.34180209048599985
-0.43945983062485694
-0.14648661020828566
-0.24414435034714274
-0.43945983062485694
-0.24414435034714274
-0.14648661020828566
-0.43945983062485694
-0.34180209048599985
-0.14648661020828566
-0.34180209048599985
-0.34180209048599985
-0.14648661020828566
-0.24414435034714274
-0.43945983062485694
-4.248111696040284
-69.87411306935225
-272.1232928969253
-514.1191729610132
-598.6907759212635
-498.5915922789349
-338.43289845120927
-220.65766384374763
-157.08247501335165
-113.13649195086595
-80.32349126420996
-63.233386739909974
-47.60814831769284
-30.127412832837415
-22.803082322423133
-19.48271915770199
-10.986495765621424
-6.494239719233997
-7.861448081177996
-4.736400396734569
-0.9277485313191425
-2.8809033340962844
-2.8809033340962844
0.537117570763714
0.04882887006942855
-1.513694972152285
0.8300907911802854
1.3183794918745708
-1.0254062714579995
-0.04882887006942855
1.513694972152285
-0.14648661020828566
-0.34180209048599985
1.6113527122911422
0.9277485313191425
-0.34180209048599985
0.8300907911802854
1.1230640115968566
-0.14648661020828566
0.43945983062485694
1.6113527122911422
0.537117570763714
0.14648661020828566
1.1230640115968566
0.537117570763714
-0.14648661020828566
0.6347753109025711
0.9277485313191425
0.04882887006942855
0.43945983062485694
1.1230640115968566
0.34180209048599985
9.521629663538567
106.69108110170139
349.3705653467613
575.6435492484932
594.9797817959869
451.7158770122835
291.8501564049744
194.09475852597848
143.41039139391165
101.31990539406424
72.99916075379568
60.108339055466544
42.43228809033341
25.537499046311133
22.412451361867703
18.40848401617456
8.349736781872283
6.884870679789426
8.838025482566568
3.1738765545128556
0.43945983062485694
4.150453955901427
2.197299153124285
-1.513694972152285
1.2207217517357138
2.197299153124285
-1.513694972152285
-0.6347753109025711
1.8066681925688564
-0.6347753109025711
-1.6113527122911422
1.1230640115968566
0.24414435034714274
-1.8066681925688564
0.04882887006942855
0.8300907911802854
-1.3183794918745708
-0.7324330510414282
0.8300907911802854
-0.6347753109025711
-1.2207217517357138
0.43945983062485694
0.04882887006942855
-1.2207217517357138
-0.04882887006942855
0.34180209048599985
-0.9277485313191425
-0.537117570763714
0.34180209048599985
-20.263981078812847
-118.01937895780881
-285.89303425650417
-387.84771496147096
-358.1597619592584
-261.1856260013733
-91.8471046005951
147.02372777904935
318.02243076218815
327.5928892957961
231.00938429846647
137.55092698558022
96.72999160753795
73.09681849393453
45.947966735332265
36.475165941863125
33.93606469825284
18.60379949645228
10.205233844510566
14.50217441062028
9.033340962844282
0.8300907911802854
5.127031357289998
6.005951018539712
-1.3183794918745708
0.04882887006942855
4.345769436179141
-0.537117570763714
-2.392614633401999
2.5879301136797133
0.9277485313191425
-2.8809033340962844
-23.389028763256274
-154.93400473029678
-412.75043869687954
-597.0305943389029
-566.0730907148852
-411.4808880750744
-264.7013046463722
-177.1999694819562
-131.30083161669336
-94.87449454489968
-68.50690470740825
-54.346532387273975
-38.818951705195694
-24.267948424505988
-19.87335011825742
-16.16235599298085
-8.349736781872283
-6.201266498817426
-7.177843900205997
-3.076218814373999
-0.537117570763714
-2.783245593957427
-1.7090104524299992
1.0254062714579995
-0.537117570763714
-1.3183794918745708
1.1230640115968566
0.8300907911802854
-0.8300907911802854
0.8300907911802854
1.7090104524299992
-0.24414435034714274
0.04882887006942855
1.416037232013428
0.34180209048599985
-0.14648661020828566
1.3183794918745708
0.9277485313191425
-0.24414435034714274
0.6347753109025711
1.1230640115968566
0.04882887006942855
0.24414435034714274
1.2207217517357138
0.6347753109025711
0.14648661020828566
1.0254062714579995
15.967040512703136
87.06187533379111
222.3178454261082
369.390402075227
478.1811245899138
499.0798809796292
418.3169298847944
298.1002517738613
198.58701457236592
136.86732280460822
101.71053635461966
74.36636911573969
53.36995498588541
40.86976424811169
29.834439612420844
19.678034637979707
14.990463111314565
12.060730907148852
7.177843900205997
4.931715877012284
4.931715877012284
2.8809033340962844
1.0254062714579995
1.8066681925688564
1.416037232013428
-0.14648661020828566
0.24414435034714274
0.8300907911802854
-0.34180209048599985
-0.537117570763714
0.34180209048599985
-0.14648661020828566
-0.8300907911802854
0.04882887006942855
0.04882887006942855
-0.7324330510414282
-0.34180209048599985
0.04882887006942855
-0.537117570763714
-0.537117570763714
0.04882887006942855
-0.24414435034714274
-0.6347753109025711
