ecg
6.6895551995117115
5.420004577706569
2.0019836728465705
1.8066681925688564
2.5879301136797133
0.43945983062485694
-0.24414435034714274
1.1230640115968566
0.34180209048599985
-0.9277485313191425
0.24414435034714274
0.43945983062485694
-0.8300907911802854
-0.34180209048599985
0.43945983062485694
-0.537117570763714
-0.7324330510414282
0.14648661020828566
-0.14648661020828566
-0.8300907911802854
-0.04882887006942855
0.04882887006942855
-0.7324330510414282
-0.43945983062485694
0.04882887006942855
-0.43945983062485694
-0.6347753109025711
-0.04882887006942855
-0.24414435034714274
-0.7324330510414282
-0.14648661020828566
-0.04882887006942855
-0.537117570763714
-0.34180209048599985
-0.04882887006942855
-0.34180209048599985
-0.537117570763714
-0.04882887006942855
-0.24414435034714274
-0.537117570763714
-0.24414435034714274
-0.14648661020828566
-0.43945983062485694
-0.34180209048599985
-0.14648661020828566
-0.34180209048599985
-0.43945983062485694
-0.14648661020828566
-0.24414435034714274
-0.43945983062485694
-0.24414435034714274
-0.24414435034714274
-0.43945983062485694
-0.34180209048599985
-0.24414435034714274
-0.34180209048599985
-60.8896009765774
-269.4865339131762
-522.5177386129549
-607.0893415732052
-500.74006256198976
-336.67505912870985
-219.2904554818036
-157.37544823376822
-113.03883421072709
-80.12817578393225
-63.91699092088197
-47.60814831769284
-29.443808651865414
-22.90074006256199
-19.87335011825742
-10.79118028534371
-6.787212939650568
-8.642710002288853
-4.541084916456855
-0.34180209048599985
-2.9785610742351416
-2.8809033340962844
1.0254062714579995
-0.04882887006942855
-2.0019836728465705
0.9277485313191425
1.513694972152285
-1.0254062714579995
0.14648661020828566
1.9043259327077133
-0.14648661020828566
-0.34180209048599985
1.7090104524299992
0.6347753109025711
-0.537117570763714
1.1230640115968566
1.3183794918745708
-0.24414435034714274
0.43945983062485694
1.513694972152285
0.14648661020828566
0.04882887006942855
1.513694972152285
0.7324330510414282
-0.14648661020828566
0.8300907911802854
1.0254062714579995
0.14648661020828566
0.6347753109025711
32.56885633630884
168.1177996490425
397.71114671549554
564.2175936522469
551.9127183947509
417.1450370031281
278.08041504539557
188.72358281834136
134.71885252155337
96.53467612726024
72.60852979324025
55.713740749217976
38.525978484779124
26.807049668116274
21.63118944075685
15.185778591592278
9.130998702983138
8.05676356145571
6.494239719233997
2.783245593957427
2.2949568932631417
2.9785610742351416
0.9277485313191425
0.04882887006942855
1.3183794918745708
0.537117570763714
-0.7324330510414282
0.24414435034714274
0.537117570763714
-0.7324330510414282
-0.34180209048599985
0.43945983062485694
-0.43945983062485694
-0.7324330510414282
0.14648661020828566
-0.04882887006942855
-0.8300907911802854
-0.14648661020828566
0.04882887006942855
-0.7324330510414282
-0.43945983062485694
0.04882887006942855
-0.43945983062485694
-0.6347753109025711
0.04882887006942855
-0.14648661020828566
-0.6347753109025711
-0.14648661020828566
-0.04882887006942855
-0.537117570763714
-0.34180209048599985
-0.04882887006942855
-0.34180209048599985
-0.537117570763714
-0.04882887006942855
-0.24414435034714274
-0.537117570763714
-0.24414435034714274
-0.14648661020828566
-0.43945983062485694
-0.34180209048599985
-0.14648661020828566
-0.43945983062485694
-0.537117570763714
-0.24414435034714274
-0.24414435034714274
-0.43945983062485694
-0.24414435034714274
-0.24414435034714274
-0.34180209048599985
-0.34180209048599985
-0.24414435034714274
-0.34180209048599985
-0.34180209048599985
-0.24414435034714274
-0.24414435034714274
-0.34180209048599985
-4.834058136873426
-69.48348210879682
-266.7521171892882
-506.99015793087665
-596.7376211184863
-501.5213244831006
-342.2415503166247
-223.0014496070802
-158.05905241474022
-114.30838483253224
-81.39772640573739
-63.6240177004654
-47.90112153810941
-30.518043793392845
-22.803082322423133
-19.58037689784085
-11.47478446631571
-6.884870679789426
-8.05676356145571
-4.931715877012284
-0.9277485313191425
-2.490272373540856
-2.68558785381857
0.43945983062485694
-0.04882887006942855
-1.8066681925688564
0.34180209048599985
1.2207217517357138
-0.7324330510414282
0.04882887006942855
1.6113527122911422
0.04882887006942855
-0.43945983062485694
1.3183794918745708
0.8300907911802854
-0.34180209048599985
0.9277485313191425
1.3183794918745708
-0.04882887006942855
0.24414435034714274
1.2207217517357138
0.24414435034714274
0.04882887006942855
1.1230640115968566
0.7324330510414282
0.04882887006942855
0.8300907911802854
1.0254062714579995
0.04882887006942855
0.34180209048599985
1.0254062714579995
35.889219501029984
192.14160372320134
446.3447013046464
600.1556420233463
547.4204623483635
388.2383459220264
250.0526436255436
172.12176699473565
126.22262912947281
89.60097657740138
67.53032730601969
53.17463950560769
35.49858854047456
23.87731746395056
20.84992751964599
14.50217441062028
7.470817120622568
7.666132600900283
6.884870679789426
2.0019836728465705
1.8066681925688564
3.5645075150682843
0.6347753109025711
-0.537117570763714
1.7090104524299992
0.7324330510414282
-1.3183794918745708
0.24414435034714274
0.9277485313191425
-1.1230640115968566
-0.6347753109025711
0.8300907911802854
-0.537117570763714
-1.2207217517357138
0.34180209048599985
0.04882887006942855
-1.2207217517357138
-0.04882887006942855
0.24414435034714274
-0.9277485313191425
-0.537117570763714
0.34180209048599985
-0.537117570763714
-0.8300907911802854
0.14648661020828566
-0.04882887006942855
-0.8300907911802854
-0.14648661020828566
0.04882887006942855
-0.6347753109025711
-0.43945983062485694
0.04882887006942855
-0.43945983062485694
-0.6347753109025711
0.04882887006942855
-0.14648661020828566
-0.6347753109025711
-0.24414435034714274
-0.14648661020828566
-0.6347753109025711
-0.43945983062485694
-0.04882887006942855
-0.34180209048599985
-0.537117570763714
-0.14648661020828566
-0.24414435034714274
-0.537117570763714
-0.24414435034714274
-0.14648661020828566
-0.43945983062485694
-0.34180209048599985
-0.14648661020828566
-35.010299839780274
-189.79781795986878
-443.02433813992525
-599.4720378423743
-549.080643930724
-389.41023880369266
-250.2479591058213
-172.61005569542993
-126.51560234988938
-89.21034561684596
-67.43266956588083
-53.36995498588541
-35.20561532005799
-23.58434424353399
-21.045242999923705
-14.306858930342566
-7.177843900205997
-7.666132600900283
-6.6895551995117115
-1.513694972152285
-1.7090104524299992
-3.5645075150682843
-0.24414435034714274
0.9277485313191425
-1.513694972152285
-0.34180209048599985
1.8066681925688564
-0.14648661020828566
-0.7324330510414282
1.6113527122911422
0.9277485313191425
-0.6347753109025711
0.9277485313191425
1.513694972152285
-0.24414435034714274
0.14648661020828566
1.513694972152285
0.24414435034714274
-0.04882887006942855
1.3183794918745708
0.8300907911802854
-0.04882887006942855
0.8300907911802854
1.1230640115968566
0.04882887006942855
0.34180209048599985
1.2207217517357138
0.34180209048599985
0.04882887006942855
1.0254062714579995
0.7324330510414282
9.912260624093996
102.00350957503625
332.475776302739
557.0885786221103
591.9523918516823
462.0675974670024
303.764400701915
200.83314259555962
146.63309681849393
104.44495307850767
74.95231555657283
60.59662775616083
43.70183871213855
26.90470740825513
22.412451361867703
18.701457236591136
9.326314183260854
6.884870679789426
8.642710002288853
3.8574807354848555
0.7324330510414282
3.662165255207141
2.392614633401999
-1.1230640115968566
0.8300907911802854
2.0019836728465705
-1.1230640115968566
-0.7324330510414282
1.6113527122911422
-0.34180209048599985
-1.6113527122911422
0.6347753109025711
0.24414435034714274
-1.6113527122911422
-0.04882887006942855
0.7324330510414282
-1.1230640115968566
-0.8300907911802854
0.6347753109025711
-0.43945983062485694
-1.1230640115968566
0.24414435034714274
0.04882887006942855
-1.1230640115968566
-0.14648661020828566
0.34180209048599985
-0.8300907911802854
-0.6347753109025711
0.24414435034714274
-0.34180209048599985
-0.8300907911802854
0.04882887006942855
-0.04882887006942855
-0.8300907911802854
-0.24414435034714274
0.04882887006942855
-0.6347753109025711
-0.537117570763714
0.04882887006942855
-0.34180209048599985
-0.6347753109025711
-0.04882887006942855
-0.14648661020828566
-0.6347753109025711
-0.24414435034714274
-0.04882887006942855
-0.537117570763714
-0.43945983062485694
-0.04882887006942855
-0.34180209048599985
-0.537117570763714
-0.14648661020828566
-0.14648661020828566
-0.43945983062485694
-0.24414435034714274
-0.14648661020828566
-8.545052262149996
-86.1829556725414
-295.36583504997327
-526.1310749980926
-592.2453650720989
-483.5523002975509
-326.2256809338521
-214.1145952544442
-152.78553444724193
-109.71847104600594
-78.85862516212711
-62.061493858243686
-45.75265125505455
-29.150835431448844
-22.60776684214542
-18.701457236591136
-10.400549324788281
-6.884870679789426
-7.861448081177996
-4.248111696040284
-1.0254062714579995
-2.9785610742351416
-2.2949568932631417
0.7324330510414282
-0.14648661020828566
-1.416037232013428
0.9277485313191425
1.0254062714579995
-0.9277485313191425
0.14648661020828566
1.513694972152285
0.04882887006942855
0.04882887006942855
1.6113527122911422
0.6347753109025711
-0.34180209048599985
0.9277485313191425
0.9277485313191425
-0.24414435034714274
0.43945983062485694
1.416037232013428
0.43945983062485694
0.34180209048599985
1.1230640115968566
0.537117570763714
-0.04882887006942855
0.6347753109025711
0.8300907911802854
0.34180209048599985
0.8300907911802854
10.498207064927138
76.71015487907225
257.279316395819
484.82185091935605
585.7022964827954
506.11123826962694
352.983901731899
230.22812237735562
160.20752269779507
116.84748607614252
84.03448538948653
63.72167544060426
48.584725719081405
32.6665140764477
23.19371328297856
19.18974593728542
12.84199282825971
7.666132600900283
7.373159380483711
5.615320057984283
2.0019836728465705
2.197299153124285
2.783245593957427
0.34180209048599985
-0.04882887006942855
1.3183794918745708
0.24414435034714274
-0.8300907911802854
0.34180209048599985
0.34180209048599985
-0.9277485313191425
-0.24414435034714274
0.43945983062485694
-0.6347753109025711
-0.6347753109025711
0.24414435034714274
-0.24414435034714274
-0.8300907911802854
0.04882887006942855
0.04882887006942855
-0.8300907911802854
-0.34180209048599985
0.04882887006942855
-0.537117570763714
-0.537117570763714
0.04882887006942855
-0.34180209048599985
-0.7324330510414282
-0.14648661020828566
-0.04882887006942855
-0.6347753109025711
-0.34180209048599985
-0.04882887006942855
-0.43945983062485694
-0.43945983062485694
-0.04882887006942855
-0.24414435034714274
-0.537117570763714
-0.14648661020828566
-0.14648661020828566
-0.43945983062485694
-0.24414435034714274
-0.14648661020828566
-0.43945983062485694
-0.43945983062485694
-0.14648661020828566
-0.24414435034714274
-0.43945983062485694
-0.24414435034714274
-0.14648661020828566
-0.43945983062485694
-0.34180209048599985
-20.654612039368278
-145.75417715724421
-399.5666437781338
-595.2727550164035
-575.5458915083543
-418.5122453650721
-267.1427481498436
-180.52033264667736
-133.93759060044252
-94.67917906462196
-69.67879758907453
-56.690318150606544
-38.72129396505684
-23.974975204089418
-21.045242999923705
-15.869382772564279
-7.275501640344854
-7.177843900205997
-8.05676356145571
-2.2949568932631417
-0.8300907911802854
-3.7598229953459983
-0.8300907911802854
2.0019836728465705
-1.0254062714579995
-1.3183794918745708
1.7090104524299992
0.24414435034714274
-1.3183794918745708
1.3183794918745708
1.8066681925688564
-0.43945983062485694
0.43945983062485694
1.513694972152285
-0.43945983062485694
-0.43945983062485694
1.513694972152285
0.7324330510414282
0.04882887006942855
1.6113527122911422
1.3183794918745708
-0.34180209048599985
0.24414435034714274
1.0254062714579995
-0.14648661020828566
0.04882887006942855
1.513694972152285
1.0254062714579995
0.04882887006942855
0.6347753109025711
0.6347753109025711
-0.14648661020828566
38.62363622491798
201.51674677653162
454.2549782558938
600.4486152437629
542.928206301976
382.378881513695
245.9510185397116
170.85221637293049
125.05073624780651
87.94079499504082
67.23735408560312
53.17463950560769
34.61966887922484
23.58434424353399
21.338216220340275
14.11154345006485
7.080186160067139
8.154421301594567
6.787212939650568
1.416037232013428
2.0019836728465705
3.7598229953459983
0.24414435034714274
-0.6347753109025711
2.0019836728465705
0.537117570763714
-1.6113527122911422
0.6347753109025711
1.0254062714579995
-1.416037232013428
-0.43945983062485694
1.0254062714579995
-0.7324330510414282
-1.1230640115968566
0.6347753109025711
-0.04882887006942855
-1.3183794918745708
0.04882887006942855
0.34180209048599985
-1.1230640115968566
-0.537117570763714
0.34180209048599985
-0.6347753109025711
-0.8300907911802854
0.24414435034714274
-0.14648661020828566
-0.9277485313191425
-0.04882887006942855
0.04882887006942855
-0.8300907911802854
-0.34180209048599985
0.14648661020828566
-0.537117570763714
-0.6347753109025711
0.04882887006942855
-0.24414435034714274
-0.7324330510414282
-0.14648661020828566
-0.04882887006942855
-0.6347753109025711
-0.34180209048599985
0.04882887006942855
-0.43945983062485694
-0.43945983062485694
-0.04882887006942855
-0.24414435034714274
-0.537117570763714
-0.24414435034714274
-0.24414435034714274
-0.537117570763714
-0.34180209048599985
-0.14648661020828566
-0.43945983062485694
-0.43945983062485694
-0.14648661020828566
-0.24414435034714274
-18.310826276035705
-130.12893873502708
-367.9255359731441
-571.0536354619669
-577.8896772716869
-437.7508201724269
-285.89303425650417
-191.26268406195163
-139.4064240482185
-99.46440833142596
-72.99916075379568
-58.25284199282826
-40.772106507972836
-25.92813000686656
-21.63118944075685
-16.55298695353628
-8.44739452201114
-7.275501640344854
-7.861448081177996
-3.076218814373999
-1.2207217517357138
-3.36919203479057
-1.0254062714579995
1.6113527122911422
-0.8300907911802854
-1.416037232013428
1.1230640115968566
0.24414435034714274
-1.1230640115968566
1.0254062714579995
1.7090104524299992
-0.24414435034714274
0.24414435034714274
1.416037232013428
0.04882887006942855
-0.14648661020828566
1.416037232013428
0.8300907911802854
0.04882887006942855
1.2207217517357138
1.1230640115968566
-0.24414435034714274
0.14648661020828566
1.0254062714579995
0.14648661020828566
0.14648661020828566
1.416037232013428
1.0254062714579995
0.04882887006942855
32.471198596169984
144.8752574959945
320.854505226215
485.31013962005034
542.8305485618372
463.23949034866865
329.1554131380179
219.68108644235903
150.24643320363165
109.52315556572823
81.49538414587624
59.62005035477226
43.79949645227741
32.178225375753414
22.705424582284277
16.260013733119706
12.353704127565424
8.642710002288853
5.810635538261997
4.541084916456855
3.2715342946517127
1.8066681925688564
1.416037232013428
1.2207217517357138
0.43945983062485694
0.04882887006942855
0.24414435034714274
0.04882887006942855
-0.24414435034714274
-0.04882887006942855
-0.04882887006942855
-0.34180209048599985
-0.24414435034714274
-0.04882887006942855
-0.34180209048599985
-0.34180209048599985
-0.14648661020828566
-0.24414435034714274
-0.43945983062485694
-0.24414435034714274
-0.24414435034714274
-0.43945983062485694
-0.24414435034714274
-0.14648661020828566
-0.34180209048599985
-0.34180209048599985
-0.14648661020828566
-0.24414435034714274
-0.34180209048599985
-0.24414435034714274
-0.34180209048599985
-0.43945983062485694
-0.34180209048599985
-0.24414435034714274
-0.34180209048599985
-0.34180209048599985
-0.24414435034714274
-0.24414435034714274
-0.34180209048599985
-0.24414435034714274
-0.24414435034714274
-0.34180209048599985
-0.34180209048599985
-0.24414435034714274
-0.34180209048599985
-0.34180209048599985
-0.24414435034714274
-0.34180209048599985
-0.34180209048599985
-0.24414435034714274
-0.24414435034714274
-61.475547417410546
-271.53734645609217
-524.470893415732
-607.2846570534829
-499.66582742046234
-335.30785076676585
-218.11856260013732
-156.59418631265737
-112.5505455100328
-79.93286030365454
-64.01464866102083
-47.80346379797055
-29.541466392004274
-22.998397802700847
-19.678034637979707
-10.302891584649425
-6.591897459372854
-8.74036774242771
-4.834058136873426
-0.6347753109025711
-3.1738765545128556
-2.68558785381857
1.513694972152285
0.24414435034714274
-2.0019836728465705
0.6347753109025711
1.1230640115968566
-1.3183794918745708
0.04882887006942855
2.0019836728465705
0.04882887006942855
-0.04882887006942855
1.8066681925688564
0.6347753109025711
-0.7324330510414282
0.9277485313191425
1.1230640115968566
-0.34180209048599985
0.7324330510414282
1.9043259327077133
0.24414435034714274
-0.14648661020828566
1.0254062714579995
0.43945983062485694
-0.24414435034714274
0.9277485313191425
1.416037232013428
0.34180209048599985
0.537117570763714
0.9277485313191425
3.7598229953459983
88.03845273517967
331.69451438162815
573.8857099259938
604.8432135500115
463.5324635690852
299.56511787594417
197.31746395056078
146.04715037766078
103.95666437781338
73.87808041504539
60.8896009765774
43.99481193255512
26.025787747005417
22.21713588158999
19.092088197146563
8.838025482566568
6.494239719233997
9.130998702983138
3.7598229953459983
0.14648661020828566
4.052796215762569
2.68558785381857
-1.6113527122911422
0.8300907911802854
2.490272373540856
-1.3183794918745708
-1.0254062714579995
1.9043259327077133
-0.34180209048599985
-1.8066681925688564
0.9277485313191425
0.537117570763714
-1.8066681925688564
-0.04882887006942855
0.9277485313191425
-1.3183794918745708
-1.0254062714579995
0.8300907911802854
-0.43945983062485694
-1.3183794918745708
0.34180209048599985
0.14648661020828566
-1.3183794918745708
-0.14648661020828566
0.43945983062485694
-0.9277485313191425
-0.7324330510414282
0.43945983062485694
-0.43945983062485694
-0.9277485313191425
0.04882887006942855
0.04882887006942855
-0.9277485313191425
-0.24414435034714274
0.14648661020828566
-0.6347753109025711
-0.537117570763714
0.04882887006942855
-0.34180209048599985
-0.6347753109025711
-0.04882887006942855
-0.14648661020828566
-0.7324330510414282
-0.34180209048599985
-0.04882887006942855
-0.537117570763714
-0.43945983062485694
0.04882887006942855
-0.34180209048599985
-0.537117570763714
-0.04882887006942855
-0.14648661020828566
-0.537117570763714
-0.24414435034714274
-1.416037232013428
-63.33104448004883
-268.8029297322042
-517.9278248264286
-604.2572671091783
-501.3260090028229
-338.3352407110704
-220.2670328831922
-157.47310597390708
-112.84351873044938
-79.93286030365454
-63.91699092088197
-48.09643701838712
-29.9320973525597
-23.096055542839704
-19.971007858396277
-10.79118028534371
-6.298924238956283
-8.154421301594567
-4.736400396734569
-0.8300907911802854
-3.1738765545128556
-2.9785610742351416
0.9277485313191425
0.04882887006942855
-1.6113527122911422
1.2207217517357138
1.513694972152285
-1.2207217517357138
-0.04882887006942855
1.7090104524299992
-0.14648661020828566
-0.34180209048599985
1.9043259327077133
1.0254062714579995
-0.43945983062485694
0.8300907911802854
1.0254062714579995
-0.537117570763714
0.24414435034714274
1.513694972152285
0.537117570763714
0.34180209048599985
1.416037232013428
0.537117570763714
-0.24414435034714274
0.7324330510414282
1.0254062714579995
0.14648661020828566
1.0254062714579995
1.7090104524299992
0.43945983062485694
18.017853055619135
128.2734416723888
359.7222858014801
561.6784924086367
576.9130998702983
443.51262684061953
291.9478141451133
195.26665140764476
141.84786755168994
100.83161669336995
73.58510719462882
58.936446173800256
41.651026169222554
26.416418707560844
22.21713588158999
17.43190661478599
8.935683222705425
7.373159380483711
8.05676356145571
3.2715342946517127
1.2207217517357138
3.662165255207141
1.8066681925688564
-0.9277485313191425
1.1230640115968566
1.513694972152285
-1.2207217517357138
-0.34180209048599985
1.3183794918745708
-0.6347753109025711
-1.2207217517357138
0.7324330510414282
0.04882887006942855
-1.416037232013428
0.04882887006942855
0.43945983062485694
-1.1230640115968566
-0.537117570763714
0.537117570763714
-0.537117570763714
-0.9277485313191425
0.24414435034714274
-0.04882887006942855
-1.0254062714579995
-0.04882887006942855
0.14648661020828566
-0.8300907911802854
-0.43945983062485694
0.14648661020828566
-0.537117570763714
-0.7324330510414282
0.04882887006942855
-0.24414435034714274
-0.7324330510414282
-0.14648661020828566
0.04882887006942855
-0.6347753109025711
-0.34180209048599985
0.04882887006942855
-0.43945983062485694
-0.537117570763714
-0.04882887006942855
-0.24414435034714274
-0.537117570763714
-0.24414435034714274
-0.04882887006942855
-0.43945983062485694
-0.34180209048599985
-0.04882887006942855
-0.34180209048599985
-0.43945983062485694
-0.14648661020828566
-0.24414435034714274
-0.43945983062485694
-17.52956435492485
-135.89074540321965
-389.89852750438695
-594.1008621347372
-580.8194094758526
-425.05531395437555
-271.7326619363699
-183.05943389028764
-135.69542992294194
-95.65575646601053
-69.67879758907453
-56.690318150606544
-38.91660944533455
-24.17029068436713
-21.728847180895706
-16.84596017395285
-7.470817120622568
-6.787212939650568
-7.861448081177996
-1.9043259327077133
-0.04882887006942855
-3.662165255207141
-1.513694972152285
1.3183794918745708
-1.416037232013428
-1.513694972152285
1.9043259327077133
0.8300907911802854
-1.0254062714579995
1.2207217517357138
1.3183794918745708
-1.1230640115968566
0.04882887006942855
1.8066681925688564
0.04882887006942855
-0.04882887006942855
1.9043259327077133
0.7324330510414282
-0.7324330510414282
0.7324330510414282
1.1230640115968566
-0.24414435034714274
0.43945983062485694
1.7090104524299992
0.537117570763714
0.04882887006942855
1.0254062714579995
0.34180209048599985
-0.24414435034714274
0.8300907911802854
49.56130312046998
232.2789349202716
485.8960860608835
604.3549248493172
523.2013427939269
361.187151903563
234.42740520332646
164.6997787441825
119.09361409933624
84.81574731059739
66.06546120393683
50.24490730144198
32.37354085603113
23.87731746395056
20.45929655909056
12.353704127565424
7.275501640344854
8.349736781872283
5.615320057984283
1.416037232013428
2.783245593957427
3.1738765545128556
-0.14648661020828566
0.04882887006942855
2.0019836728465705
-0.04882887006942855
-1.1230640115968566
0.9277485313191425
0.34180209048599985
-1.416037232013428
0.04882887006942855
0.6347753109025711
-1.0254062714579995
-0.6347753109025711
0.6347753109025711
-0.43945983062485694
-1.0254062714579995
0.24414435034714274
-0.04882887006942855
-1.1230640115968566
-0.14648661020828566
0.14648661020828566
-0.8300907911802854
-0.537117570763714
0.24414435034714274
-0.43945983062485694
-0.7324330510414282
0.04882887006942855
-0.14648661020828566
-0.8300907911802854
-0.14648661020828566
0.04882887006942855
-0.6347753109025711
-0.43945983062485694
0.04882887006942855
-0.34180209048599985
-0.537117570763714
-0.04882887006942855
-0.14648661020828566
-0.537117570763714
-0.24414435034714274
-0.04882887006942855
-0.43945983062485694
-0.34180209048599985
-0.04882887006942855
-0.43945983062485694
-0.537117570763714
-0.24414435034714274
-0.24414435034714274
-0.537117570763714
-0.24414435034714274
-18.21316853589685
-127.68749523155566
-358.74570840009153
-560.9948882276647
-576.424811169604
-443.6102845807584
-292.5337605859464
-195.46196688792247
-141.55489433127337
-100.7339589532311
-73.19447623407339
-58.1551842526894
-41.358052948805984
-26.709391927977418
-22.21713588158999
-17.334248874647134
-9.033340962844282
-7.177843900205997
-7.470817120622568
-2.783245593957427
-0.9277485313191425
-3.466849774929427
-1.8066681925688564
0.9277485313191425
-0.8300907911802854
-1.1230640115968566
1.6113527122911422
0.8300907911802854
-1.0254062714579995
0.6347753109025711
1.2207217517357138
-0.6347753109025711
0.04882887006942855
1.6113527122911422
0.34180209048599985
0.04882887006942855
1.416037232013428
0.6347753109025711
-0.43945983062485694
0.7324330510414282
1.2207217517357138
0.14648661020828566
0.7324330510414282
1.513694972152285
0.43945983062485694
0.04882887006942855
0.8300907911802854
0.43945983062485694
0.04882887006942855
0.8300907911802854
1.2207217517357138
0.43945983062485694
8.935683222705425
89.01503013656824
288.13916227969787
492.7321278706035
556.1120012207217
477.79049362935837
345.464255741207
236.96650644693676
166.7505912870985
116.16388189517052
84.62043183031967
66.45609216449226
47.31517509727627
31.592278934920273
25.537499046311133
19.287403677424276
10.888838025482567
8.935683222705425
8.545052262149996
3.8574807354848555
2.0996414129854277
3.8574807354848555
1.9043259327077133
-0.34180209048599985
1.3183794918745708
1.416037232013428
-0.9277485313191425
-0.14648661020828566
1.0254062714579995
-0.6347753109025711
-0.9277485313191425
0.6347753109025711
-0.04882887006942855
-1.2207217517357138
0.04882887006942855
0.24414435034714274
-1.0254062714579995
-0.43945983062485694
0.34180209048599985
-0.6347753109025711
-0.7324330510414282
0.24414435034714274
-0.24414435034714274
-0.8300907911802854
-0.04882887006942855
0.04882887006942855
-0.7324330510414282
-0.34180209048599985
0.04882887006942855
-0.537117570763714
-0.6347753109025711
-0.04882887006942855
-0.34180209048599985
-0.7324330510414282
-0.14648661020828566
-0.04882887006942855
-0.6347753109025711
-0.34180209048599985
-0.04882887006942855
-0.43945983062485694
-0.43945983062485694
-0.04882887006942855
-0.24414435034714274
-0.537117570763714
-0.14648661020828566
-0.14648661020828566
-0.43945983062485694
-0.34180209048599985
-0.14648661020828566
-0.34180209048599985
-0.43945983062485694
-0.14648661020828566
-0.24414435034714274
-0.43945983062485694
-0.24414435034714274
-56.7879758907454
-257.66994735637445
-510.60349431601435
-605.7221332112612
-507.9667353322652
-344.780651560235
-223.97802700846876
-159.7192339971008
-115.0896467536431
-81.39772640573739
-64.3076218814374
-48.48706797894255
-30.22507057297627
-22.90074006256199
-20.263981078812847
-11.47478446631571
-6.6895551995117115
-8.44739452201114
-5.0293736171511405
-0.43945983062485694
-2.5879301136797133
-2.9785610742351416
0.7324330510414282
-0.04882887006942855
-2.0019836728465705
0.6347753109025711
1.513694972152285
-0.8300907911802854
0.04882887006942855
1.9043259327077133
-0.04882887006942855
-0.6347753109025711
1.513694972152285
0.9277485313191425
-0.34180209048599985
1.2207217517357138
1.513694972152285
-0.24414435034714274
0.14648661020828566
1.3183794918745708
0.14648661020828566
-0.04882887006942855
1.3183794918745708
1.0254062714579995
0.04882887006942855
0.8300907911802854
0.9277485313191425
0.04882887006942855
0.24414435034714274
1.0254062714579995
38.1353475242237
192.2392614633402
432.28198672465095
579.842832074464
540.9750514991989
396.2462806134127
261.1856260013733
178.95780880445562
129.05470359349965
92.43305104142824
69.58113984893568
53.56527046616312
36.475165941863125
25.342183566033416
20.947585259784848
14.50217441062028
8.44739452201114
7.861448081177996
6.39658197909514
2.490272373540856
2.197299153124285
3.076218814373999
0.7324330510414282
-0.04882887006942855
1.416037232013428
0.537117570763714
-0.9277485313191425
0.34180209048599985
0.537117570763714
-0.9277485313191425
-0.34180209048599985
0.537117570763714
-0.537117570763714
-0.9277485313191425
0.14648661020828566
-0.14648661020828566
-0.9277485313191425
-0.04882887006942855
0.04882887006942855
-0.7324330510414282
-0.43945983062485694
0.14648661020828566
-0.43945983062485694
-0.6347753109025711
0.04882887006942855
-0.14648661020828566
-0.7324330510414282
-0.14648661020828566
0.04882887006942855
-0.537117570763714
-0.34180209048599985
0.04882887006942855
-0.43945983062485694
-0.537117570763714
-0.04882887006942855
-0.24414435034714274
-0.537117570763714
-0.14648661020828566
-0.14648661020828566
-0.537117570763714
-0.43945983062485694
-0.14648661020828566
-0.43945983062485694
-0.43945983062485694
-0.14648661020828566
-0.24414435034714274
-0.43945983062485694
-0.24414435034714274
-0.14648661020828566
-0.43945983062485694
-0.34180209048599985
-0.14648661020828566
-0.34180209048599985
-0.34180209048599985
-0.24414435034714274
-0.24414435034714274
-0.34180209048599985
-0.24414435034714274
-52.002746623941405
-242.7283131151293
-495.8571755550469
-604.3549248493172
-516.95124742504
-354.44876783398183
-229.73983367666133
-162.45365072098878
-117.62874799725337
-83.25322346837568
-64.9912260624094
-49.46364538033112
-31.201647974364842
-22.998397802700847
-20.45929655909056
-12.158388647287708
-6.884870679789426
-8.154421301594567
-5.224689097428855
-0.6347753109025711
-2.392614633401999
-3.1738765545128556
0.43945983062485694
0.14648661020828566
-1.8066681925688564
0.43945983062485694
1.6113527122911422
-0.537117570763714
0.04882887006942855
1.9043259327077133
0.04882887006942855
-0.6347753109025711
1.3183794918745708
0.9277485313191425
-0.43945983062485694
0.9277485313191425
1.7090104524299992
0.04882887006942855
0.14648661020828566
1.2207217517357138
0.14648661020828566
-0.14648661020828566
1.1230640115968566
0.9277485313191425
0.04882887006942855
0.7324330510414282
0.9277485313191425
-0.04882887006942855
0.14648661020828566
1.0254062714579995
0.537117570763714
49.365987640192266
218.89982452124818
431.0124361028458
531.6975661860075
495.1735713740749
388.2383459220264
279.44762340733956
198.48935683222706
137.8439002059968
97.02296482795452
74.95231555657283
55.51842526894026
36.86579690241855
28.369573510337986
22.803082322423133
13.623254749370565
9.42397192339971
9.619287403677424
5.615320057984283
2.197299153124285
3.662165255207141
2.8809033340962844
-0.14648661020828566
0.7324330510414282
1.9043259327077133
-0.43945983062485694
-0.6347753109025711
1.1230640115968566
-0.04882887006942855
-1.3183794918745708
0.24414435034714274
0.24414435034714274
-1.1230640115968566
-0.24414435034714274
0.537117570763714
-0.7324330510414282
-0.7324330510414282
0.34180209048599985
-0.24414435034714274
-0.9277485313191425
0.04882887006942855
0.04882887006942855
-0.8300907911802854
-0.34180209048599985
0.14648661020828566
-0.537117570763714
-0.6347753109025711
0.04882887006942855
-0.24414435034714274
-0.7324330510414282
-0.04882887006942855
-0.04882887006942855
-0.7324330510414282
-0.34180209048599985
-0.04882887006942855
-0.537117570763714
-0.537117570763714
-0.04882887006942855
-0.34180209048599985
-0.537117570763714
-0.14648661020828566
-0.14648661020828566
-0.537117570763714
-0.24414435034714274
-0.04882887006942855
-0.43945983062485694
-0.43945983062485694
-0.14648661020828566
-0.24414435034714274
-0.43945983062485694
-0.24414435034714274
-0.14648661020828566
-0.43945983062485694
-0.24414435034714274
-0.14648661020828566
-0.34180209048599985
-0.34180209048599985
-0.14648661020828566
-35.49858854047456
-191.5556572823682
-444.6845197222858
-599.3743801022355
-547.8110933089189
-388.2383459220264
-249.5643549248493
-172.31708247501336
-126.32028686961166
-89.21034561684596
-67.33501182574197
-53.07698176546884
-35.010299839780274
-23.58434424353399
-21.045242999923705
-14.306858930342566
-6.982528419928283
-7.568474860761425
-6.494239719233997
-1.3183794918745708
-1.6113527122911422
-3.5645075150682843
-0.537117570763714
0.6347753109025711
-1.8066681925688564
-0.537117570763714
1.8066681925688564
0.04882887006942855
-0.6347753109025711
1.513694972152285
0.6347753109025711
-0.7324330510414282
0.9277485313191425
1.6113527122911422
-0.04882887006942855
0.43945983062485694
1.6113527122911422
0.14648661020828566
-0.14648661020828566
1.1230640115968566
0.7324330510414282
-0.04882887006942855
0.9277485313191425
1.2207217517357138
0.04882887006942855
0.34180209048599985
1.1230640115968566
0.24414435034714274
0.04882887006942855
0.9277485313191425
0.7324330510414282
0.14648661020828566
0.7324330510414282
27.295338368810558
145.46120393682764
359.81994354161895
539.7055008773938
558.651102464332
441.2664988174258
299.4674601358053
200.54016937514305
141.84786755168994
102.39414053559167
75.83123521782254
57.764553292133975
41.358052948805984
28.564888990615703
21.92416266117342
16.260013733119706
10.302891584649425
7.959105821316854
6.6895551995117115
3.662165255207141
2.2949568932631417
2.68558785381857
1.416037232013428
0.14648661020828566
0.8300907911802854
0.7324330510414282
-0.34180209048599985
-0.04882887006942855
0.34180209048599985
-0.43945983062485694
-0.537117570763714
0.14648661020828566
-0.14648661020828566
-0.7324330510414282
-0.04882887006942855
0.04882887006942855
-0.6347753109025711
-0.34180209048599985
0.04882887006942855
-0.43945983062485694
-0.537117570763714
-0.04882887006942855
-0.24414435034714274
-0.537117570763714
-0.14648661020828566
-0.14648661020828566
-0.537117570763714
-0.34180209048599985
-0.04882887006942855
-0.34180209048599985
-0.43945983062485694
-0.14648661020828566
-0.24414435034714274
-0.43945983062485694
-0.24414435034714274
-0.24414435034714274
-0.537117570763714
-0.34180209048599985
-0.14648661020828566
-0.34180209048599985
-0.34180209048599985
-0.24414435034714274
-0.24414435034714274
-0.34180209048599985
-0.24414435034714274
-0.24414435034714274
-0.34180209048599985
-0.24414435034714274
-0.24414435034714274
-0.34180209048599985
-0.34180209048599985
-0.24414435034714274
-0.24414435034714274
-0.34180209048599985
-0.24414435034714274
-0.24414435034714274
-0.34180209048599985
-0.34180209048599985
-0.24414435034714274
-0.34180209048599985
-0.34180209048599985
-0.24414435034714274
-0.24414435034714274
-0.34180209048599985
-5.0293736171511405
-56.690318150606544
-226.1264972915236
-466.2668802929732
-592.6359960326544
-526.1310749980926
-369.390402075227
-239.1149767299916
-165.96932936598765
-121.04676890211337
-86.08529793240254
-65.38185702296482
-50.73319600213626
-33.545433737697415
-23.19371328297856
-19.971007858396277
-13.232623788815136
-6.982528419928283
-7.373159380483711
-6.005951018539712
-1.6113527122911422
-1.9043259327077133
-3.076218814373999
-0.24414435034714274
0.537117570763714
-1.2207217517357138
0.04882887006942855
1.513694972152285
-0.34180209048599985
-0.537117570763714
1.3183794918745708
0.6347753109025711
-0.34180209048599985
1.1230640115968566
1.3183794918745708
-0.14648661020828566
0.34180209048599985
1.2207217517357138
0.14648661020828566
0.04882887006942855
1.2207217517357138
0.8300907911802854
0.04882887006942855
0.9277485313191425
1.0254062714579995
0.04882887006942855
0.43945983062485694
1.1230640115968566
0.43945983062485694
0.43945983062485694
1.1230640115968566
0.6347753109025711
25.63515678644999
112.64820325017166
238.72434576943618
368.80445563439383
475.15373464560923
492.82978561074236
408.355840390631
288.13916227969787
190.6767376211185
133.0586709391928
99.26909285114824
71.43663691157397
51.80743114366369
40.28381780727855
28.467231250476843
18.60379949645228
15.185778591592278
11.670099946593423
6.39658197909514
5.127031357289998
5.127031357289998
2.2949568932631417
0.9277485313191425
2.197299153124285
1.1230640115968566
-0.43945983062485694
0.6347753109025711
0.8300907911802854
-0.6347753109025711
-0.24414435034714274
0.537117570763714
-0.537117570763714
-0.8300907911802854
0.24414435034714274
-0.14648661020828566
-0.9277485313191425
-0.04882887006942855
0.04882887006942855
-0.7324330510414282
-0.43945983062485694
0.14648661020828566
-0.43945983062485694
-0.6347753109025711
0.04882887006942855
-0.14648661020828566
-0.7324330510414282
-0.14648661020828566
-0.04882887006942855
-0.537117570763714
-0.34180209048599985
0.04882887006942855
-0.34180209048599985
-0.537117570763714
-0.04882887006942855
-0.24414435034714274
-0.537117570763714
-0.24414435034714274
-0.14648661020828566
-0.43945983062485694
-0.34180209048599985
-0.14648661020828566
-0.43945983062485694
-0.537117570763714
-0.24414435034714274
-0.34180209048599985
-0.43945983062485694
-0.24414435034714274
-0.24414435034714274
-0.43945983062485694
-0.34180209048599985
-0.14648661020828566
-0.34180209048599985
-0.34180209048599985
-0.24414435034714274
-6.298924238956283
-89.50331883726253
-318.51071946288243
-554.2565041580834
-598.4954604409858
-470.0755321583886
-309.33089188982984
-203.95819028000304
-148.48859388113223
-105.7145037003128
-75.73357747768368
-61.182574196993976
-44.19012741283284
-27.100022888532845
-22.510109102006563
-18.799114976729992
-9.326314183260854
-6.6895551995117115
-8.349736781872283
-3.466849774929427
-0.24414435034714274
-3.466849774929427
-2.197299153124285
1.416037232013428
-0.537117570763714
-1.8066681925688564
1.513694972152285
1.2207217517357138
-1.2207217517357138
0.6347753109025711
1.9043259327077133
-0.537117570763714
-0.14648661020828566
1.8066681925688564
0.34180209048599985
-0.34180209048599985
1.6113527122911422
1.2207217517357138
-0.34180209048599985
0.6347753109025711
1.416037232013428
-0.04882887006942855
0.04882887006942855
1.3183794918745708
0.43945983062485694
-0.04882887006942855
1.0254062714579995
0.8300907911802854
-0.04882887006942855
0.6347753109025711
1.1230640115968566
10.888838025482567
95.75341420614939
309.52620737010756
532.5764858472572
587.8507667658503
475.6420233463035
319.87792782482643
210.2082856488899
150.8323796444648
108.64423590447852
77.78439002059967
61.37788967727169
45.55733577477684
28.857862211032273
22.412451361867703
18.89677271686885
10.693522545204852
6.982528419928283
8.154421301594567
4.541084916456855
1.1230640115968566
3.076218814373999
2.68558785381857
-0.537117570763714
0.34180209048599985
1.8066681925688564
-0.537117570763714
-0.9277485313191425
1.1230640115968566
0.04882887006942855
-1.3183794918745708
0.34180209048599985
0.43945983062485694
-1.2207217517357138
-0.34180209048599985
0.6347753109025711
-0.7324330510414282
-0.8300907911802854
0.43945983062485694
-0.14648661020828566
-1.0254062714579995
0.04882887006942855
0.04882887006942855
-0.9277485313191425
-0.34180209048599985
0.24414435034714274
-0.537117570763714
-0.6347753109025711
0.14648661020828566
-0.24414435034714274
-0.8300907911802854
-0.14648661020828566
-0.04882887006942855
-0.7324330510414282
-0.34180209048599985
0.04882887006942855
-0.537117570763714
-0.537117570763714
0.04882887006942855
-0.24414435034714274
-0.6347753109025711
-0.14648661020828566
-0.14648661020828566
-0.537117570763714
-0.34180209048599985
-0.04882887006942855
-0.43945983062485694
-0.43945983062485694
-0.14648661020828566
-0.24414435034714274
-0.43945983062485694
-0.24414435034714274
-0.14648661020828566
-0.43945983062485694
-0.24414435034714274
-0.14648661020828566
-12.549019607843137
-103.4683756771191
-321.9287403677424
-540.9750514991989
-585.7999542229343
-466.65751125352864
-311.967650873579
-206.30197604333563
-148.0979629205768
-106.00747692072939
-76.71015487907225
-60.59662775616083
-43.79949645227741
-27.97894254978256
-22.314793621728846
-18.017853055619135
-9.912260624093996
-7.275501640344854
-7.959105821316854
-3.7598229953459983
-0.9277485313191425
-2.8809033340962844
-1.9043259327077133
0.8300907911802854
-0.537117570763714
-1.3183794918745708
1.2207217517357138
1.0254062714579995
-0.7324330510414282
0.6347753109025711
1.513694972152285
-0.24414435034714274
0.04882887006942855
1.416037232013428
0.34180209048599985
-0.24414435034714274
1.1230640115968566
1.0254062714579995
-0.04882887006942855
0.7324330510414282
1.2207217517357138
0.04882887006942855
0.04882887006942855
1.1230640115968566
0.43945983062485694
0.04882887006942855
1.0254062714579995
0.9277485313191425
0.14648661020828566
0.537117570763714
0.8300907911802854
0.24414435034714274
0.537117570763714
1.1230640115968566
1.0254062714579995
48.97535667963683
214.3099107347219
412.75043869687954
493.31807431143665
462.0675974670024
388.8242923628595
303.764400701915
223.39208056763562
152.59021896696422
104.54261081864652
81.39772640573739
59.91302357518883
39.014267185473415
31.103990234225986
25.342183566033416
14.11154345006485
10.009918364232853
11.08415350576028
5.810635538261997
1.9043259327077133
4.541084916456855
3.2715342946517127
-0.7324330510414282
1.0254062714579995
2.392614633401999
-0.9277485313191425
-0.7324330510414282
1.7090104524299992
-0.14648661020828566
-1.6113527122911422
0.7324330510414282
0.43945983062485694
-1.6113527122911422
-0.14648661020828566
0.8300907911802854
-1.0254062714579995
-0.9277485313191425
0.7324330510414282
-0.34180209048599985
-1.2207217517357138
0.24414435034714274
0.04882887006942855
-1.1230640115968566
-0.24414435034714274
0.34180209048599985
-0.7324330510414282
-0.6347753109025711
0.24414435034714274
-0.34180209048599985
-0.9277485313191425
0.04882887006942855
-0.04882887006942855
-0.8300907911802854
-0.24414435034714274
0.04882887006942855
-0.6347753109025711
-0.537117570763714
0.04882887006942855
-0.34180209048599985
-0.6347753109025711
-0.04882887006942855
-0.04882887006942855
-0.6347753109025711
-0.24414435034714274
-0.04882887006942855
-0.43945983062485694
-0.43945983062485694
-0.04882887006942855
-0.34180209048599985
-0.537117570763714
-0.14648661020828566
-0.14648661020828566
-0.43945983062485694
-0.24414435034714274
-0.14648661020828566
-0.43945983062485694
-0.34180209048599985
-0.14648661020828566
-0.34180209048599985
-0.43945983062485694
-39.307240405889985
-203.46990157930875
-457.0870527199207
-600.7415884641795
-540.5844205386435
-380.42572671091784
-245.0720988784619
-169.77798123140306
-124.1718165865568
-87.94079499504082
-66.94438086518655
-52.39337758449683
-34.32669565880827
-23.291371023117417
-20.55695429922942
-13.623254749370565
-7.080186160067139
-7.763790341039139
-6.39658197909514
-1.416037232013428
-1.8066681925688564
-3.2715342946517127
-0.04882887006942855
0.8300907911802854
-1.513694972152285
-0.24414435034714274
1.513694972152285
-0.24414435034714274
-0.537117570763714
1.7090104524299992
0.8300907911802854
-0.537117570763714
0.8300907911802854
1.1230640115968566
-0.34180209048599985
0.34180209048599985
1.513694972152285
0.34180209048599985
0.04882887006942855
1.2207217517357138
0.6347753109025711
-0.14648661020828566
0.8300907911802854
1.1230640115968566
0.04882887006942855
0.537117570763714
1.2207217517357138
17.920195315480278
99.65972381170367
274.46707866025787
473.98184176394295
562.8503852903029
493.4157320515755
351.616693369955
231.88830395971618
160.1098649576562
116.6521705958648
84.3274586099031
63.03807125963226
47.998779278248264
33.252460517280845
23.096055542839704
18.506141756313422
13.13496604867628
7.959105821316854
6.884870679789426
5.615320057984283
2.490272373540856
2.0019836728465705
2.490272373540856
0.8300907911802854
0.04882887006942855
1.0254062714579995
0.43945983062485694
-0.6347753109025711
0.14648661020828566
0.34180209048599985
-0.6347753109025711
-0.34180209048599985
0.24414435034714274
-0.43945983062485694
-0.7324330510414282
0.04882887006942855
-0.14648661020828566
-0.7324330510414282
-0.14648661020828566
0.04882887006942855
-0.6347753109025711
-0.43945983062485694
0.04882887006942855
-0.34180209048599985
-0.537117570763714
-0.04882887006942855
-0.14648661020828566
-0.537117570763714
-0.24414435034714274
-0.04882887006942855
-2.0996414129854277
-71.8272678721294
-292.6314183260853
-541.1703669794766
-605.9174486915389
-486.2867170214389
-322.51468680857556
-211.18486305027847
-152.88319218738079
-109.23018234531166
-54.44419012741283
87.64782177462425
349.17524986648357
554.4518196383611
545.2719920653086
400.5432211795224
262.45517662317843
177.1999694819562
125.73434042877851
91.06584267948425
69.77645532921339
52.588693064774546
35.79156176089113
25.92813000686656
20.654612039368278
13.623254749370565
8.74036774242771
8.05676356145571
5.71297779812314
2.490272373540856
2.68558785381857
2.68558785381857
0.43945983062485694
0.34180209048599985
-5.810635538261997
-98.78080415045396
-341.9485770962081
-573.2997634851606
-597.7141985198749
-456.50110627908754
-294.77988860914013
-194.87602044708933
-144.38696879530022
-102.19882505531396
-72.60852979324025
-60.01068131532769
-43.018234531166556
-25.24452582589456
-21.92416266117342
-18.799114976729992
-8.349736781872283
-6.298924238956283
-8.838025482566568
-3.1738765545128556
0.04882887006942855
-3.8574807354848555
-2.2949568932631417
2.0019836728465705
-0.6347753109025711
-2.0996414129854277
1.8066681925688564
1.2207217517357138
-1.7090104524299992
0.7324330510414282
2.0996414129854277
-0.8300907911802854
-0.24414435034714274
2.0996414129854277
0.34180209048599985
-0.537117570763714
1.7090104524299992
1.2207217517357138
-0.6347753109025711
0.7324330510414282
1.513694972152285
-0.24414435034714274
0.04882887006942855
1.513694972152285
0.34180209048599985
-0.24414435034714274
1.1230640115968566
0.8300907911802854
-0.14648661020828566
39.79552910658427
172.51239795529108
326.12802319371326
401.4221408407721
426.129549095903
422.8091859311818
368.80445563439383
279.154650186923
187.16105897611962
125.92965590905622
96.72999160753795
70.26474402990769
46.533913176165406
38.03768978408484
30.029755092698558
16.55298695353628
12.646677347981994
13.330281528953995
6.494239719233997
2.5879301136797133
5.810635538261997
3.466849774929427
-0.8300907911802854
1.8066681925688564
2.783245593957427
-1.2207217517357138
-0.537117570763714
2.0996414129854277
-0.43945983062485694
-1.6113527122911422
1.1230640115968566
0.34180209048599985
-1.8066681925688564
0.04882887006942855
0.9277485313191425
-1.3183794918745708
-0.7324330510414282
0.9277485313191425
-0.537117570763714
-1.2207217517357138
0.43945983062485694
0.04882887006942855
-1.3183794918745708
-0.04882887006942855
0.34180209048599985
-1.0254062714579995
-0.6347753109025711
0.34180209048599985
-0.537117570763714
-0.9277485313191425
0.14648661020828566
-0.04882887006942855
-0.9277485313191425
-0.14648661020828566
0.14648661020828566
-0.7324330510414282
-0.537117570763714
0.14648661020828566
-0.43945983062485694
-0.6347753109025711
0.04882887006942855
-0.14648661020828566
-0.6347753109025711
-0.14648661020828566
-0.04882887006942855
-0.537117570763714
-0.43945983062485694
0.04882887006942855
-0.34180209048599985
-0.537117570763714
-0.04882887006942855
-0.24414435034714274
-0.537117570763714
-0.24414435034714274
-0.04882887006942855
-26.61173418783856
-149.07454032196537
-372.41779201953153
-552.8892957961394
-560.6042572671092
-433.45387960631723
-289.8970016021973
-194.9736781872282
-139.30876630807964
-99.75738155184253
-73.97573815518425
-57.27626459143969
-40.28381780727855
-27.100022888532845
-21.728847180895706
-15.967040512703136
-9.326314183260854
-7.763790341039139
-6.884870679789426
-2.9785610742351416
-1.7090104524299992
-2.783245593957427
-1.0254062714579995
0.43945983062485694
-0.8300907911802854
-0.537117570763714
1.0254062714579995
0.14648661020828566
-0.537117570763714
0.8300907911802854
1.0254062714579995
-0.04882887006942855
0.6347753109025711
1.2207217517357138
0.14648661020828566
0.14648661020828566
1.1230640115968566
0.6347753109025711
0.14648661020828566
0.9277485313191425
0.8300907911802854
0.04882887006942855
0.537117570763714
0.9277485313191425
0.14648661020828566
0.24414435034714274
0.9277485313191425
0.7324330510414282
0.24414435034714274
0.7324330510414282
0.7324330510414282
0.34180209048599985
51.709773403524835
217.33730067902647
420.5630579079881
531.6975661860075
511.8730449378195
400.3479056992447
279.05699244678414
191.84863050278477
132.27740901808195
95.85107194628824
73.87808041504539
53.467612726024264
36.86579690241855
28.564888990615703
21.338216220340275
13.232623788815136
10.205233844510566
8.935683222705425
4.834058136873426
2.8809033340962844
3.7598229953459983
2.0996414129854277
0.14648661020828566
1.2207217517357138
1.2207217517357138
-0.537117570763714
-0.04882887006942855
0.8300907911802854
-0.43945983062485694
-0.7324330510414282
0.34180209048599985
-0.14648661020828566
-1.0254062714579995
-0.04882887006942855
0.04882887006942855
-0.8300907911802854
-0.43945983062485694
0.14648661020828566
-0.537117570763714
-0.6347753109025711
0.04882887006942855
-0.24414435034714274
-0.7324330510414282
-0.14648661020828566
-0.04882887006942855
-0.6347753109025711
-0.34180209048599985
0.04882887006942855
-0.43945983062485694
-0.537117570763714
-0.04882887006942855
-0.24414435034714274
-0.537117570763714
-0.14648661020828566
-0.14648661020828566
-0.537117570763714
-0.34180209048599985
-0.14648661020828566
-0.43945983062485694
-0.537117570763714
-0.14648661020828566
-0.24414435034714274
-0.43945983062485694
-0.24414435034714274
-0.14648661020828566
-0.43945983062485694
-0.34180209048599985
-0.14648661020828566
-0.34180209048599985
-0.34180209048599985
-0.14648661020828566
-0.24414435034714274
-0.34180209048599985
-0.24414435034714274
-0.24414435034714274
-0.34180209048599985
-0.34180209048599985
-0.24414435034714274
-52.97932402532997
-239.1149767299916
-479.3530174715801
-585.995269703212
-513.7285420004578
-364.1168841077287
-241.1657892729076
-169.38735027084763
-120.7537956816968
-86.1829556725414
-67.23735408560312
-50.34256504158083
-32.37354085603113
-24.365606164644845
-20.361638818951704
-12.060730907148852
-7.568474860761425
-8.44739452201114
-5.127031357289998
-1.3183794918745708
-2.8809033340962844
-2.5879301136797133
0.6347753109025711
0.04882887006942855
-1.6113527122911422
0.537117570763714
1.2207217517357138
-0.7324330510414282
0.04882887006942855
1.6113527122911422
0.04882887006942855
-0.24414435034714274
1.3183794918745708
0.6347753109025711
-0.34180209048599985
0.9277485313191425
1.3183794918745708
0.04882887006942855
0.43945983062485694
1.3183794918745708
0.34180209048599985
0.04882887006942855
1.0254062714579995
0.6347753109025711
-0.04882887006942855
0.7324330510414282
1.0254062714579995
0.24414435034714274
0.537117570763714
1.0254062714579995
0.34180209048599985
0.24414435034714274
0.9277485313191425
0.6347753109025711
14.990463111314565
98.97611963073167
261.6739147020676
385.0156404974441
404.25421530479895
394.78141451132984
381.8905928130007
330.0343327992676
245.0720988784619
161.86770428015564
111.96459906919966
86.57358663309682
60.30365453574426
41.065079728389414
35.20561532005799
25.537499046311133
13.623254749370565
12.549019607843137
11.767757686732281
4.248111696040284
2.9785610742351416
5.810635538261997
2.0019836728465705
-0.7324330510414282
2.490272373540856
1.8066681925688564
-1.6113527122911422
0.34180209048599985
1.8066681925688564
-1.2207217517357138
-1.0254062714579995
1.416037232013428
-0.34180209048599985
-1.6113527122911422
0.6347753109025711
0.34180209048599985
-1.6113527122911422
-0.14648661020828566
0.7324330510414282
-1.0254062714579995
-0.8300907911802854
0.6347753109025711
-0.43945983062485694
-1.2207217517357138
0.14648661020828566
0.04882887006942855
-1.1230640115968566
-0.24414435034714274
0.34180209048599985
-0.7324330510414282
-0.6347753109025711
0.24414435034714274
-0.34180209048599985
-0.8300907911802854
0.04882887006942855
-0.04882887006942855
-0.8300907911802854
-0.24414435034714274
0.04882887006942855
-0.6347753109025711
-0.537117570763714
0.04882887006942855
-0.34180209048599985
-0.6347753109025711
-0.04882887006942855
-0.14648661020828566
-0.6347753109025711
-0.24414435034714274
-0.04882887006942855
-0.43945983062485694
-0.43945983062485694
-0.04882887006942855
-0.34180209048599985
-47.11985961699855
-226.41947051194018
-479.7436484321355
-603.1830319676509
-526.6193636987869
-364.89814602883956
-236.08758678568705
-165.57869840543222
-120.0701915007248
-85.10872053101396
-65.96780346379796
-50.73319600213626
-32.56885633630884
-23.389028763256274
-20.361638818951704
-12.549019607843137
-7.080186160067139
-8.154421301594567
-5.71297779812314
-1.0254062714579995
-2.2949568932631417
-3.076218814373999
0.34180209048599985
0.43945983062485694
-1.7090104524299992
0.14648661020828566
1.513694972152285
-0.6347753109025711
-0.24414435034714274
1.6113527122911422
0.34180209048599985
-0.43945983062485694
1.416037232013428
1.1230640115968566
-0.34180209048599985
0.6347753109025711
1.416037232013428
0.04882887006942855
0.14648661020828566
1.3183794918745708
0.34180209048599985
-0.04882887006942855
1.0254062714579995
1.0254062714579995
0.04882887006942855
0.7324330510414282
12.158388647287708
101.22224765392538
323.3936064698253
546.4438849469749
588.6320286869611
466.0715648126955
310.69810025177384
205.42305638208592
147.6096742198825
106.00747692072939
76.8078126192111
60.59662775616083
43.99481193255512
28.27191577019913
22.510109102006563
18.11551079575799
10.10757610437171
7.373159380483711
7.959105821316854
4.052796215762569
1.3183794918745708
3.2715342946517127
2.197299153124285
-0.537117570763714
0.7324330510414282
1.6113527122911422
-0.7324330510414282
-0.537117570763714
1.1230640115968566
-0.24414435034714274
-1.2207217517357138
0.34180209048599985
0.14648661020828566
-1.3183794918745708
-0.14648661020828566
0.43945983062485694
-0.8300907911802854
-0.6347753109025711
0.34180209048599985
-0.34180209048599985
-0.9277485313191425
0.04882887006942855
0.04882887006942855
-0.9277485313191425
-0.24414435034714274
0.14648661020828566
-0.6347753109025711
-0.537117570763714
0.14648661020828566
-0.34180209048599985
-0.7324330510414282
0.04882887006942855
-0.04882887006942855
-0.6347753109025711
-0.24414435034714274
0.04882887006942855
-0.537117570763714
-0.43945983062485694
-0.04882887006942855
-0.34180209048599985
-0.6347753109025711
-0.14648661020828566
-0.24414435034714274
-0.537117570763714
-0.24414435034714274
-0.14648661020828566
-0.43945983062485694
-0.34180209048599985
-0.14648661020828566
-0.34180209048599985
-0.43945983062485694
-0.14648661020828566
-0.24414435034714274
-0.43945983062485694
-0.24414435034714274
-0.14648661020828566
-0.34180209048599985
-4.052796215762569
-59.815365835049974
-242.82597085526817
-485.7984283207446
-596.3469901579309
-516.0723277637903
-357.37850003814754
-231.88830395971618
-162.55130846112763
-118.11703669794767
-83.83916990920882
-64.50293736171511
-49.56130312046998
-32.27588311589227
-23.096055542839704
-19.87335011825742
-12.45136186770428
-6.982528419928283
-7.666132600900283
-5.420004577706569
-1.2207217517357138
-2.2949568932631417
-3.076218814373999
0.14648661020828566
0.34180209048599985
-1.513694972152285
0.04882887006942855
1.3183794918745708
-0.537117570763714
-0.14648661020828566
1.6113527122911422
0.34180209048599985
-0.43945983062485694
1.1230640115968566
1.0254062714579995
-0.24414435034714274
0.6347753109025711
1.416037232013428
0.04882887006942855
0.14648661020828566
1.3183794918745708
0.43945983062485694
0.04882887006942855
0.9277485313191425
0.8300907911802854
0.04882887006942855
0.6347753109025711
1.0254062714579995
16.357671473258563
91.74944686045625
228.95857175555048
369.7810330357824
472.7122911421378
494.39230945296407
416.4614328221561
298.1979095140002
199.0753032730602
136.57434958419165
101.41756313420309
74.5616845960174
53.27229724574655
40.479133287556266
30.029755092698558
19.775692378118563
14.697489890897993
12.060730907148852
7.470817120622568
4.736400396734569
4.834058136873426
3.076218814373999
1.0254062714579995
1.6113527122911422
1.513694972152285
-0.04882887006942855
0.04882887006942855
0.8300907911802854
-0.14648661020828566
-0.6347753109025711
0.24414435034714274
-0.04882887006942855
-0.8300907911802854
-0.04882887006942855
0.04882887006942855
-0.7324330510414282
-0.43945983062485694
0.14648661020828566
-0.43945983062485694
-0.6347753109025711
0.04882887006942855
-0.14648661020828566
-0.6347753109025711
-0.14648661020828566
-0.04882887006942855
-0.537117570763714
-0.34180209048599985
-0.04882887006942855
-0.34180209048599985
-0.43945983062485694
-0.04882887006942855
-0.24414435034714274
-0.537117570763714
-0.24414435034714274
-0.14648661020828566
-0.43945983062485694
-0.34180209048599985
-0.04882887006942855
-0.34180209048599985
-0.43945983062485694
-0.14648661020828566
-0.34180209048599985
-0.537117570763714
-0.34180209048599985
-0.24414435034714274
-0.43945983062485694
-0.34180209048599985
-0.14648661020828566
-0.34180209048599985
-0.34180209048599985
-25.24452582589456
-158.15671015487908
-408.45349813076984
-591.464103150988
-566.4637216754406
-412.45746547646297
-265.48256656748305
-180.03204394598308
-132.3750667582208
-93.70260166323338
-69.38582436865796
-55.61608300907912
-37.74471656366827
-24.17029068436713
-21.24055848020142
-15.771725032425422
-7.568474860761425
-7.177843900205997
-7.373159380483711
-2.0996414129854277
-0.9277485313191425
-3.466849774929427
-0.9277485313191425
1.1230640115968566
-1.416037232013428
-1.1230640115968566
1.6113527122911422
0.24414435034714274
-1.0254062714579995
1.2207217517357138
1.2207217517357138
-0.7324330510414282
0.6347753109025711
1.8066681925688564
0.04882887006942855
-0.04882887006942855
1.416037232013428
0.43945983062485694
-0.34180209048599985
1.1230640115968566
1.1230640115968566
-0.14648661020828566
0.43945983062485694
1.2207217517357138
0.24414435034714274
0.34180209048599985
1.3183794918745708
0.6347753109025711
0.04882887006942855
0.9277485313191425
32.471198596169984
168.50843060959792
398.59006637674526
564.1199359121081
551.3267719539177
417.1450370031281
278.1780727855344
188.43060959792479
134.71885252155337
96.82764934767681
72.5108720531014
55.61608300907912
38.72129396505684
26.807049668116274
21.533531700617992
15.283436331731137
9.228656443121995
7.861448081177996
6.494239719233997
2.9785610742351416
2.197299153124285
2.9785610742351416
1.0254062714579995
0.04882887006942855
1.2207217517357138
0.6347753109025711
-0.7324330510414282
0.14648661020828566
0.537117570763714
-0.6347753109025711
-0.43945983062485694
0.34180209048599985
-0.34180209048599985
-0.7324330510414282
0.04882887006942855
-0.04882887006942855
-0.8300907911802854
-0.14648661020828566
0.04882887006942855
-0.6347753109025711
-0.43945983062485694
0.04882887006942855
-0.34180209048599985
-0.6347753109025711
-0.04882887006942855
-0.24414435034714274
-0.6347753109025711
-0.24414435034714274
-0.04882887006942855
-0.537117570763714
-0.43945983062485694
-0.04882887006942855
-0.34180209048599985
-0.537117570763714
-0.14648661020828566
-0.14648661020828566
-0.537117570763714
-0.24414435034714274
-0.14648661020828566
-0.43945983062485694
-0.34180209048599985
-0.14648661020828566
-0.34180209048599985
-0.43945983062485694
-0.14648661020828566
-0.24414435034714274
-0.43945983062485694
-0.24414435034714274
-0.14648661020828566
-0.34180209048599985
-0.34180209048599985
-0.14648661020828566
-0.34180209048599985
-0.34180209048599985
-0.24414435034714274
-0.24414435034714274
-5.517662317845426
-76.31952391851682
-284.4281681544213
-523.3966582742046
-597.5188830395972
-490.77897306782637
-331.01091020065616
-216.55603875791562
-154.83634699015792
-111.37865262836652
-79.54222934309911
-62.745098039215684
-46.63157091630426
-29.443808651865414
-22.705424582284277
-19.18974593728542
-10.693522545204852
-6.884870679789426
-8.05676356145571
-4.443427176317998
-0.8300907911802854
-2.8809033340962844
-2.490272373540856
0.9277485313191425
-0.04882887006942855
-1.7090104524299992
0.8300907911802854
1.2207217517357138
-0.9277485313191425
0.24414435034714274
1.7090104524299992
0.04882887006942855
-0.14648661020828566
1.513694972152285
0.6347753109025711
-0.43945983062485694
1.0254062714579995
1.1230640115968566
-0.24414435034714274
0.43945983062485694
1.3183794918745708
0.14648661020828566
0.04882887006942855
1.3183794918745708
0.8300907911802854
0.14648661020828566
1.1230640115968566
1.1230640115968566
0.04882887006942855
0.43945983062485694
29.150835431448844
159.32860303654536
377.9842832074464
524.8615243762874
516.7559319447623
417.73098344396124
304.83863584344243
216.8490119783322
152.10193026626993
105.12855725947966
79.63988708323797
61.08491645685512
40.86976424811169
29.443808651865414
24.756237125200276
15.967040512703136
9.521629663538567
9.81460288395514
7.080186160067139
2.392614633401999
3.1738765545128556
3.7598229953459983
0.34180209048599985
0.04882887006942855
2.0996414129854277
0.24414435034714274
-1.1230640115968566
0.8300907911802854
0.537117570763714
-1.3183794918745708
-0.04882887006942855
0.7324330510414282
-0.9277485313191425
-0.8300907911802854
0.537117570763714
-0.43945983062485694
-1.1230640115968566
0.14648661020828566
0.04882887006942855
-1.0254062714579995
-0.24414435034714274
0.24414435034714274
-0.7324330510414282
-0.6347753109025711
0.24414435034714274
-0.34180209048599985
-0.8300907911802854
0.04882887006942855
-0.04882887006942855
-0.7324330510414282
-0.24414435034714274
0.04882887006942855
-0.537117570763714
-0.537117570763714
0.04882887006942855
-0.34180209048599985
-0.6347753109025711
-0.04882887006942855
-0.14648661020828566
-0.537117570763714
-0.24414435034714274
-0.04882887006942855
-0.43945983062485694
-0.43945983062485694
-0.04882887006942855
-0.34180209048599985
-0.537117570763714
-0.24414435034714274
-0.24414435034714274
-35.69390402075227
-191.3603418020905
-444.6845197222858
-599.667353322652
-547.9087510490577
-388.2383459220264
-249.85732814526588
-172.31708247501336
-126.0273136491951
-89.01503013656824
-67.53032730601969
-53.27229724574655
-35.10795757991913
-23.682001983672848
-20.947585259784848
-14.11154345006485
-6.982528419928283
-7.666132600900283
-6.591897459372854
-1.513694972152285
-1.6113527122911422
-3.36919203479057
-0.14648661020828566
0.9277485313191425
-1.6113527122911422
-0.43945983062485694
1.7090104524299992
-0.04882887006942855
-0.537117570763714
1.6113527122911422
0.9277485313191425
-0.537117570763714
1.0254062714579995
1.3183794918745708
-0.34180209048599985
0.24414435034714274
1.513694972152285
0.14648661020828566
-0.14648661020828566
1.3183794918745708
0.8300907911802854
-0.14648661020828566
0.7324330510414282
1.1230640115968566
0.04882887006942855
0.43945983062485694
1.1230640115968566
0.43945983062485694
0.14648661020828566
0.9277485313191425
0.6347753109025711
21.728847180895706
150.05111772335394
403.9612420843824
595.5657282368201
573.2021057450218
416.6567483024338
266.16617074845504
180.2273594262608
133.7422751201648
94.28854810406654
69.28816662851911
56.49500267032883
38.62363622491798
24.072632944228275
21.63118944075685
16.55298695353628
7.470817120622568
7.080186160067139
8.05676356145571
2.392614633401999
0.9277485313191425
4.052796215762569
1.416037232013428
-1.3183794918745708
1.513694972152285
1.6113527122911422
-1.6113527122911422
-0.14648661020828566
1.6113527122911422
-0.9277485313191425
-1.2207217517357138
1.1230640115968566
-0.04882887006942855
-1.6113527122911422
0.34180209048599985
0.43945983062485694
-1.416037232013428
-0.34180209048599985
0.7324330510414282
-0.8300907911802854
-1.0254062714579995
0.43945983062485694
-0.24414435034714274
-1.2207217517357138
0.04882887006942855
0.14648661020828566
-1.0254062714579995
-0.34180209048599985
0.24414435034714274
-0.6347753109025711
-0.7324330510414282
0.14648661020828566
-0.24414435034714274
-0.8300907911802854
-0.04882887006942855
0.04882887006942855
-0.7324330510414282
-0.34180209048599985
0.04882887006942855
-0.537117570763714
-0.537117570763714
0.04882887006942855
-0.24414435034714274
-0.6347753109025711
-0.14648661020828566
-0.04882887006942855
-0.537117570763714
-0.34180209048599985
-0.04882887006942855
-0.43945983062485694
-0.43945983062485694
-0.04882887006942855
-0.24414435034714274
-0.537117570763714
-0.24414435034714274
-0.9277485313191425
-61.86617837796597
-267.3380636301213
-518.0254825665675
-605.2338445105669
-502.10727092393375
-338.628213931487
-220.56000610360877
-157.8637369344625
-113.33180743114366
-80.32349126420996
-64.01464866102083
-47.998779278248264
-29.63912413214313
-22.90074006256199
-19.87335011825742
-10.79118028534371
-6.6895551995117115
-8.642710002288853
-4.931715877012284
-0.7324330510414282
-3.076218814373999
-2.8809033340962844
1.0254062714579995
0.04882887006942855
-1.8066681925688564
0.9277485313191425
1.416037232013428
-1.0254062714579995
0.14648661020828566
2.0019836728465705
-0.04882887006942855
-0.43945983062485694
1.6113527122911422
0.7324330510414282
-0.537117570763714
1.0254062714579995
1.3183794918745708
-0.14648661020828566
0.43945983062485694
1.513694972152285
0.14648661020828566
0.04882887006942855
1.2207217517357138
0.6347753109025711
-0.04882887006942855
0.9277485313191425
1.1230640115968566
0.04882887006942855
0.537117570763714
1.1230640115968566
0.24414435034714274
0.14648661020828566
20.55695429922942
86.47592889295797
197.61043717097735
349.2729076066224
486.38437476157776
508.9433127336538
417.92629892423895
297.12367437247275
202.20035095750362
144.8752574959945
106.59342336156253
75.14763103685054
55.90905622949569
43.40886549172198
29.2484931715877
19.971007858396277
17.041275654230564
11.767757686732281
6.39658197909514
6.298924238956283
5.322346837567712
1.7090104524299992
1.513694972152285
2.68558785381857
0.537117570763714
-0.34180209048599985
1.2207217517357138
0.43945983062485694
-0.9277485313191425
0.14648661020828566
0.537117570763714
-0.9277485313191425
-0.43945983062485694
0.537117570763714
-0.537117570763714
-0.8300907911802854
0.24414435034714274
-0.04882887006942855
-1.0254062714579995
-0.14648661020828566
0.04882887006942855
-0.8300907911802854
-0.43945983062485694
0.14648661020828566
-0.43945983062485694
-0.6347753109025711
0.04882887006942855
-0.14648661020828566
-0.7324330510414282
-0.14648661020828566
0.04882887006942855
-0.537117570763714
-0.34180209048599985
0.04882887006942855
-0.34180209048599985
-0.537117570763714
-0.04882887006942855
-0.24414435034714274
-0.537117570763714
-0.24414435034714274
-0.14648661020828566
-0.43945983062485694
-0.34180209048599985
-0.04882887006942855
-0.34180209048599985
-0.43945983062485694
-0.14648661020828566
-0.24414435034714274
-10.693522545204852
-84.22980086976425
-275.5413138017853
-500.4470893415732
-585.7022964827954
-495.1735713740749
-341.16731517509726
-223.1967650873579
-156.69184405279623
-113.52712291142137
-81.69069962615396
-62.84275577935454
-47.21751735713741
-31.103990234225986
-22.705424582284277
-18.60379949645228
-11.572442206454566
-7.080186160067139
-7.373159380483711
-4.931715877012284
-1.6113527122911422
-2.392614633401999
-2.392614633401999
0.14648661020828566
0.04882887006942855
-1.2207217517357138
0.24414435034714274
1.0254062714579995
-0.43945983062485694
0.04882887006942855
1.3183794918745708
0.24414435034714274
-0.04882887006942855
1.3183794918745708
0.8300907911802854
-0.14648661020828566
0.6347753109025711
1.1230640115968566
0.14648661020828566
0.34180209048599985
1.1230640115968566
0.43945983062485694
0.04882887006942855
0.9277485313191425
0.7324330510414282
0.14648661020828566
0.8300907911802854
1.0254062714579995
0.34180209048599985
0.34180209048599985
0.8300907911802854
0.43945983062485694
0.34180209048599985
0.9277485313191425
20.263981078812847
129.25001907377737
346.92912184328986
529.1584649423972
548.8853284504463
443.70794232089725
311.8699931334401
214.3099107347219
152.00427252613107
106.8863965819791
78.85862516212711
61.475547417410546
43.018234531166556
29.2484931715877
23.87731746395056
17.334248874647134
10.009918364232853
8.545052262149996
7.666132600900283
3.2715342946517127
2.197299153124285
3.5645075150682843
1.416037232013428
-0.24414435034714274
1.3183794918745708
0.9277485313191425
-0.9277485313191425
0.04882887006942855
0.8300907911802854
-0.7324330510414282
-0.7324330510414282
0.537117570763714
-0.24414435034714274
-1.0254062714579995
0.14648661020828566
0.04882887006942855
-0.9277485313191425
-0.24414435034714274
0.24414435034714274
-0.7324330510414282
-0.6347753109025711
0.14648661020828566
-0.34180209048599985
-0.7324330510414282
0.04882887006942855
-0.04882887006942855
-0.7324330510414282
-0.24414435034714274
0.04882887006942855
-0.537117570763714
-0.537117570763714
-0.04882887006942855
-0.34180209048599985
-0.6347753109025711
-0.14648661020828566
-0.14648661020828566
-0.537117570763714
-0.24414435034714274
-0.04882887006942855
-0.43945983062485694
-0.43945983062485694
-0.04882887006942855
-0.34180209048599985
-0.43945983062485694
-0.14648661020828566
-0.14648661020828566
-0.43945983062485694
-0.24414435034714274
-0.14648661020828566
-0.34180209048599985
-0.34180209048599985
-0.14648661020828566
-0.24414435034714274
-0.43945983062485694
-0.24414435034714274
-0.24414435034714274
-0.34180209048599985
-0.24414435034714274
-0.24414435034714274
-0.34180209048599985
-0.34180209048599985
-0.24414435034714274
-22.705424582284277
-144.97291523613336
-384.03906309605554
-574.4716563668269
-569.7840848401618
-427.49675745784697
-279.3499656672007
-188.03997863736936
-136.86732280460822
-97.3159380483711
-71.8272678721294
-57.08094911116198
-39.5025558861677
-25.439841306172273
-21.63118944075685
-16.260013733119706
-8.252079041733426
-7.275501640344854
-7.373159380483711
-2.5879301136797133
-1.2207217517357138
-3.36919203479057
-1.2207217517357138
1.0254062714579995
-1.0254062714579995
-0.9277485313191425
1.416037232013428
0.34180209048599985
-0.8300907911802854
1.2207217517357138
1.416037232013428
-0.43945983062485694
0.537117570763714
1.7090104524299992
0.04882887006942855
-0.04882887006942855
1.416037232013428
0.6347753109025711
-0.14648661020828566
1.0254062714579995
1.2207217517357138
0.04882887006942855
0.537117570763714
1.1230640115968566
0.24414435034714274
0.24414435034714274
1.2207217517357138
0.6347753109025711
0.04882887006942855
0.7324330510414282
0.7324330510414282
10.693522545204852
89.7962920576791
266.65445944914933
431.5007248035401
485.01716639963377
450.93461509117265
371.44121461814296
278.56870374608985
197.80575265125506
136.76966506446936
100.63630121309224
78.76096742198825
55.22545204852369
37.4517433432517
30.811017013809415
22.510109102006563
12.84199282825971
11.08415350576028
10.009918364232853
4.345769436179141
2.8809033340962844
4.736400396734569
1.9043259327077133
-0.24414435034714274
1.9043259327077133
1.416037232013428
-1.1230640115968566
0.14648661020828566
1.3183794918745708
-0.9277485313191425
-0.8300907911802854
0.8300907911802854
-0.34180209048599985
-1.3183794918745708
0.34180209048599985
0.14648661020828566
-1.2207217517357138
-0.24414435034714274
0.43945983062485694
-0.8300907911802854
-0.7324330510414282
0.34180209048599985
-0.34180209048599985
-0.9277485313191425
0.04882887006942855
0.04882887006942855
-0.8300907911802854
-0.24414435034714274
0.14648661020828566
-0.6347753109025711
-0.537117570763714
0.04882887006942855
-0.34180209048599985
-0.7324330510414282
-0.04882887006942855
-0.04882887006942855
-0.6347753109025711
-0.34180209048599985
-0.04882887006942855
-0.537117570763714
-0.537117570763714
-0.04882887006942855
-0.34180209048599985
-0.537117570763714
-0.14648661020828566
-0.14648661020828566
-0.537117570763714
-0.24414435034714274
-9.033340962844282
-100.34332799267567
-333.55001144426643
-561.1902037079424
-593.9055466544595
-460.6027313649195
-301.5182726787213
-199.46593423361563
-145.65651941710536
-103.56603341725796
-74.36636911573969
-60.401312275883114
-43.311207751583126
-26.416418707560844
-22.21713588158999
-18.310826276035705
-8.838025482566568
-6.591897459372854
-8.349736781872283
-3.36919203479057
-0.43945983062485694
-3.466849774929427
-2.0019836728465705
1.513694972152285
-0.8300907911802854
-1.9043259327077133
1.3183794918745708
0.8300907911802854
-1.416037232013428
0.6347753109025711
1.8066681925688564
-0.6347753109025711
-0.14648661020828566
1.8066681925688564
0.24414435034714274
-0.43945983062485694
1.513694972152285
1.1230640115968566
-0.34180209048599985
0.7324330510414282
1.3183794918745708
-0.04882887006942855
0.24414435034714274
1.416037232013428
0.43945983062485694
0.04882887006942855
1.1230640115968566
0.8300907911802854
-0.04882887006942855
0.6347753109025711
1.1230640115968566
0.14648661020828566
7.861448081177996
92.43305104142824
314.21377889677274
541.7563134203098
589.9015793087663
471.2474250400549
315.6786449988556
210.01297016861218
151.90661478599222
107.5700007629511
77.4914168001831
62.54978255893797
44.873731593804834
27.97894254978256
23.19371328297856
18.994430457007706
9.619287403677424
7.373159380483711
8.74036774242771
3.7598229953459983
0.9277485313191425
3.8574807354848555
2.392614633401999
-1.0254062714579995
1.0254062714579995
2.0019836728465705
-1.1230640115968566
-0.6347753109025711
1.513694972152285
-0.43945983062485694
-1.416037232013428
0.8300907911802854
0.24414435034714274
-1.6113527122911422
-0.04882887006942855
0.6347753109025711
-1.1230640115968566
-0.7324330510414282
0.6347753109025711
-0.537117570763714
-1.1230640115968566
0.24414435034714274
0.04882887006942855
-1.1230640115968566
-0.14648661020828566
0.24414435034714274
-0.8300907911802854
-0.537117570763714
0.24414435034714274
-0.43945983062485694
-0.8300907911802854
0.04882887006942855
-0.04882887006942855
-0.7324330510414282
-0.14648661020828566
0.04882887006942855
-0.6347753109025711
-0.43945983062485694
0.04882887006942855
-0.34180209048599985
-0.6347753109025711
-0.04882887006942855
-0.14648661020828566
-0.6347753109025711
-0.34180209048599985
-0.14648661020828566
-0.537117570763714
-0.43945983062485694
-0.04882887006942855
-0.34180209048599985
-0.537117570763714
-0.14648661020828566
-0.24414435034714274
-0.43945983062485694
-0.24414435034714274
-0.14648661020828566
-0.43945983062485694
-0.34180209048599985
-0.14648661020828566
-0.34180209048599985
-0.43945983062485694
-14.892805371175708
-127.98046845197223
-382.0859082932784
-593.6125734340429
-585.8976119630731
-430.3288319218738
-274.6623941405356
-184.32898451209277
-136.86732280460822
-96.33936064698253
-70.06942854962998
-57.56923781185626
-39.69787136644541
-24.17029068436713
-21.728847180895706
-17.236591134508277
-7.568474860761425
-6.787212939650568
-8.252079041733426
-2.2949568932631417
-0.24414435034714274
-3.7598229953459983
-1.513694972152285
1.7090104524299992
-1.2207217517357138
-1.6113527122911422
1.9043259327077133
0.6347753109025711
-1.513694972152285
1.1230640115968566
1.7090104524299992
-0.9277485313191425
0.14648661020828566
2.0996414129854277
0.04882887006942855
-0.34180209048599985
1.7090104524299992
0.8300907911802854
-0.537117570763714
0.9277485313191425
1.3183794918745708
-0.14648661020828566
0.43945983062485694
1.513694972152285
0.14648661020828566
0.04882887006942855
1.2207217517357138
22.314793621728846
87.15953307392996
179.73907072556648
299.85809109636074
424.9576562142367
463.92309452964065
410.01602197299155
326.7139696345464
245.0720988784619
180.71564812695507
128.76173037308308
87.15953307392996
65.57717250324254
51.31914244296941
33.545433737697415
23.682001983672848
21.14290074006256
13.525597009231708
7.177843900205997
8.252079041733426
6.39658197909514
1.416037232013428
2.2949568932631417
3.5645075150682843
0.04882887006942855
-0.43945983062485694
2.0019836728465705
0.24414435034714274
-1.416037232013428
0.7324330510414282
0.7324330510414282
-1.416037232013428
-0.24414435034714274
0.9277485313191425
-0.8300907911802854
-0.9277485313191425
0.6347753109025711
-0.24414435034714274
-1.2207217517357138
0.14648661020828566
0.14648661020828566
-1.1230640115968566
-0.34180209048599985
0.34180209048599985
-0.7324330510414282
-0.7324330510414282
0.24414435034714274
-0.24414435034714274
-0.8300907911802854
0.04882887006942855
0.04882887006942855
-0.7324330510414282
-0.34180209048599985
0.04882887006942855
-0.6347753109025711
-0.6347753109025711
0.04882887006942855
-0.34180209048599985
-0.6347753109025711
-0.14648661020828566
-0.04882887006942855
-0.6347753109025711
-0.34180209048599985
-0.04882887006942855
-0.43945983062485694
-0.43945983062485694
-0.04882887006942855
-0.24414435034714274
-0.537117570763714
-0.14648661020828566
-0.14648661020828566
-0.43945983062485694
-0.34180209048599985
-0.14648661020828566
-0.34180209048599985
-7.177843900205997
-73.78042267490653
-266.36148622873276
-501.03303578240633
-592.2453650720989
-501.3260090028229
-344.3900205996796
-224.46631570916304
-158.25436789501794
-114.69901579308767
-81.88601510643167
-63.33104448004883
-47.998779278248264
-31.201647974364842
-22.803082322423133
-19.18974593728542
-11.670099946593423
-6.982528419928283
-7.568474860761425
-5.0293736171511405
-1.3183794918745708
-2.490272373540856
-2.68558785381857
0.34180209048599985
0.04882887006942855
-1.513694972152285
0.24414435034714274
1.2207217517357138
-0.6347753109025711
-0.04882887006942855
1.513694972152285
0.34180209048599985
-0.04882887006942855
1.3183794918745708
0.8300907911802854
-0.24414435034714274
0.7324330510414282
1.2207217517357138
0.04882887006942855
0.43945983062485694
1.3183794918745708
0.43945983062485694
0.04882887006942855
0.9277485313191425
0.6347753109025711
-0.04882887006942855
0.7324330510414282
1.1230640115968566
0.34180209048599985
0.43945983062485694
1.1230640115968566
0.6347753109025711
0.34180209048599985
0.9277485313191425
59.32707713435569
263.72472724498357
499.7634851606012
536.7757686732281
379.1561760891127
163.62554360265506
-45.75265125505455
-149.2698558022431
-90.96818493934539
5.71297779812314
71.72961013199054
162.35599298084992
256.10742351415274
283.0609597924773
225.9311818112459
134.81651026169223
87.94079499504082
76.31952391851682
47.998779278248264
27.588311589227132
32.95948729686427
24.072632944228275
5.71297779812314
10.595864805065995
14.209201190203707
0.24414435034714274
0.04882887006942855
9.033340962844282
1.2207217517357138
-4.345769436179141
4.541084916456855
3.2715342946517127
-4.834058136873426
0.537117570763714
4.345769436179141
-3.076218814373999
-2.2949568932631417
3.7598229953459983
-0.537117570763714
-3.662165255207141
2.0019836728465705
1.416037232013428
-3.466849774929427
0.04882887006942855
2.392614633401999
-2.197299153124285
-1.7090104524299992
2.0019836728465705
-0.537117570763714
-2.490272373540856
1.0254062714579995
0.7324330510414282
-2.2949568932631417
-0.14648661020828566
1.3183794918745708
-1.416037232013428
-1.1230640115968566
1.1230640115968566
-0.43945983062485694
-1.6113527122911422
0.537117570763714
0.24414435034714274
-1.513694972152285
-0.14648661020828566
0.6347753109025711
-1.0254062714579995
-0.8300907911802854
0.6347753109025711
-0.34180209048599985
-1.1230640115968566
0.14648661020828566
0.04882887006942855
-1.0254062714579995
-0.24414435034714274
0.24414435034714274
-0.7324330510414282
-0.6347753109025711
0.24414435034714274
-0.34180209048599985
-0.9277485313191425
-0.04882887006942855
-0.04882887006942855
-0.8300907911802854
-0.24414435034714274
-24.853894865339132
-159.9145494773785
-413.62935835812925
-596.2493324177921
-566.9520103761349
-409.6253910124361
-261.96688792248415
-178.17654688334477
-131.69146257724879
-92.5307087815671
-68.4092469672694
-55.51842526894026
-37.549401083390556
-23.682001983672848
-21.43587396047913
-15.967040512703136
-7.080186160067139
-6.982528419928283
-7.568474860761425
-1.9043259327077133
-0.7324330510414282
-3.7598229953459983
-0.9277485313191425
1.513694972152285
-1.3183794918745708
-1.1230640115968566
1.8066681925688564
0.24414435034714274
-1.1230640115968566
1.416037232013428
1.3183794918745708
-0.9277485313191425
0.43945983062485694
1.7090104524299992
-0.14648661020828566
-0.14648661020828566
1.6113527122911422
0.537117570763714
-0.43945983062485694
1.0254062714579995
1.1230640115968566
-0.14648661020828566
0.6347753109025711
1.416037232013428
0.14648661020828566
42.529945830472265
214.50522621499962
467.1457999542229
601.4251926451515
535.2132448310064
374.37094682230867
240.77515831235218
168.21545738918135
123.19523918516823
86.47592889295797
66.3584344243534
52.39337758449683
33.838406958113985
23.291371023117417
21.14290074006256
13.720912489509422
6.884870679789426
8.154421301594567
6.6895551995117115
1.2207217517357138
2.0019836728465705
3.7598229953459983
0.04882887006942855
-0.6347753109025711
2.0996414129854277
0.43945983062485694
-1.6113527122911422
0.6347753109025711
0.9277485313191425
-1.513694972152285
-0.34180209048599985
1.0254062714579995
-0.8300907911802854
-1.1230640115968566
0.7324330510414282
-0.14648661020828566
-1.3183794918745708
0.14648661020828566
0.24414435034714274
-1.1230640115968566
-0.34180209048599985
0.43945983062485694
-0.6347753109025711
-0.8300907911802854
0.24414435034714274
-0.24414435034714274
-0.9277485313191425
-0.04882887006942855
0.04882887006942855
-0.9277485313191425
-0.43945983062485694
0.14648661020828566
-0.537117570763714
-0.6347753109025711
0.04882887006942855
-0.24414435034714274
-0.7324330510414282
-0.14648661020828566
-0.04882887006942855
-0.6347753109025711
-0.34180209048599985
0.04882887006942855
-0.43945983062485694
-0.43945983062485694
-0.04882887006942855
-0.24414435034714274
-0.537117570763714
-0.14648661020828566
-41.74868390936141
-211.28252079041732
-464.41138323033493
-601.2298771648738
-535.9945067521172
-375.2498664835584
-241.75173571374074
-168.3131151293202
-122.90226596475166
-86.76890211337454
-66.45609216449226
-52.10040436408026
-33.93606469825284
-23.48668650339513
-20.947585259784848
-13.427939269092851
-6.787212939650568
-7.763790341039139
-6.298924238956283
-1.1230640115968566
-1.8066681925688564
-3.36919203479057
-0.04882887006942855
0.7324330510414282
-1.6113527122911422
-0.04882887006942855
1.7090104524299992
-0.43945983062485694
-0.537117570763714
1.6113527122911422
0.537117570763714
-0.6347753109025711
1.2207217517357138
1.416037232013428
-0.34180209048599985
0.43945983062485694
1.513694972152285
0.04882887006942855
-0.04882887006942855
1.3183794918745708
0.7324330510414282
-0.04882887006942855
0.9277485313191425
1.1230640115968566
0.04882887006942855
0.537117570763714
1.1230640115968566
0.34180209048599985
0.24414435034714274
1.0254062714579995
0.6347753109025711
0.04882887006942855
6.494239719233997
100.7339589532311
354.15579461356526
591.1711299305714
603.4760051880675
448.7861448081178
285.4047455558099
190.1884489204242
141.7502098115511
99.56206607156481
71.8272678721294
60.01068131532769
41.74868390936141
24.65857938506142
22.510109102006563
18.40848401617456
7.763790341039139
6.884870679789426
9.228656443121995
2.8809033340962844
0.24414435034714274
4.541084916456855
2.0996414129854277
-1.9043259327077133
1.416037232013428
2.2949568932631417
-1.8066681925688564
-0.537117570763714
2.0996414129854277
-0.8300907911802854
-1.7090104524299992
1.3183794918745708
0.14648661020828566
-2.0996414129854277
0.14648661020828566
0.8300907911802854
-1.513694972152285
-0.6347753109025711
0.9277485313191425
-0.7324330510414282
-1.2207217517357138
0.6347753109025711
-0.04882887006942855
-1.416037232013428
0.04882887006942855
0.34180209048599985
-1.1230640115968566
-0.537117570763714
0.43945983062485694
-0.537117570763714
-0.9277485313191425
0.24414435034714274
-0.04882887006942855
-0.9277485313191425
-0.04882887006942855
0.04882887006942855
-0.7324330510414282
-0.43945983062485694
0.14648661020828566
-0.43945983062485694
-0.6347753109025711
0.04882887006942855
-0.14648661020828566
-0.7324330510414282
-0.24414435034714274
-0.04882887006942855
-0.6347753109025711
-0.43945983062485694
0.04882887006942855
-0.43945983062485694
-0.537117570763714
-0.04882887006942855
-0.24414435034714274
-0.537117570763714
-0.24414435034714274
-0.04882887006942855
-0.43945983062485694
-0.34180209048599985
-0.04882887006942855
-0.34180209048599985
-0.43945983062485694
-0.14648661020828566
-0.24414435034714274
-0.43945983062485694
-0.24414435034714274
-50.73319600213626
-238.82200350957504
-491.8532082093538
-603.9642938887617
-519.4903486686503
-357.2808422980087
-231.20469977874419
-163.13725490196077
-118.31235217822538
-83.54619668879225
-65.08888380254825
-49.85427634088655
-31.68993667505913
-23.096055542839704
-20.361638818951704
-12.158388647287708
-6.6895551995117115
-8.154421301594567
-5.517662317845426
-0.8300907911802854
-2.392614633401999
-3.076218814373999
0.537117570763714
0.34180209048599985
-2.0019836728465705
0.24414435034714274
1.6113527122911422
-0.7324330510414282
-0.24414435034714274
1.8066681925688564
0.34180209048599985
-0.43945983062485694
1.416037232013428
1.0254062714579995
-0.537117570763714
0.6347753109025711
1.416037232013428
-0.04882887006942855
0.24414435034714274
1.513694972152285
0.43945983062485694
0.04882887006942855
1.1230640115968566
0.9277485313191425
0.04882887006942855
0.6347753109025711
1.1230640115968566
0.14648661020828566
0.24414435034714274
42.62760357061112
211.0872053101396
464.11841000991836
602.0111390859846
536.5804531929504
375.34752422369723
242.5329976348516
168.9967193102922
122.8046082246128
86.96421759365225
67.13969634546426
52.10040436408026
33.74074921797513
23.87731746395056
21.045242999923705
13.427939269092851
7.275501640344854
8.252079041733426
6.298924238956283
1.513694972152285
2.392614633401999
3.466849774929427
0.04882887006942855
-0.24414435034714274
2.0019836728465705
0.14648661020828566
-1.3183794918745708
0.8300907911802854
0.6347753109025711
-1.416037232013428
-0.14648661020828566
0.8300907911802854
-0.9277485313191425
-0.9277485313191425
0.6347753109025711
-0.34180209048599985
-1.2207217517357138
0.14648661020828566
0.14648661020828566
-1.1230640115968566
-0.34180209048599985
0.34180209048599985
-0.7324330510414282
-0.7324330510414282
0.24414435034714274
-0.24414435034714274
-0.8300907911802854
0.04882887006942855
0.04882887006942855
-0.7324330510414282
-0.24414435034714274
0.04882887006942855
-0.537117570763714
-0.537117570763714
0.04882887006942855
-0.24414435034714274
-0.6347753109025711
-0.04882887006942855
-0.04882887006942855
-0.6347753109025711
-0.34180209048599985
-0.04882887006942855
-0.43945983062485694
-0.43945983062485694
-0.04882887006942855
-0.24414435034714274
-0.537117570763714
-0.14648661020828566
-0.14648661020828566
-0.43945983062485694
-0.24414435034714274
-0.14648661020828566
-0.43945983062485694
-4.638742656595713
-66.26077668421455
-259.330128938735
-500.74006256198976
-596.8352788586252
-506.0135805294881
-347.0267795834287
-225.73586633096818
-159.42626077668422
-115.48027771419852
-82.27664606698711
-63.819333180743115
-48.38941023880369
-31.103990234225986
-22.998397802700847
-19.678034637979707
-11.767757686732281
-6.982528419928283
-7.959105821316854
-5.127031357289998
-1.0254062714579995
-2.392614633401999
-2.783245593957427
0.43945983062485694
0.14648661020828566
-1.513694972152285
0.43945983062485694
1.3183794918745708
-0.6347753109025711
0.04882887006942855
1.7090104524299992
0.34180209048599985
-0.14648661020828566
1.416037232013428
0.9277485313191425
-0.24414435034714274
0.9277485313191425
1.416037232013428
0.04882887006942855
0.24414435034714274
1.3183794918745708
0.43945983062485694
0.04882887006942855
1.1230640115968566
0.9277485313191425
0.04882887006942855
0.6347753109025711
0.9277485313191425
0.14648661020828566
0.34180209048599985
0.9277485313191425
0.43945983062485694
0.14648661020828566
0.7324330510414282
0.537117570763714
0.14648661020828566
0.7324330510414282
39.99084458686198
203.3722438391699
456.89173723964296
601.3275349050126
540.87739375906
380.5233844510567
245.56038757915618
170.26626993209734
124.26947432669566
88.13611047531853
67.33501182574197
52.588693064774546
34.52201113908598
23.87731746395056
20.947585259784848
13.720912489509422
7.373159380483711
8.05676356145571
6.494239719233997
1.7090104524299992
2.197299153124285
3.466849774929427
0.24414435034714274
-0.34180209048599985
1.9043259327077133
0.43945983062485694
-1.3183794918745708
0.6347753109025711
0.7324330510414282
-1.3183794918745708
-0.34180209048599985
0.8300907911802854
-0.7324330510414282
-1.0254062714579995
0.537117570763714
-0.14648661020828566
-1.1230640115968566
0.04882887006942855
0.14648661020828566
-1.1230640115968566
-0.43945983062485694
0.24414435034714274
-0.6347753109025711
-0.7324330510414282
0.14648661020828566
-0.24414435034714274
-0.8300907911802854
-0.04882887006942855
0.04882887006942855
-0.7324330510414282
-0.34180209048599985
0.04882887006942855
-0.537117570763714
-0.537117570763714
0.04882887006942855
-13.623254749370565
-56.59266041046769
-86.08529793240254
-48.48706797894255
19.971007858396277
53.95590142671855
45.75265125505455
24.853894865339132
14.892805371175708
12.158388647287708
6.6895551995117115
4.345769436179141
5.908293278400855
3.36919203479057
0.34180209048599985
2.0019836728465705
1.9043259327077133
-0.7324330510414282
0.04882887006942855
1.416037232013428
-0.43945983062485694
-0.9277485313191425
0.8300907911802854
0.04882887006942855
-1.2207217517357138
0.04882887006942855
0.34180209048599985
-1.0254062714579995
-0.43945983062485694
0.43945983062485694
-30.71335927367056
-176.02807660028992
-428.47333485923554
-597.8118562600138
-557.96749828336
-398.59006637674526
-255.5214770733196
-175.8327611200122
-129.05470359349965
-90.47989623865111
-68.4092469672694
-54.7371633478294
-35.98687724116884
-23.682001983672848
-21.43587396047913
-14.697489890897993
-6.884870679789426
-7.666132600900283
-7.080186160067139
-1.416037232013428
-1.416037232013428
-3.662165255207141
-0.14648661020828566
1.3183794918745708
-1.7090104524299992
-0.7324330510414282
1.8066681925688564
-0.24414435034714274
-1.0254062714579995
1.513694972152285
1.0254062714579995
-0.7324330510414282
0.8300907911802854
1.6113527122911422
-0.24414435034714274
0.24414435034714274
1.8066681925688564
0.34180209048599985
-0.04882887006942855
1.416037232013428
0.9277485313191425
-0.34180209048599985
0.7324330510414282
1.2207217517357138
0.04882887006942855
0.34180209048599985
1.3183794918745708
0.43945983062485694
25.049210345616846
144.28931105516136
342.2415503166247
478.6694132906081
492.14618142977037
429.2545967803464
334.526588845655
244.48615243762876
170.65690089265277
115.87090867475395
86.67124437323568
66.65140764476998
44.873731593804834
32.27588311589227
27.1976806286717
17.724879835202564
10.400549324788281
10.693522545204852
7.959105821316854
2.68558785381857
3.36919203479057
4.248111696040284
0.43945983062485694
0.04882887006942855
2.2949568932631417
0.34180209048599985
-1.2207217517357138
0.9277485313191425
0.7324330510414282
-1.3183794918745708
-0.14648661020828566
0.8300907911802854
-1.0254062714579995
-0.9277485313191425
0.6347753109025711
-0.34180209048599985
-1.2207217517357138
0.14648661020828566
0.14648661020828566
-1.1230640115968566
-0.24414435034714274
0.34180209048599985
-0.7324330510414282
-0.7324330510414282
0.24414435034714274
-0.24414435034714274
-0.8300907911802854
0.04882887006942855
0.04882887006942855
-0.7324330510414282
-0.24414435034714274
0.04882887006942855
-0.537117570763714
-0.537117570763714
0.04882887006942855
-0.34180209048599985
-0.6347753109025711
-0.04882887006942855
-0.04882887006942855
-0.6347753109025711
-0.24414435034714274
0.04882887006942855
-0.43945983062485694
-0.43945983062485694
-0.04882887006942855
-0.24414435034714274
-0.537117570763714
-0.14648661020828566
-0.14648661020828566
-0.43945983062485694
-0.24414435034714274
-0.14648661020828566
-13.427939269092851
-103.85900663767453
-318.02243076218815
-535.1155870908675
-583.944457160296
-468.90363927672234
-315.09269855802245
-208.1574731059739
-148.87922484168766
-106.8863965819791
-77.39375906004425
-60.79194323643854
-44.19012741283284
-28.467231250476843
-22.314793621728846
-18.017853055619135
-10.10757610437171
-7.177843900205997
-7.568474860761425
-3.7598229953459983
-1.0254062714579995
-2.8809033340962844
-1.9043259327077133
0.7324330510414282
-0.43945983062485694
-1.3183794918745708
0.9277485313191425
0.9277485313191425
-0.7324330510414282
0.537117570763714
1.416037232013428
-0.04882887006942855
0.04882887006942855
1.416037232013428
0.43945983062485694
-0.14648661020828566
1.1230640115968566
0.9277485313191425
-0.04882887006942855
0.6347753109025711
1.1230640115968566
0.14648661020828566
0.24414435034714274
1.2207217517357138
0.537117570763714
0.04882887006942855
0.9277485313191425
0.8300907911802854
0.04882887006942855
0.537117570763714
0.9277485313191425
0.34180209048599985
19.287403677424276
105.12855725947966
278.6663614862287
472.0286869611658
557.4792095826657
489.1187914854658
350.54245822842756
233.25551232166018
160.7934691386282
116.06622415503166
84.71808957045853
63.6240177004654
47.412832837415124
33.05714503700313
23.682001983672848
18.310826276035705
12.549019607843137
8.349736781872283
6.982528419928283
5.0293736171511405
2.5879301136797133
2.2949568932631417
2.197299153124285
0.6347753109025711
0.34180209048599985
0.9277485313191425
0.14648661020828566
-0.34180209048599985
0.14648661020828566
0.04882887006942855
-0.537117570763714
-0.14648661020828566
0.04882887006942855
-0.43945983062485694
-0.43945983062485694
0.04882887006942855
-0.24414435034714274
-0.537117570763714
-0.04882887006942855
-0.14648661020828566
-0.537117570763714
-0.24414435034714274
-0.04882887006942855
-0.43945983062485694
-0.43945983062485694
-0.14648661020828566
-0.34180209048599985
-0.537117570763714
-0.24414435034714274
-0.24414435034714274
-0.43945983062485694
-0.34180209048599985
-0.14648661020828566
-0.34180209048599985
-0.34180209048599985
-0.14648661020828566
-0.24414435034714274
-0.34180209048599985
-0.24414435034714274
-0.24414435034714274
-0.34180209048599985
-0.24414435034714274
-0.24414435034714274
-0.34180209048599985
-0.34180209048599985
-0.24414435034714274
-0.24414435034714274
-0.34180209048599985
-0.24414435034714274
-0.24414435034714274
-0.34180209048599985
-0.34180209048599985
-0.24414435034714274
-0.34180209048599985
-0.34180209048599985
-41.26039520866713
-203.76287479972532
-445.8564126039521
-584.7257190814069
-535.6038757915618
-386.77347981994353
-253.86129549095904
-175.34447241931792
-126.41794460975052
-89.89394979781795
-68.4092469672694
-52.6863508049134
-35.10795757991913
-24.65857938506142
-20.84992751964599
-13.623254749370565
-7.666132600900283
-7.861448081177996
-6.005951018539712
-1.7090104524299992
-2.197299153124285
-2.9785610742351416
-0.04882887006942855
0.43945983062485694
-1.3183794918745708
0.04882887006942855
1.416037232013428
-0.34180209048599985
-0.43945983062485694
1.3183794918745708
0.6347753109025711
-0.34180209048599985
0.9277485313191425
1.0254062714579995
-0.14648661020828566
0.537117570763714
1.416037232013428
0.34180209048599985
0.24414435034714274
1.3183794918745708
0.7324330510414282
0.04882887006942855
0.7324330510414282
0.8300907911802854
0.04882887006942855
0.537117570763714
1.0254062714579995
0.43945983062485694
0.43945983062485694
0.9277485313191425
0.537117570763714
35.98687724116884
187.25871671625848
417.6333257038224
550.1548790722514
515.3887235828183
396.734569314107
280.1312275883116
199.46593423361563
141.84786755168994
98.19485770962082
74.65934233615626
57.86221103227283
38.1353475242237
27.100022888532845
23.48668650339513
15.088120851453422
8.44739452201114
9.228656443121995
6.982528419928283
1.9043259327077133
2.783245593957427
3.8574807354848555
0.24414435034714274
-0.14648661020828566
2.0996414129854277
0.24414435034714274
-1.3183794918745708
0.8300907911802854
0.7324330510414282
-1.416037232013428
-0.14648661020828566
0.9277485313191425
-0.9277485313191425
-0.9277485313191425
0.6347753109025711
-0.24414435034714274
-1.2207217517357138
0.04882887006942855
0.04882887006942855
-1.1230640115968566
-0.34180209048599985
0.34180209048599985
-0.7324330510414282
-0.7324330510414282
0.24414435034714274
-0.24414435034714274
-0.8300907911802854
0.04882887006942855
0.04882887006942855
-0.7324330510414282
-0.24414435034714274
0.04882887006942855
-0.537117570763714
-0.537117570763714
0.04882887006942855
-0.34180209048599985
-0.6347753109025711
-0.04882887006942855
-0.04882887006942855
-0.6347753109025711
-0.24414435034714274
0.04882887006942855
-0.43945983062485694
-0.43945983062485694
-0.04882887006942855
-0.24414435034714274
-0.537117570763714
-0.14648661020828566
-0.14648661020828566
-13.232623788815136
-90.2845807583734
-277.9827573052567
-496.1501487754635
-580.6240939955749
-493.0251010910201
-341.4602883955138
-223.6850537880522
-156.3012130922408
-113.42946517128252
-81.88601510643167
-62.45212481879911
-46.92454413672083
-31.396963454642556
-22.705424582284277
-18.40848401617456
-11.767757686732281
-7.373159380483711
-7.177843900205997
-4.834058136873426
-1.6113527122911422
-2.0996414129854277
-2.197299153124285
0.04882887006942855
0.04882887006942855
-1.0254062714579995
0.04882887006942855
0.7324330510414282
-0.43945983062485694
-0.04882887006942855
1.1230640115968566
0.34180209048599985
0.04882887006942855
1.1230640115968566
0.8300907911802854
0.04882887006942855
0.6347753109025711
1.0254062714579995
0.14648661020828566
0.34180209048599985
1.1230640115968566
0.537117570763714
0.14648661020828566
0.8300907911802854
0.7324330510414282
0.24414435034714274
0.7324330510414282
0.9277485313191425
0.34180209048599985
0.43945983062485694
0.8300907911802854
0.43945983062485694
0.24414435034714274
0.6347753109025711
0.6347753109025711
7.275501640344854
57.37392233157855
207.66918440527962
429.54757000076296
569.1981383993286
532.2835126268407
390.77744716563666
257.47463187609674
175.8327611200122
127.29686427100023
91.26115815976196
68.21393148699168
52.78400854505226
36.37750820172427
24.853894865339132
20.45929655909056
14.599832150759136
8.349736781872283
7.470817120622568
6.39658197909514
2.5879301136797133
2.0019836728465705
3.076218814373999
0.9277485313191425
-0.24414435034714274
1.3183794918745708
0.6347753109025711
-0.9277485313191425
0.14648661020828566
0.6347753109025711
-0.7324330510414282
-0.537117570763714
0.537117570763714
-0.34180209048599985
-0.8300907911802854
0.14648661020828566
-0.04882887006942855
-1.0254062714579995
-0.24414435034714274
0.04882887006942855
-0.7324330510414282
-0.537117570763714
0.14648661020828566
-0.43945983062485694
-0.7324330510414282
0.04882887006942855
-0.14648661020828566
-0.7324330510414282
-0.24414435034714274
0.04882887006942855
-0.537117570763714
-0.43945983062485694
0.04882887006942855
-0.34180209048599985
-0.537117570763714
-0.04882887006942855
-0.14648661020828566
-0.537117570763714
-0.24414435034714274
-0.14648661020828566
-0.43945983062485694
-0.34180209048599985
-0.04882887006942855
-0.34180209048599985
-0.43945983062485694
-0.14648661020828566
-0.24414435034714274
-0.43945983062485694
-0.34180209048599985
-0.24414435034714274
-0.43945983062485694
-0.43945983062485694
-0.14648661020828566
-0.34180209048599985
-0.43945983062485694
-0.24414435034714274
-0.24414435034714274
-0.43945983062485694
-21.826504921034562
-140.28534370946824
-375.6404974441138
-568.4168764782178
-570.5653467612726
-432.77027542534523
-284.4281681544213
-190.8720531013962
-138.42984664682993
-98.6831464103151
-72.41321431296254
-57.27626459143969
-40.186160067139696
-26.025787747005417
-21.728847180895706
-16.55298695353628
-8.642710002288853
-7.080186160067139
-7.177843900205997
-2.783245593957427
-1.2207217517357138
-3.2715342946517127
-1.3183794918745708
0.8300907911802854
-1.0254062714579995
-1.1230640115968566
1.416037232013428
0.6347753109025711
-0.8300907911802854
0.9277485313191425
1.2207217517357138
-0.34180209048599985
0.34180209048599985
1.513694972152285
0.04882887006942855
-0.04882887006942855
1.3183794918745708
0.7324330510414282
-0.04882887006942855
0.9277485313191425
1.1230640115968566
0.04882887006942855
0.43945983062485694
1.1230640115968566
0.14648661020828566
0.14648661020828566
1.1230640115968566
0.7324330510414282
0.14648661020828566
24.853894865339132
106.30045014114596
235.79461356527045
387.9453727016098
502.79087510490575
501.3260090028229
398.8830395971618
275.3459983215076
182.76646066987107
129.54299229419394
96.33936064698253
69.19050888838025
51.02616922255284
39.20958266575113
27.100022888532845
18.40848401617456
15.088120851453422
10.888838025482567
6.201266498817426
5.420004577706569
4.736400396734569
1.9043259327077133
1.3183794918745708
2.0996414129854277
0.6347753109025711
-0.34180209048599985
0.7324330510414282
0.43945983062485694
-0.7324330510414282
0.04882887006942855
0.34180209048599985
-0.6347753109025711
-0.537117570763714
0.24414435034714274
-0.34180209048599985
-0.7324330510414282
0.04882887006942855
-0.04882887006942855
-0.7324330510414282
-0.24414435034714274
0.04882887006942855
-0.537117570763714
-0.43945983062485694
0.04882887006942855
-0.34180209048599985
-0.6347753109025711
-0.04882887006942855
-0.14648661020828566
-0.537117570763714
-0.24414435034714274
-0.04882887006942855
-0.43945983062485694
-0.34180209048599985
-0.04882887006942855
-0.34180209048599985
-0.537117570763714
-0.24414435034714274
-0.24414435034714274
-0.537117570763714
-0.24414435034714274
-0.14648661020828566
-0.43945983062485694
-0.34180209048599985
-0.14648661020828566
-0.34180209048599985
-0.43945983062485694
-0.24414435034714274
-0.24414435034714274
-0.43945983062485694
-0.24414435034714274
-0.14648661020828566
-5.224689097428855
-59.522392614633404
-233.93911650263217
-473.8841840238041
-593.4172579537652
-521.2481879911497
-364.1168841077287
-235.98992904554817
-164.30914778362708
-119.67956054016938
-85.30403601129167
-65.18654154268711
-50.24490730144198
-33.05714503700313
-23.096055542839704
-19.775692378118563
-12.84199282825971
-7.080186160067139
-7.470817120622568
-5.615320057984283
-1.416037232013428
-2.0996414129854277
-3.076218814373999
-0.04882887006942855
0.43945983062485694
-1.416037232013428
0.04882887006942855
1.513694972152285
-0.14648661020828566
-0.24414435034714274
1.513694972152285
0.43945983062485694
-0.537117570763714
0.9277485313191425
1.0254062714579995
-0.14648661020828566
0.43945983062485694
1.3183794918745708
0.24414435034714274
0.24414435034714274
1.2207217517357138
0.6347753109025711
0.04882887006942855
0.8300907911802854
0.7324330510414282
-0.04882887006942855
0.43945983062485694
1.0254062714579995
0.34180209048599985
0.34180209048599985
1.1230640115968566
0.7324330510414282
16.260013733119706
92.33539330128939
261.96688792248415
469.58724345769434
570.8583199816892
502.6932173647669
355.6206607156481
232.86488136110475
160.7934691386282
117.3357747768368
84.62043183031967
63.526359960326545
48.584725719081405
33.3501182574197
23.19371328297856
18.89677271686885
13.13496604867628
7.861448081177996
7.080186160067139
5.71297779812314
2.2949568932631417
2.0019836728465705
2.68558785381857
0.6347753109025711
-0.04882887006942855
1.2207217517357138
0.43945983062485694
-0.7324330510414282
0.14648661020828566
0.43945983062485694
-0.7324330510414282
-0.34180209048599985
0.34180209048599985
-0.537117570763714
-0.8300907911802854
0.04882887006942855
-0.14648661020828566
-0.8300907911802854
-0.14648661020828566
0.04882887006942855
-0.6347753109025711
-0.43945983062485694
0.04882887006942855
-0.43945983062485694
-0.537117570763714
0.04882887006942855
-0.24414435034714274
-0.6347753109025711
-0.14648661020828566
-0.04882887006942855
-0.537117570763714
-0.34180209048599985
-0.04882887006942855
-0.34180209048599985
-0.43945983062485694
-0.04882887006942855
-0.24414435034714274
-0.537117570763714
-0.24414435034714274
-0.14648661020828566
-0.43945983062485694
-0.34180209048599985
-0.14648661020828566
-0.34180209048599985
-0.43945983062485694
-0.24414435034714274
-0.34180209048599985
-0.43945983062485694
-0.24414435034714274
-0.24414435034714274
-0.43945983062485694
-0.34180209048599985
-0.24414435034714274
-0.34180209048599985
-0.34180209048599985
-0.24414435034714274
-0.24414435034714274
-0.34180209048599985
-0.24414435034714274
-21.728847180895706
-149.17219806210423
-402.88700694285495
-595.5657282368201
-573.4950789654383
-416.4614328221561
-266.2638284885939
-180.2273594262608
-133.15632867933166
-93.8979171435111
-69.19050888838025
-56.20202944991226
-38.23300526436255
-23.974975204089418
-21.43587396047913
-16.16235599298085
-7.275501640344854
-6.982528419928283
-7.763790341039139
-2.0996414129854277
-0.7324330510414282
-3.662165255207141
-1.0254062714579995
1.513694972152285
-1.2207217517357138
-1.2207217517357138
1.7090104524299992
0.24414435034714274
-1.2207217517357138
1.3183794918745708
1.416037232013428
-0.7324330510414282
0.537117570763714
1.9043259327077133
-0.04882887006942855
-0.14648661020828566
1.6113527122911422
0.537117570763714
-0.34180209048599985
1.2207217517357138
1.2207217517357138
-0.24414435034714274
0.43945983062485694
1.3183794918745708
0.14648661020828566
0.14648661020828566
1.2207217517357138
0.537117570763714
0.04882887006942855
0.9277485313191425
21.92416266117342
130.71488517586022
329.741359578851
481.40383001449607
505.81826504921037
442.0477607385367
339.8977645532921
243.11894407568474
168.1177996490425
115.48027771419852
86.57358663309682
65.96780346379796
45.069047074082555
32.764171816586554
26.709391927977418
17.52956435492485
10.986495765621424
10.498207064927138
7.470817120622568
2.9785610742351416
3.466849774929427
3.662165255207141
0.537117570763714
0.34180209048599985
2.0019836728465705
0.24414435034714274
-0.8300907911802854
0.8300907911802854
0.43945983062485694
-1.1230640115968566
-0.04882887006942855
0.6347753109025711
-0.8300907911802854
-0.6347753109025711
0.43945983062485694
-0.34180209048599985
-0.9277485313191425
0.14648661020828566
0.04882887006942855
-0.9277485313191425
-0.24414435034714274
0.14648661020828566
-0.6347753109025711
-0.537117570763714
0.14648661020828566
-0.34180209048599985
-0.7324330510414282
0.04882887006942855
-0.04882887006942855
-0.7324330510414282
-0.24414435034714274
-0.04882887006942855
-0.6347753109025711
-0.537117570763714
0.04882887006942855
-0.34180209048599985
-0.6347753109025711
-0.14648661020828566
-0.14648661020828566
-0.537117570763714
-0.24414435034714274
-0.04882887006942855
-0.43945983062485694
-0.43945983062485694
-0.14648661020828566
-0.34180209048599985
-0.43945983062485694
-0.14648661020828566
-55.61608300907912
-253.9589532310979
-506.79484245059894
-605.4291599908446
-510.40817883573663
-347.1244373235676
-225.2475776302739
-160.30518043793393
-115.77325093461509
-81.88601510643167
-64.50293736171511
-48.97535667963683
-30.615701533531702
-22.998397802700847
-20.263981078812847
-11.47478446631571
-6.591897459372854
-8.252079041733426
-5.0293736171511405
-0.6347753109025711
-2.68558785381857
-2.9785610742351416
0.9277485313191425
0.24414435034714274
-1.9043259327077133
0.537117570763714
1.416037232013428
-1.0254062714579995
-0.04882887006942855
1.9043259327077133
0.04882887006942855
-0.537117570763714
1.513694972152285
0.9277485313191425
-0.43945983062485694
0.9277485313191425
1.416037232013428
-0.24414435034714274
0.24414435034714274
1.513694972152285
0.34180209048599985
0.04882887006942855
1.2207217517357138
0.8300907911802854
-0.04882887006942855
0.8300907911802854
1.1230640115968566
0.04882887006942855
0.43945983062485694
1.2207217517357138
0.43945983062485694
0.14648661020828566
0.9277485313191425
10.498207064927138
75.63591973754482
253.08003356984818
479.3530174715801
584.4327458609903
509.23628595407035
356.4995803768978
231.98596169985504
161.18410009918364
117.92172121766994
84.42511635004196
63.819333180743115
49.17067215991455
33.05714503700313
22.998397802700847
19.385061417563133
13.13496604867628
7.470817120622568
7.373159380483711
5.908293278400855
2.0019836728465705
2.0019836728465705
2.9785610742351416
0.537117570763714
-0.14648661020828566
1.416037232013428
0.34180209048599985
-0.9277485313191425
0.34180209048599985
0.537117570763714
-0.9277485313191425
-0.34180209048599985
0.537117570763714
-0.6347753109025711
-0.9277485313191425
0.24414435034714274
-0.14648661020828566
-0.9277485313191425
-0.04882887006942855
0.04882887006942855
-0.8300907911802854
-36.0845349813077
-176.12573434042878
-380.1327534905013
-499.86114290074005
-491.5602349889372
-412.5551232166018
-312.9442282749676
-224.5639734493019
-154.93400473029678
-107.37468528267338
-81.5930418860151
-60.694285496299685
-40.86976424811169
-30.908674753948272
-24.853894865339132
-15.283436331731137
-10.302891584649425
19.18974593728542
166.94590676737621
424.37170977340355
593.9055466544595
555.233081559472
399.95727473868925
255.81445029373617
173.3913176165408
129.25001907377737
91.74944686045625
67.0420386053254
54.346532387273975
37.549401083390556
23.389028763256274
20.654612039368278
16.064698252841993
7.568474860761425
6.787212939650568
7.763790341039139
2.5879301136797133
0.8300907911802854
3.7598229953459983
1.513694972152285
-1.2207217517357138
1.3183794918745708
1.6113527122911422
-38.525978484779124
-197.0244907301442
-448.68848706797894
-600.6439307240406
-545.3696498054475
-383.2578011749447
-247.1229114213779
-172.31708247501336
-124.66010528725108
-87.64782177462425
-68.21393148699168
-53.07698176546884
-33.74074921797513
-23.87731746395056
-21.338216220340275
-13.13496604867628
-6.884870679789426
-8.44739452201114
-6.103608758678568
-0.9277485313191425
-2.2949568932631417
-3.466849774929427
0.34180209048599985
0.537117570763714
-2.0019836728465705
0.14648661020828566
1.8066681925688564
-0.6347753109025711
-0.43945983062485694
1.8066681925688564
0.34180209048599985
-0.6347753109025711
1.416037232013428
1.2207217517357138
-0.537117570763714
0.537117570763714
1.513694972152285
-0.04882887006942855
0.04882887006942855
1.513694972152285
0.6347753109025711
-0.04882887006942855
40.67444876783398
187.55168993667505
382.7695124742504
485.2124818799115
474.7631036850538
406.7933165484092
317.7294575417716
232.47425040054932
158.5473411154345
108.2536049439231
84.03448538948653
62.35446707866026
40.57679102769512
32.08056763561456
26.318760967421987
14.892805371175708
10.302891584649425
11.377126726176853
6.201266498817426
1.9043259327077133
4.541084916456855
3.5645075150682843
-0.6347753109025711
0.9277485313191425
2.5879301136797133
-0.7324330510414282
-0.8300907911802854
1.7090104524299992
-0.04882887006942855
-1.6113527122911422
0.6347753109025711
0.537117570763714
-1.513694972152285
-0.24414435034714274
0.8300907911802854
-1.0254062714579995
-0.9277485313191425
0.7324330510414282
-0.24414435034714274
-1.2207217517357138
0.14648661020828566
0.04882887006942855
-1.2207217517357138
-0.34180209048599985
0.34180209048599985
-0.7324330510414282
-0.7324330510414282
0.24414435034714274
-0.24414435034714274
-0.9277485313191425
0.04882887006942855
0.04882887006942855
-0.8300907911802854
-0.24414435034714274
0.04882887006942855
-0.537117570763714
-0.537117570763714
0.04882887006942855
-0.34180209048599985
-0.6347753109025711
-0.04882887006942855
-0.04882887006942855
-0.6347753109025711
-0.24414435034714274
0.04882887006942855
-0.43945983062485694
-0.43945983062485694
-0.04882887006942855
-0.34180209048599985
-0.6347753109025711
-0.24414435034714274
-0.14648661020828566
-0.537117570763714
-0.34180209048599985
-0.14648661020828566
-0.43945983062485694
-40.86976424811169
-207.66918440527962
-461.18867780575266
-601.3275349050126
-537.9476615548944
-377.3983367666133
-243.31425955596245
-168.9967193102922
-123.19523918516823
-87.35484855420768
-66.84672312504769
-52.10040436408026
-34.0337224383917
-23.58434424353399
-20.654612039368278
-13.427939269092851
-7.177843900205997
-7.861448081177996
-6.201266498817426
-1.3183794918745708
-1.9043259327077133
-3.076218814373999
0.04882887006942855
0.6347753109025711
-1.6113527122911422
-0.04882887006942855
1.6113527122911422
-0.43945983062485694
-0.537117570763714
1.513694972152285
0.6347753109025711
-0.537117570763714
1.0254062714579995
1.3183794918745708
-0.14648661020828566
0.537117570763714
1.416037232013428
0.04882887006942855
-0.04882887006942855
1.2207217517357138
0.7324330510414282
0.04882887006942855
1.1230640115968566
1.2207217517357138
0.04882887006942855
0.43945983062485694
1.0254062714579995
0.24414435034714274
45.654993514915695
205.13008316166935
419.1958495460441
545.3696498054475
523.78728923476
402.5940337224384
275.3459983215076
188.8212405584802
132.3750667582208
95.16746776531625
72.70618753337911
54.15121690699626
37.15877012283513
27.49065384908827
21.43587396047913
14.013885709925994
9.521629663538567
8.44739452201114
5.517662317845426
2.68558785381857
3.076218814373999
2.5879301136797133
0.43945983062485694
0.6347753109025711
1.3183794918745708
0.04882887006942855
-0.43945983062485694
0.6347753109025711
0.04882887006942855
-0.8300907911802854
0.04882887006942855
0.14648661020828566
-0.7324330510414282
-0.34180209048599985
0.24414435034714274
-0.43945983062485694
-0.6347753109025711
0.04882887006942855
-0.14648661020828566
-0.7324330510414282
-0.14648661020828566
-0.04882887006942855
-0.6347753109025711
-0.43945983062485694
0.04882887006942855
-0.43945983062485694
-0.537117570763714
-0.04882887006942855
-0.24414435034714274
-0.537117570763714
-0.14648661020828566
-0.14648661020828566
-0.43945983062485694
-0.34180209048599985
-0.04882887006942855
-0.34180209048599985
-0.43945983062485694
-0.14648661020828566
-0.24414435034714274
-0.43945983062485694
-0.24414435034714274
-0.14648661020828566
-0.43945983062485694
-0.34180209048599985
-0.14648661020828566
-0.34180209048599985
-0.34180209048599985
-0.24414435034714274
-0.34180209048599985
-0.43945983062485694
-0.34180209048599985
-0.24414435034714274
-0.34180209048599985
-0.34180209048599985
-0.24414435034714274
-0.34180209048599985
-0.34180209048599985
-0.24414435034714274
-0.34180209048599985
-0.34180209048599985
-0.24414435034714274
-0.24414435034714274
-2.5879301136797133
-60.59662775616083
-254.44724193179218
-501.42366674296176
-600.8392462043183
-509.43160143434807
-348.49164568551157
-226.41947051194018
-160.1098649576562
-115.67559319447624
-82.27664606698711
-64.50293736171511
-48.877698939497975
-31.00633249408713
-22.998397802700847
-19.87335011825742
-11.572442206454566
-6.787212939650568
-8.05676356145571
-5.224689097428855
-1.0254062714579995
-2.5879301136797133
-2.783245593957427
0.537117570763714
0.04882887006942855
-1.8066681925688564
0.34180209048599985
1.3183794918745708
-0.8300907911802854
-0.04882887006942855
1.7090104524299992
0.14648661020828566
-0.24414435034714274
1.513694972152285
0.9277485313191425
-0.34180209048599985
0.8300907911802854
1.416037232013428
0.04882887006942855
0.34180209048599985
1.416037232013428
0.34180209048599985
0.04882887006942855
1.0254062714579995
0.6347753109025711
-0.04882887006942855
0.7324330510414282
1.0254062714579995
0.24414435034714274
0.43945983062485694
1.0254062714579995
6.103608758678568
32.37354085603113
98.29251544975968
235.30632486457617
430.42648966201267
553.0846112764171
510.9941252765698
372.41779201953153
243.9002059967956
166.5552758068208
122.02334630350195
87.25719081406882
64.50293736171511
50.53788052185855
35.010299839780274
23.19371328297856
19.385061417563133
14.306858930342566
7.763790341039139
6.787212939650568
6.494239719233997
2.490272373540856
1.416037232013428
2.9785610742351416
1.1230640115968566
-0.43945983062485694
1.1230640115968566
0.9277485313191425
-0.9277485313191425
-0.04882887006942855
0.8300907911802854
-0.7324330510414282
-0.7324330510414282
0.537117570763714
-0.24414435034714274
-1.0254062714579995
0.04882887006942855
0.04882887006942855
-1.0254062714579995
-0.34180209048599985
0.24414435034714274
-0.6347753109025711
-0.6347753109025711
0.14648661020828566
-0.24414435034714274
-0.8300907911802854
-0.04882887006942855
0.04882887006942855
-0.7324330510414282
-0.34180209048599985
0.04882887006942855
-0.537117570763714
-0.537117570763714
0.04882887006942855
-0.24414435034714274
-0.537117570763714
-0.14648661020828566
-0.14648661020828566
-0.537117570763714
-0.24414435034714274
-0.04882887006942855
-0.43945983062485694
-0.43945983062485694
-0.04882887006942855
-0.34180209048599985
-0.537117570763714
-0.24414435034714274
-0.24414435034714274
-0.537117570763714
-0.34180209048599985
-0.14648661020828566
-0.34180209048599985
-0.43945983062485694
-0.14648661020828566
-0.24414435034714274
-0.43945983062485694
-0.24414435034714274
-13.037308308537423
-122.21866178377967
-376.12878614480815
-592.9289692530709
-589.7062638284885
-434.2351415274281
-276.81086442359043
-185.4032196536202
-137.74624246585793
-97.02296482795452
-70.4600595101854
-58.1551842526894
-40.186160067139696
-24.267948424505988
-21.826504921034562
-17.236591134508277
-7.275501640344854
-6.591897459372854
-8.44739452201114
-2.490272373540856
-0.24414435034714274
-3.9551384756237127
-1.513694972152285
1.8066681925688564
-1.2207217517357138
-1.7090104524299992
1.9043259327077133
0.6347753109025711
-1.6113527122911422
1.1230640115968566
1.7090104524299992
-1.0254062714579995
0.14648661020828566
2.197299153124285
0.04882887006942855
-0.43945983062485694
1.8066681925688564
0.9277485313191425
-0.43945983062485694
1.1230640115968566
1.513694972152285
-0.24414435034714274
0.34180209048599985
1.513694972152285
0.24414435034714274
0.04882887006942855
1.3183794918745708
0.7324330510414282
6.298924238956283
79.24925612268254
283.25627527275503
517.0489051651789
594.2961776150149
492.63447013046465
333.55001144426643
218.02090485999847
156.00823987182423
112.25757228961623
79.73754482337682
63.233386739909974
47.31517509727627
29.736781872281988
22.90074006256199
19.775692378118563
11.08415350576028
6.982528419928283
8.545052262149996
4.931715877012284
0.9277485313191425
3.1738765545128556
2.9785610742351416
-0.6347753109025711
0.24414435034714274
2.0996414129854277
-0.537117570763714
-1.0254062714579995
1.2207217517357138
0.04882887006942855
-1.513694972152285
0.34180209048599985
0.6347753109025711
-1.3183794918745708
-0.43945983062485694
0.6347753109025711
-0.8300907911802854
-1.0254062714579995
0.43945983062485694
-0.14648661020828566
-1.1230640115968566
0.04882887006942855
0.14648661020828566
-0.9277485313191425
-0.43945983062485694
0.24414435034714274
-0.6347753109025711
-0.7324330510414282
0.14648661020828566
-0.14648661020828566
-0.8300907911802854
-0.04882887006942855
0.04882887006942855
-10.205233844510566
-34.81498435950255
-44.67841611352712
-23.779659723811704
-3.466849774929427
2.490272373540856
9.228656443121995
19.385061417563133
24.4632639047837
18.994430457007706
9.619287403677424
6.982528419928283
6.6895551995117115
2.8809033340962844
1.513694972152285
3.1738765545128556
1.416037232013428
-0.43945983062485694
1.1230640115968566
1.1230640115968566
-0.9277485313191425
-0.14648661020828566
0.9277485313191425
-0.6347753109025711
-0.8300907911802854
0.537117570763714
-0.04882887006942855
-1.0254062714579995
0.04882887006942855
0.14648661020828566
-12.45136186770428
-96.82764934767681
-305.4245822842756
-527.4006256198977
-586.1905851834897
-475.9349965667201
-321.83108262760356
-212.5520714122225
-151.0276951247425
-108.54657816433966
-78.85862516212711
-61.37788967727169
-44.580758373388264
-29.150835431448844
-22.60776684214542
-17.920195315480278
-10.302891584649425
-7.275501640344854
-7.470817120622568
-3.9551384756237127
-1.416037232013428
-2.8809033340962844
-2.0019836728465705
0.43945983062485694
-0.43945983062485694
-1.1230640115968566
0.9277485313191425
0.8300907911802854
-0.537117570763714
0.43945983062485694
1.3183794918745708
-0.04882887006942855
0.14648661020828566
1.416037232013428
0.43945983062485694
-0.04882887006942855
1.1230640115968566
1.0254062714579995
0.04882887006942855
0.6347753109025711
1.1230640115968566
0.14648661020828566
0.24414435034714274
1.1230640115968566
0.537117570763714
0.14648661020828566
0.9277485313191425
0.7324330510414282
0.14648661020828566
0.537117570763714
0.9277485313191425
23.19371328297856
137.8439002059968
339.60479133287555
478.5717555504692
480.32959487296864
413.14106965743497
331.9874876020447
253.76363775082018
182.08285648889907
123.19523918516823
89.7962920576791
69.48348210879682
47.31517509727627
33.15480277714199
28.174258030060273
19.18974593728542
10.79118028534371
10.595864805065995
8.74036774242771
2.9785610742351416
2.9785610742351416
4.541084916456855
0.9277485313191425
-0.24414435034714274
2.197299153124285
0.8300907911802854
-1.3183794918745708
0.537117570763714
0.9277485313191425
-1.3183794918745708
-0.43945983062485694
1.0254062714579995
-0.6347753109025711
-1.1230640115968566
0.6347753109025711
-0.04882887006942855
-1.2207217517357138
0.04882887006942855
0.34180209048599985
-1.0254062714579995
-0.43945983062485694
0.43945983062485694
-0.6347753109025711
-0.8300907911802854
0.24414435034714274
-0.14648661020828566
-0.9277485313191425
-0.04882887006942855
0.04882887006942855
-0.7324330510414282
-0.43945983062485694
0.14648661020828566
-0.43945983062485694
-0.6347753109025711
0.04882887006942855
-0.24414435034714274
-0.6347753109025711
-0.14648661020828566
-0.04882887006942855
-0.6347753109025711
-0.43945983062485694
-0.04882887006942855
-0.43945983062485694
-0.537117570763714
-0.04882887006942855
-0.24414435034714274
-0.537117570763714
-0.14648661020828566
-0.14648661020828566
-0.43945983062485694
-20.947585259784848
-134.4258793011368
-364.605172808423
-560.3112840466927
-571.5419241626612
-439.4110017547875
