ecg
0.04882887006942855
-0.7324330510414282
-0.34180209048599985
0.04882887006942855
-0.43945983062485694
-0.537117570763714
0.04882887006942855
-0.24414435034714274
-0.6347753109025711
-0.14648661020828566
-0.04882887006942855
-0.537117570763714
-0.34180209048599985
-0.04882887006942855
-0.43945983062485694
-0.43945983062485694
-0.04882887006942855
-0.24414435034714274
-0.537117570763714
-0.14648661020828566
-0.14648661020828566
-0.43945983062485694
-0.34180209048599985
-0.14648661020828566
-0.34180209048599985
-0.43945983062485694
-0.14648661020828566
-0.24414435034714274
-55.32310978866255
-252.29877164873733
-505.3299763485161
-605.5268177309835
-511.1894407568475
-347.90569924467843
-225.83352407110704
-160.5981536583505
-115.77325093461509
-81.98367284657053
-64.60059510185397
-48.97535667963683
-30.811017013809415
-23.19371328297856
-20.16632333867399
-11.47478446631571
-6.6895551995117115
-8.252079041733426
-4.931715877012284
-0.7324330510414282
-2.783245593957427
-2.9785610742351416
0.7324330510414282
-0.04882887006942855
-2.0996414129854277
0.537117570763714
1.513694972152285
-0.9277485313191425
0.04882887006942855
1.8066681925688564
0.04882887006942855
-0.43945983062485694
1.513694972152285
0.9277485313191425
-0.34180209048599985
1.0254062714579995
1.416037232013428
-0.14648661020828566
0.24414435034714274
1.3183794918745708
0.14648661020828566
0.04882887006942855
1.2207217517357138
0.8300907911802854
-0.04882887006942855
0.8300907911802854
1.0254062714579995
0.04882887006942855
0.34180209048599985
1.2207217517357138
0.537117570763714
0.24414435034714274
1.0254062714579995
0.7324330510414282
39.20958266575113
203.76287479972532
455.42687113756006
594.8821240558481
535.1155870908675
380.5233844510567
248.6854352635996
173.78194857709622
126.9062333104448
89.21034561684596
67.82330052643626
53.467612726024264
35.010299839780274
23.974975204089418
21.338216220340275
14.209201190203707
7.275501640344854
8.154421301594567
6.787212939650568
1.6113527122911422
2.0996414129854277
3.7598229953459983
0.34180209048599985
-0.537117570763714
2.0019836728465705
0.537117570763714
-1.513694972152285
0.537117570763714
0.9277485313191425
-1.3183794918745708
-0.43945983062485694
0.9277485313191425
-0.7324330510414282
-1.1230640115968566
0.537117570763714
-0.14648661020828566
-1.3183794918745708
0.04882887006942855
0.24414435034714274
-1.0254062714579995
-0.43945983062485694
0.34180209048599985
-0.6347753109025711
-0.8300907911802854
0.24414435034714274
-0.14648661020828566
-0.9277485313191425
-0.04882887006942855
0.04882887006942855
-0.7324330510414282
-0.34180209048599985
0.14648661020828566
-0.43945983062485694
-0.6347753109025711
0.04882887006942855
-0.24414435034714274
-0.6347753109025711
-0.14648661020828566
-0.04882887006942855
-0.537117570763714
-0.34180209048599985
0.04882887006942855
-0.43945983062485694
-0.43945983062485694
-0.04882887006942855
-0.24414435034714274
-0.537117570763714
-0.14648661020828566
-0.14648661020828566
-0.43945983062485694
-3.36919203479057
-76.12420843823911
-297.9049362935836
-542.3422598611429
-602.9877164873732
-483.06401159685663
-320.5615320057984
-210.11062790875104
-152.10193026626993
-108.83955138475623
-77.4914168001831
-62.35446707866026
-45.85030899519341
-28.076600289921416
-22.412451361867703
-19.287403677424276
-9.912260624093996
-6.591897459372854
-8.44739452201114
-4.150453955901427
-0.34180209048599985
-3.1738765545128556
-2.490272373540856
1.2207217517357138
-0.34180209048599985
-1.9043259327077133
1.1230640115968566
1.2207217517357138
-1.2207217517357138
0.43945983062485694
2.0019836728465705
-0.34180209048599985
-0.34180209048599985
1.7090104524299992
0.537117570763714
-0.43945983062485694
1.3183794918745708
1.3183794918745708
-0.34180209048599985
0.537117570763714
1.513694972152285
0.04882887006942855
0.04882887006942855
1.3183794918745708
0.537117570763714
-0.04882887006942855
1.0254062714579995
40.772106507972836
205.42305638208592
459.5284962233921
601.9134813458458
539.2172121766995
378.7655451285573
244.8767833981842
169.77798123140306
123.58587014572366
88.03845273517967
67.33501182574197
52.10040436408026
34.424353398947126
24.072632944228275
20.752269779507134
13.623254749370565
7.568474860761425
8.05676356145571
6.298924238956283
1.8066681925688564
2.2949568932631417
3.36919203479057
0.24414435034714274
-0.24414435034714274
1.8066681925688564
0.34180209048599985
-1.2207217517357138
0.537117570763714
0.6347753109025711
-1.2207217517357138
-0.24414435034714274
0.7324330510414282
-0.7324330510414282
-0.8300907911802854
0.537117570763714
-0.24414435034714274
-1.1230640115968566
0.04882887006942855
0.14648661020828566
-0.9277485313191425
-0.34180209048599985
0.24414435034714274
-0.6347753109025711
-0.7324330510414282
0.14648661020828566
-0.24414435034714274
-0.8300907911802854
-0.04882887006942855
0.04882887006942855
-0.7324330510414282
-0.34180209048599985
0.04882887006942855
-0.537117570763714
-0.6347753109025711
-0.04882887006942855
-0.34180209048599985
-0.6347753109025711
-0.14648661020828566
-0.14648661020828566
-0.537117570763714
-0.34180209048599985
-0.04882887006942855
-0.43945983062485694
-0.43945983062485694
-0.04882887006942855
-0.24414435034714274
-0.537117570763714
-0.14648661020828566
-0.14648661020828566
-0.43945983062485694
-0.34180209048599985
-0.14648661020828566
-0.34180209048599985
-0.34180209048599985
-0.14648661020828566
-0.24414435034714274
-0.43945983062485694
-0.24414435034714274
-0.24414435034714274
-0.34180209048599985
-0.24414435034714274
-0.14648661020828566
-0.34180209048599985
-0.34180209048599985
-0.24414435034714274
-0.24414435034714274
-0.34180209048599985
-16.650644693675137
-133.0586709391928
-387.0664530403601
-594.0032043945984
-582.8702220187686
-426.9108110170138
-272.6115815976196
-183.3524071107042
-135.9884031433585
-95.85107194628824
-70.06942854962998
-57.37392233157855
-39.5025558861677
-24.072632944228275
-21.43587396047913
-16.748302433813993
-7.373159380483711
-6.787212939650568
-8.05676356145571
-2.2949568932631417
-0.43945983062485694
-3.8574807354848555
-1.416037232013428
1.7090104524299992
-1.1230640115968566
-1.416037232013428
1.9043259327077133
0.537117570763714
-1.416037232013428
1.1230640115968566
1.6113527122911422
-0.7324330510414282
0.43945983062485694
2.0019836728465705
0.04882887006942855
-0.14648661020828566
1.8066681925688564
0.8300907911802854
-0.537117570763714
1.0254062714579995
1.3183794918745708
-0.14648661020828566
0.43945983062485694
1.416037232013428
0.14648661020828566
0.04882887006942855
1.2207217517357138
0.7324330510414282
0.04882887006942855
27.68596932936599
150.53940642404822
348.10101472495614
470.0755321583886
460.30975814450295
397.90646219577326
330.7179369802396
260.8926527809567
187.16105897611962
125.05073624780651
92.04242008087282
70.85069047074083
46.92454413672083
33.74074921797513
29.443808651865414
18.994430457007706
10.595864805065995
11.572442206454566
8.74036774242771
2.392614633401999
3.5645075150682843
4.931715877012284
0.34180209048599985
-0.14648661020828566
2.783245593957427
0.43945983062485694
-1.6113527122911422
1.1230640115968566
0.9277485313191425
-1.8066681925688564
-0.14648661020828566
1.2207217517357138
-1.1230640115968566
-1.1230640115968566
0.9277485313191425
-0.24414435034714274
-1.416037232013428
0.34180209048599985
0.24414435034714274
-1.3183794918745708
-0.24414435034714274
0.537117570763714
-0.8300907911802854
-0.8300907911802854
0.43945983062485694
-0.34180209048599985
-1.0254062714579995
0.04882887006942855
0.04882887006942855
-0.9277485313191425
-0.24414435034714274
0.24414435034714274
-0.6347753109025711
-0.6347753109025711
0.14648661020828566
-0.24414435034714274
-0.7324330510414282
-0.04882887006942855
-0.04882887006942855
-0.6347753109025711
-0.24414435034714274
0.04882887006942855
-0.537117570763714
-0.43945983062485694
0.04882887006942855
-0.34180209048599985
-0.537117570763714
-0.14648661020828566
-0.14648661020828566
-0.537117570763714
-0.24414435034714274
-34.61966887922484
-189.60250247959107
-443.1219958800641
-599.1790646219578
-548.8853284504463
-389.70321202410923
-250.2479591058213
-172.31708247501336
-126.61326009002823
-89.40566109712367
-67.43266956588083
-53.36995498588541
-35.20561532005799
-23.389028763256274
-20.84992751964599
-14.404516670481422
-7.080186160067139
-7.568474860761425
-6.884870679789426
-1.6113527122911422
-1.6113527122911422
-3.5645075150682843
-0.34180209048599985
0.9277485313191425
-1.6113527122911422
-0.537117570763714
1.8066681925688564
-0.04882887006942855
-0.8300907911802854
1.513694972152285
0.9277485313191425
-0.6347753109025711
0.8300907911802854
1.416037232013428
-0.34180209048599985
0.14648661020828566
1.6113527122911422
0.34180209048599985
-0.04882887006942855
1.3183794918745708
0.9277485313191425
-0.14648661020828566
0.7324330510414282
1.2207217517357138
0.04882887006942855
0.34180209048599985
1.2207217517357138
0.537117570763714
0.24414435034714274
1.0254062714579995
0.7324330510414282
0.04882887006942855
9.81460288395514
104.73792629892424
343.8040741588464
570.955977721828
594.8821240558481
454.4502937361715
295.17051956969556
196.3408865491722
144.09399557488365
101.90585183489738
73.87808041504539
60.30365453574426
42.529945830472265
26.025787747005417
22.60776684214542
18.310826276035705
8.642710002288853
7.177843900205997
8.74036774242771
3.2715342946517127
0.7324330510414282
4.052796215762569
2.0996414129854277
-1.3183794918745708
1.2207217517357138
2.0019836728465705
-1.416037232013428
-0.537117570763714
1.7090104524299992
-0.7324330510414282
-1.6113527122911422
0.9277485313191425
0.04882887006942855
-1.7090104524299992
0.04882887006942855
0.6347753109025711
-1.3183794918745708
-0.6347753109025711
0.7324330510414282
-0.6347753109025711
-1.1230640115968566
0.43945983062485694
0.04882887006942855
-1.2207217517357138
-0.04882887006942855
0.24414435034714274
-0.9277485313191425
-0.537117570763714
0.34180209048599985
-0.537117570763714
-0.8300907911802854
0.14648661020828566
-0.14648661020828566
-0.8300907911802854
-0.14648661020828566
0.04882887006942855
-0.7324330510414282
-0.43945983062485694
0.04882887006942855
-0.43945983062485694
-0.6347753109025711
0.04882887006942855
-0.14648661020828566
-0.6347753109025711
-0.14648661020828566
-0.04882887006942855
-0.537117570763714
-0.34180209048599985
-0.04882887006942855
-0.34180209048599985
-0.43945983062485694
-0.04882887006942855
-0.24414435034714274
-0.537117570763714
-0.24414435034714274
-0.14648661020828566
-0.43945983062485694
-0.34180209048599985
-0.14648661020828566
-0.34180209048599985
-0.43945983062485694
-0.14648661020828566
-25.439841306172273
-160.5981536583505
-414.2153047989624
-596.7376211184863
-566.6590371557184
-408.7464713511864
-261.5762569619287
-178.0788891432059
-131.39848935683221
-92.5307087815671
-68.79987792782482
-55.51842526894026
-37.4517433432517
-23.779659723811704
-21.24055848020142
-15.47875181200885
-7.080186160067139
-7.177843900205997
-7.568474860761425
-1.9043259327077133
-0.9277485313191425
-3.662165255207141
-0.8300907911802854
1.3183794918745708
-1.416037232013428
-0.9277485313191425
1.8066681925688564
0.14648661020828566
-1.1230640115968566
1.3183794918745708
1.2207217517357138
-0.8300907911802854
0.6347753109025711
1.8066681925688564
-0.14648661020828566
-0.04882887006942855
1.6113527122911422
0.43945983062485694
-0.34180209048599985
1.1230640115968566
1.0254062714579995
-0.14648661020828566
0.6347753109025711
1.3183794918745708
0.14648661020828566
0.24414435034714274
1.3183794918745708
0.6347753109025711
0.04882887006942855
31.396963454642556
142.8244449530785
299.17448691538874
417.3403524834058
472.3216601815824
454.8409246967269
371.3435568780041
267.24040588998247
178.7624933241779
122.99992370489052
93.60494392309452
68.31158922713054
47.0222018768597
37.06111238269627
28.174258030060273
17.041275654230564
12.939650568398566
11.963073167009995
6.39658197909514
3.5645075150682843
5.0293736171511405
2.9785610742351416
0.04882887006942855
1.7090104524299992
1.9043259327077133
-0.6347753109025711
-0.04882887006942855
1.3183794918745708
-0.34180209048599985
-1.0254062714579995
0.7324330510414282
0.04882887006942855
-1.2207217517357138
0.04882887006942855
0.34180209048599985
-1.0254062714579995
-0.6347753109025711
0.43945983062485694
-0.537117570763714
-0.9277485313191425
0.14648661020828566
-0.14648661020828566
-0.9277485313191425
-0.04882887006942855
0.04882887006942855
-0.7324330510414282
-0.43945983062485694
0.14648661020828566
-0.43945983062485694
-0.6347753109025711
0.04882887006942855
-0.14648661020828566
-0.7324330510414282
-0.14648661020828566
0.04882887006942855
-0.537117570763714
-0.43945983062485694
0.04882887006942855
-0.34180209048599985
-0.537117570763714
-0.04882887006942855
-0.24414435034714274
-0.537117570763714
-0.24414435034714274
-0.14648661020828566
-0.43945983062485694
-0.34180209048599985
-0.04882887006942855
-0.34180209048599985
-0.43945983062485694
-2.0019836728465705
-55.713740749217976
-241.75173571374074
-489.50942244602123
-600.2532997634852
-517.4395361257343
-356.7925535973144
-231.10704203860533
-162.74662394140535
-118.01937895780881
-83.54619668879225
-64.89356832227054
-49.75661860074769
-31.885252155336843
-23.096055542839704
-20.16632333867399
-12.158388647287708
-6.6895551995117115
-7.861448081177996
-5.517662317845426
-1.1230640115968566
-2.490272373540856
-3.1738765545128556
0.34180209048599985
0.34180209048599985
-1.7090104524299992
0.24414435034714274
1.513694972152285
-0.6347753109025711
-0.14648661020828566
1.6113527122911422
0.14648661020828566
-0.537117570763714
1.3183794918745708
1.1230640115968566
-0.24414435034714274
0.9277485313191425
1.6113527122911422
0.04882887006942855
0.24414435034714274
1.416037232013428
0.537117570763714
0.04882887006942855
1.1230640115968566
0.8300907911802854
-0.04882887006942855
0.6347753109025711
1.0254062714579995
0.24414435034714274
0.43945983062485694
1.2207217517357138
0.537117570763714
0.14648661020828566
0.8300907911802854
36.27985046158541
189.21187151903564
436.38361181048293
590.3898680094605
546.2485694666972
393.60952162966356
256.30273899443046
176.02807660028992
127.88281071183337
91.06584267948425
68.89753566796368
53.66292820630198
36.0845349813077
24.756237125200276
21.14290074006256
14.50217441062028
7.959105821316854
7.861448081177996
6.591897459372854
2.197299153124285
2.0996414129854277
3.36919203479057
0.6347753109025711
-0.24414435034714274
1.6113527122911422
0.537117570763714
-1.1230640115968566
0.34180209048599985
0.7324330510414282
-1.0254062714579995
-0.43945983062485694
0.7324330510414282
-0.537117570763714
-0.9277485313191425
0.34180209048599985
-0.04882887006942855
-1.0254062714579995
-0.04882887006942855
0.14648661020828566
-0.9277485313191425
-0.537117570763714
0.14648661020828566
-0.537117570763714
-0.7324330510414282
0.04882887006942855
-0.14648661020828566
-0.7324330510414282
-0.14648661020828566
0.04882887006942855
-0.6347753109025711
-0.34180209048599985
0.04882887006942855
-0.43945983062485694
-0.537117570763714
0.04882887006942855
-0.24414435034714274
-0.6347753109025711
-0.14648661020828566
-0.04882887006942855
-0.537117570763714
-0.34180209048599985
-0.04882887006942855
-0.34180209048599985
-0.43945983062485694
-0.14648661020828566
-0.24414435034714274
-0.43945983062485694
-0.24414435034714274
-0.14648661020828566
-0.43945983062485694
-0.34180209048599985
-0.14648661020828566
-0.34180209048599985
-0.34180209048599985
-0.14648661020828566
-0.24414435034714274
-0.43945983062485694
-0.24414435034714274
-0.14648661020828566
-0.34180209048599985
-0.34180209048599985
-50.635538261997404
-238.62668802929733
-491.75555046921494
-603.8666361486229
-519.2950331883726
-357.1831845578698
-231.20469977874419
-163.13725490196077
-118.21469443808652
-83.6438544289311
-65.18654154268711
-49.85427634088655
-31.68993667505913
-23.19371328297856
-20.45929655909056
-12.256046387426567
-6.787212939650568
-8.05676356145571
-5.517662317845426
-0.9277485313191425
-2.392614633401999
-3.076218814373999
0.43945983062485694
0.24414435034714274
-1.9043259327077133
0.34180209048599985
1.6113527122911422
-0.7324330510414282
-0.14648661020828566
1.8066681925688564
0.24414435034714274
-0.43945983062485694
1.416037232013428
1.0254062714579995
-0.43945983062485694
0.8300907911802854
1.513694972152285
-0.04882887006942855
0.14648661020828566
1.3183794918745708
0.34180209048599985
-0.04882887006942855
1.1230640115968566
0.9277485313191425
0.04882887006942855
0.7324330510414282
1.1230640115968566
5.322346837567712
74.46402685587854
277.787441824979
506.79484245059894
573.1044480048829
475.34905012588695
336.18677042801556
233.25551232166018
170.75455863279163
121.33974212252994
84.62043183031967
66.94438086518655
50.14724956130312
31.201647974364842
24.365606164644845
21.24055848020142
11.572442206454566
7.275501640344854
9.326314183260854
5.224689097428855
0.8300907911802854
3.466849774929427
3.2715342946517127
-0.8300907911802854
0.34180209048599985
2.392614633401999
-0.6347753109025711
-1.1230640115968566
1.513694972152285
0.04882887006942855
-1.7090104524299992
0.43945983062485694
0.6347753109025711
-1.513694972152285
-0.537117570763714
0.8300907911802854
-0.8300907911802854
-1.1230640115968566
0.6347753109025711
-0.14648661020828566
-1.2207217517357138
0.04882887006942855
0.24414435034714274
-1.1230640115968566
-0.43945983062485694
0.43945983062485694
-0.6347753109025711
-0.8300907911802854
0.24414435034714274
-0.14648661020828566
-0.9277485313191425
-0.04882887006942855
0.04882887006942855
-0.7324330510414282
-0.34180209048599985
0.04882887006942855
-0.537117570763714
-0.537117570763714
0.04882887006942855
-0.24414435034714274
-0.6347753109025711
-0.14648661020828566
-0.04882887006942855
-0.6347753109025711
-0.34180209048599985
0.04882887006942855
-0.43945983062485694
-0.537117570763714
-0.04882887006942855
-0.24414435034714274
-0.537117570763714
-0.14648661020828566
-0.14648661020828566
-0.43945983062485694
-24.365606164644845
-156.88715953307394
-410.7972838941024
-596.4446478980698
-568.5145342183566
-411.090257114519
-263.2364385442893
-178.66483558403905
-131.78912031738764
-93.2143129625391
-68.89753566796368
-55.51842526894026
-37.74471656366827
-23.974975204089418
-21.24055848020142
-15.771725032425422
-7.373159380483711
-7.080186160067139
-7.373159380483711
-2.0019836728465705
-0.9277485313191425
-3.662165255207141
-1.0254062714579995
1.3183794918745708
-1.2207217517357138
-1.0254062714579995
1.8066681925688564
0.34180209048599985
-1.0254062714579995
1.2207217517357138
1.3183794918745708
-0.7324330510414282
0.537117570763714
1.8066681925688564
0.04882887006942855
0.04882887006942855
1.513694972152285
0.43945983062485694
-0.43945983062485694
1.0254062714579995
1.1230640115968566
-0.04882887006942855
0.7324330510414282
1.416037232013428
0.14648661020828566
0.04882887006942855
1.1230640115968566
0.6347753109025711
0.04882887006942855
0.9277485313191425
51.22148470283055
237.94308384832533
491.5602349889372
604.7455558098726
519.685664148928
357.4761577782864
232.18127718013275
163.5278858625162
118.21469443808652
84.13214312962539
65.77248798352025
49.85427634088655
31.9829098954757
23.682001983672848
20.45929655909056
12.256046387426567
7.373159380483711
8.44739452201114
5.517662317845426
1.3183794918745708
2.8809033340962844
3.1738765545128556
-0.24414435034714274
0.04882887006942855
2.0019836728465705
-0.14648661020828566
-1.1230640115968566
1.0254062714579995
0.34180209048599985
-1.416037232013428
0.04882887006942855
0.6347753109025711
-1.1230640115968566
-0.6347753109025711
0.6347753109025711
-0.537117570763714
-1.0254062714579995
0.34180209048599985
0.04882887006942855
-1.1230640115968566
-0.04882887006942855
0.24414435034714274
-0.8300907911802854
-0.537117570763714
0.24414435034714274
-0.43945983062485694
-0.7324330510414282
0.04882887006942855
-0.14648661020828566
-0.7324330510414282
-0.14648661020828566
0.04882887006942855
-0.6347753109025711
-0.537117570763714
0.04882887006942855
-0.43945983062485694
-0.6347753109025711
-0.04882887006942855
-0.24414435034714274
-0.6347753109025711
-0.24414435034714274
-0.04882887006942855
-0.537117570763714
-0.34180209048599985
-0.04882887006942855
-0.34180209048599985
-0.43945983062485694
-0.14648661020828566
-0.24414435034714274
-0.43945983062485694
-0.24414435034714274
-0.14648661020828566
-0.43945983062485694
-0.34180209048599985
-0.14648661020828566
-0.537117570763714
-64.9912260624094
-280.6195162890059
-532.8694590676738
-607.6752880140383
-493.9040207522698
-329.44838635843445
-215.09117265583276
-155.22697795071335
-110.9880216678111
-78.85862516212711
-63.42870222018769
-47.0222018768597
-28.760204470893417
-22.803082322423133
-19.678034637979707
-10.10757610437171
-6.494239719233997
-8.74036774242771
-4.443427176317998
-0.43945983062485694
-3.2715342946517127
-2.5879301136797133
1.3183794918745708
-0.24414435034714274
-2.0019836728465705
1.0254062714579995
1.3183794918745708
-1.2207217517357138
0.34180209048599985
2.0019836728465705
-0.34180209048599985
-0.34180209048599985
1.9043259327077133
0.6347753109025711
-0.537117570763714
1.2207217517357138
1.3183794918745708
-0.34180209048599985
0.537117570763714
1.6113527122911422
0.14648661020828566
0.04882887006942855
1.3183794918745708
0.537117570763714
0.04882887006942855
1.1230640115968566
1.0254062714579995
0.04882887006942855
0.537117570763714
1.1230640115968566
28.760204470893417
169.6803234912642
422.5162127107652
595.5657282368201
560.0183108262761
404.05889982452123
259.91607537956816
176.90699626153963
130.3242542153048
92.5307087815671
68.70222018768597
54.83482108796826
37.4517433432517
24.267948424505988
21.14290074006256
15.576409552147707
7.763790341039139
7.373159380483711
7.373159380483711
2.2949568932631417
1.3183794918745708
3.662165255207141
1.1230640115968566
-0.8300907911802854
1.513694972152285
1.1230640115968566
-1.3183794918745708
0.04882887006942855
1.2207217517357138
-0.9277485313191425
-0.9277485313191425
0.9277485313191425
-0.24414435034714274
-1.3183794918745708
0.24414435034714274
0.24414435034714274
-1.2207217517357138
-0.24414435034714274
0.43945983062485694
-0.8300907911802854
-0.7324330510414282
0.34180209048599985
-0.34180209048599985
-0.9277485313191425
0.04882887006942855
0.04882887006942855
-0.9277485313191425
-0.24414435034714274
0.14648661020828566
-0.6347753109025711
-0.537117570763714
0.04882887006942855
-0.24414435034714274
-0.7324330510414282
-0.04882887006942855
-0.04882887006942855
-0.6347753109025711
-0.24414435034714274
0.04882887006942855
-0.43945983062485694
-0.43945983062485694
-0.04882887006942855
-0.34180209048599985
-0.537117570763714
-0.14648661020828566
-0.14648661020828566
-0.537117570763714
-0.24414435034714274
-0.04882887006942855
-0.43945983062485694
-0.43945983062485694
-0.14648661020828566
-0.24414435034714274
-44.580758373388264
-218.89982452124818
-472.22400244144353
-602.40177004654
-531.3069352254521
-370.07400625619897
-239.1149767299916
-167.04356450751507
-121.33974212252994
-85.79232471198596
-66.06546120393683
-51.123826962691695
-33.05714503700313
-23.389028763256274
-20.45929655909056
-12.939650568398566
-6.982528419928283
-7.861448081177996
-5.71297779812314
-1.0254062714579995
-2.0996414129854277
-3.1738765545128556
0.14648661020828566
0.34180209048599985
-1.7090104524299992
0.14648661020828566
1.7090104524299992
-0.537117570763714
-0.43945983062485694
1.513694972152285
0.34180209048599985
-0.6347753109025711
1.1230640115968566
1.1230640115968566
-0.34180209048599985
0.537117570763714
1.3183794918745708
0.04882887006942855
0.04882887006942855
1.3183794918745708
0.43945983062485694
-0.04882887006942855
1.0254062714579995
1.0254062714579995
0.04882887006942855
0.537117570763714
1.1230640115968566
0.14648661020828566
0.24414435034714274
1.1230640115968566
0.7324330510414282
0.24414435034714274
57.27626459143969
254.1542687113756
499.7634851606012
596.1516746776532
508.0643930724041
351.1284046692607
230.81406881818876
164.21149004348823
117.3357747768368
83.25322346837568
66.06546120393683
49.56130312046998
31.103990234225986
23.974975204089418
20.654612039368278
11.572442206454566
7.275501640344854
8.838025482566568
5.0293736171511405
0.9277485313191425
3.2715342946517127
3.076218814373999
-0.6347753109025711
0.34180209048599985
2.197299153124285
-0.537117570763714
-1.1230640115968566
1.3183794918745708
0.04882887006942855
-1.6113527122911422
0.34180209048599985
0.6347753109025711
-1.3183794918745708
-0.43945983062485694
0.7324330510414282
-0.7324330510414282
-1.0254062714579995
0.537117570763714
-0.14648661020828566
-1.2207217517357138
0.04882887006942855
0.24414435034714274
-1.0254062714579995
-0.43945983062485694
0.34180209048599985
-0.6347753109025711
-0.7324330510414282
0.14648661020828566
-0.14648661020828566
-0.8300907911802854
-0.04882887006942855
0.04882887006942855
-0.7324330510414282
-0.34180209048599985
0.04882887006942855
-0.43945983062485694
-0.537117570763714
0.04882887006942855
-0.24414435034714274
-0.6347753109025711
-0.14648661020828566
-0.04882887006942855
-0.537117570763714
-0.34180209048599985
-0.04882887006942855
-0.43945983062485694
-0.43945983062485694
-0.04882887006942855
-0.24414435034714274
-0.537117570763714
-0.24414435034714274
-0.14648661020828566
-0.537117570763714
-0.43945983062485694
-0.14648661020828566
-0.34180209048599985
-0.43945983062485694
-0.14648661020828566
-0.24414435034714274
-0.43945983062485694
-0.24414435034714274
-17.627222095063708
-129.93362325474936
-370.2693217364767
-574.5693141069657
-579.2568856336309
-436.8719005111772
-284.4281681544213
-190.48142214084078
-139.21110856794078
-98.6831464103151
-72.02258335240711
-58.057526512550545
-40.57679102769512
-25.439841306172273
-21.826504921034562
-16.943617914091707
-8.252079041733426
-6.982528419928283
-7.861448081177996
-2.783245593957427
-0.7324330510414282
-3.466849774929427
-1.416037232013428
1.3183794918745708
-0.9277485313191425
-1.2207217517357138
1.6113527122911422
0.6347753109025711
-1.1230640115968566
1.0254062714579995
1.513694972152285
-0.6347753109025711
0.14648661020828566
1.7090104524299992
0.04882887006942855
-0.14648661020828566
1.513694972152285
0.8300907911802854
-0.24414435034714274
0.9277485313191425
1.1230640115968566
-0.04882887006942855
0.43945983062485694
1.3183794918745708
0.24414435034714274
0.04882887006942855
1.1230640115968566
0.7324330510414282
43.018234531166556
208.74341954680705
434.72343022812237
541.4633401998932
493.80636301213093
383.16014343480583
278.1780727855344
201.41908903639276
141.84786755168994
97.70656900892652
75.14763103685054
57.27626459143969
37.15877012283513
27.588311589227132
23.779659723811704
14.306858930342566
8.545052262149996
9.81460288395514
6.494239719233997
1.6113527122911422
3.36919203479057
3.662165255207141
-0.14648661020828566
0.14648661020828566
2.2949568932631417
-0.04882887006942855
-1.2207217517357138
1.2207217517357138
0.43945983062485694
-1.513694972152285
0.14648661020828566
0.8300907911802854
-1.2207217517357138
-0.6347753109025711
0.8300907911802854
-0.537117570763714
-1.1230640115968566
0.43945983062485694
0.04882887006942855
-1.2207217517357138
-0.04882887006942855
0.34180209048599985
-0.8300907911802854
-0.537117570763714
0.34180209048599985
-0.43945983062485694
-0.8300907911802854
0.04882887006942855
-0.04882887006942855
-0.8300907911802854
-0.14648661020828566
0.04882887006942855
-0.6347753109025711
-0.43945983062485694
0.04882887006942855
-0.43945983062485694
-0.6347753109025711
0.04882887006942855
-0.14648661020828566
-0.6347753109025711
-0.24414435034714274
-0.04882887006942855
-0.537117570763714
-0.34180209048599985
-0.04882887006942855
-0.34180209048599985
-0.43945983062485694
-0.14648661020828566
-0.24414435034714274
-0.537117570763714
-0.34180209048599985
-0.24414435034714274
-0.537117570763714
-7.080186160067139
-89.60097657740138
-315.8739604791333
-550.1548790722514
-596.9329365987641
-471.63805600061033
-311.6746776531624
-205.13008316166935
-148.7815671015488
-106.39810788128482
-76.12420843823911
-60.987258716716255
-44.38544289311055
-27.588311589227132
-22.412451361867703
-18.701457236591136
-9.619287403677424
-6.6895551995117115
-8.154421301594567
-3.7598229953459983
-0.537117570763714
-3.36919203479057
-2.392614633401999
1.2207217517357138
-0.34180209048599985
-1.6113527122911422
1.3183794918745708
1.1230640115968566
-1.2207217517357138
0.43945983062485694
1.8066681925688564
-0.34180209048599985
-0.14648661020828566
1.7090104524299992
0.43945983062485694
-0.34180209048599985
1.3183794918745708
1.1230640115968566
-0.24414435034714274
0.6347753109025711
1.3183794918745708
-0.04882887006942855
0.04882887006942855
1.416037232013428
0.7324330510414282
0.14648661020828566
1.2207217517357138
1.0254062714579995
0.04882887006942855
6.982528419928283
77.39375906004425
276.81086442359043
512.166018158236
594.6868085755704
495.2712291142138
336.87037460898756
220.75532158388648
156.69184405279623
112.64820325017166
80.9094377050431
63.72167544060426
47.21751735713741
30.322728313115128
23.291371023117417
19.48271915770199
11.181811245899137
7.373159380483711
8.349736781872283
4.736400396734569
1.3183794918745708
3.1738765545128556
2.68558785381857
-0.43945983062485694
0.43945983062485694
1.8066681925688564
-0.537117570763714
-0.9277485313191425
1.0254062714579995
0.04882887006942855
-1.3183794918745708
0.24414435034714274
0.43945983062485694
-1.2207217517357138
-0.34180209048599985
0.537117570763714
-0.7324330510414282
-0.8300907911802854
0.34180209048599985
-0.24414435034714274
-1.0254062714579995
0.04882887006942855
0.04882887006942855
-0.8300907911802854
-0.34180209048599985
0.14648661020828566
-0.537117570763714
-0.6347753109025711
0.04882887006942855
-0.24414435034714274
-0.7324330510414282
-0.04882887006942855
-0.04882887006942855
-0.6347753109025711
-0.34180209048599985
0.04882887006942855
-0.43945983062485694
-0.537117570763714
0.04882887006942855
-0.24414435034714274
-0.537117570763714
-0.14648661020828566
-0.14648661020828566
-0.537117570763714
-0.34180209048599985
-0.04882887006942855
-0.34180209048599985
-0.43945983062485694
-0.14648661020828566
-0.24414435034714274
-0.43945983062485694
-0.24414435034714274
-0.14648661020828566
-0.43945983062485694
-0.24414435034714274
-0.14648661020828566
-0.34180209048599985
-0.34180209048599985
-0.14648661020828566
-0.24414435034714274
-0.43945983062485694
-0.24414435034714274
-13.525597009231708
-117.92172121766994
-359.4293125810635
-574.9599450675212
-586.8741893644617
-444.0985732814527
-288.13916227969787
-192.2392614633402
-141.0666056305791
-99.95269703212024
-72.5108720531014
-58.8387884336614
-41.358052948805984
-25.537499046311133
-21.92416266117342
-17.52956435492485
-8.252079041733426
-6.787212939650568
-8.154421301594567
-2.783245593957427
-0.43945983062485694
-3.5645075150682843
-1.6113527122911422
1.513694972152285
-0.8300907911802854
-1.513694972152285
1.6113527122911422
0.7324330510414282
-1.1230640115968566
1.1230640115968566
1.7090104524299992
-0.7324330510414282
0.04882887006942855
1.9043259327077133
0.04882887006942855
-0.43945983062485694
1.416037232013428
0.8300907911802854
-0.43945983062485694
0.8300907911802854
1.3183794918745708
-0.14648661020828566
0.24414435034714274
1.416037232013428
0.34180209048599985
0.04882887006942855
1.2207217517357138
0.7324330510414282
0.04882887006942855
0.8300907911802854
1.0254062714579995
0.04882887006942855
17.724879835202564
119.09361409933624
314.5067521171893
461.3839932860304
467.73174639505606
406.5980010681315
341.2649729152361
274.27176317998016
201.8097199969482
134.81651026169223
95.85107194628824
75.2452887769894
51.416800183108265
34.61966887922484
30.420386053253985
21.728847180895706
11.08415350576028
10.986495765621424
10.205233844510566
3.2715342946517127
2.5879301136797133
5.322346837567712
1.3183794918745708
-0.9277485313191425
2.392614633401999
1.416037232013428
-1.8066681925688564
0.43945983062485694
1.6113527122911422
-1.416037232013428
-0.9277485313191425
1.416037232013428
-0.43945983062485694
-1.6113527122911422
0.7324330510414282
0.24414435034714274
-1.6113527122911422
-0.04882887006942855
0.7324330510414282
-1.1230640115968566
-0.7324330510414282
0.6347753109025711
-0.43945983062485694
-1.1230640115968566
0.24414435034714274
0.04882887006942855
-1.1230640115968566
-0.14648661020828566
0.24414435034714274
-0.8300907911802854
-0.537117570763714
0.24414435034714274
-0.43945983062485694
-0.8300907911802854
0.04882887006942855
-0.04882887006942855
-0.8300907911802854
-0.24414435034714274
0.04882887006942855
-0.6347753109025711
-0.43945983062485694
0.04882887006942855
-0.34180209048599985
-0.6347753109025711
-0.04882887006942855
-0.14648661020828566
-0.6347753109025711
-0.24414435034714274
-0.04882887006942855
-0.537117570763714
-0.43945983062485694
-0.04882887006942855
-0.34180209048599985
-56.1043717097734
-254.1542687113756
-507.3807888914321
-605.8197909514
-509.91989013504235
-346.53849088273444
-225.34523537041275
-160.40283817807278
-115.57793545433738
-81.88601510643167
-64.50293736171511
-48.584725719081405
-30.420386053253985
-23.096055542839704
-20.068665598535134
-11.279468986037996
-6.787212939650568
-8.44739452201114
-5.0293736171511405
-0.6347753109025711
-2.68558785381857
-2.8809033340962844
0.7324330510414282
-0.04882887006942855
-2.0019836728465705
0.6347753109025711
1.513694972152285
-0.8300907911802854
0.04882887006942855
1.9043259327077133
0.04882887006942855
-0.34180209048599985
1.513694972152285
0.7324330510414282
-0.537117570763714
1.0254062714579995
1.3183794918745708
-0.24414435034714274
0.34180209048599985
1.416037232013428
0.14648661020828566
0.04882887006942855
1.2207217517357138
0.8300907911802854
0.04882887006942855
0.9277485313191425
1.1230640115968566
0.04882887006942855
0.43945983062485694
1.1230640115968566
17.041275654230564
122.99992370489052
354.44876783398183
560.5065995269704
578.9639124132143
447.32127870603495
295.36583504997327
196.53620202944992
142.53147173266194
102.1011673151751
74.07339589532312
58.8387884336614
42.236972610055695
26.90470740825513
21.92416266117342
17.627222095063708
9.42397192339971
7.177843900205997
7.861448081177996
3.662165255207141
1.2207217517357138
3.36919203479057
2.0996414129854277
-0.7324330510414282
0.8300907911802854
1.513694972152285
-0.9277485313191425
-0.537117570763714
1.1230640115968566
-0.43945983062485694
-1.2207217517357138
0.537117570763714
0.14648661020828566
-1.3183794918745708
-0.04882887006942855
0.43945983062485694
-0.9277485313191425
-0.6347753109025711
0.43945983062485694
-0.43945983062485694
-0.9277485313191425
0.14648661020828566
-0.04882887006942855
-0.9277485313191425
-0.14648661020828566
0.14648661020828566
-0.7324330510414282
-0.537117570763714
0.14648661020828566
-0.43945983062485694
-0.6347753109025711
0.04882887006942855
-0.14648661020828566
-0.7324330510414282
-0.14648661020828566
0.04882887006942855
-0.537117570763714
-0.43945983062485694
0.04882887006942855
-0.34180209048599985
-0.537117570763714
-0.04882887006942855
-0.14648661020828566
-0.537117570763714
-0.24414435034714274
-0.04882887006942855
-0.43945983062485694
-0.34180209048599985
-0.14648661020828566
-0.34180209048599985
-0.43945983062485694
-0.14648661020828566
-0.24414435034714274
-0.43945983062485694
-0.24414435034714274
-0.14648661020828566
-0.43945983062485694
-0.34180209048599985
-0.14648661020828566
-0.34180209048599985
-0.43945983062485694
-25.439841306172273
-160.40283817807278
-414.2153047989624
-596.6399633783475
-566.4637216754406
-408.9417868314641
-261.8692301823453
-178.0788891432059
-131.30083161669336
-92.62836652170596
-68.60456244754711
-55.32310978866255
-37.549401083390556
-23.974975204089418
-21.338216220340275
-15.674067292286564
-7.275501640344854
-6.982528419928283
-7.373159380483711
-2.0019836728465705
-1.0254062714579995
-3.5645075150682843
-0.8300907911802854
1.3183794918745708
-1.3183794918745708
-1.0254062714579995
1.8066681925688564
0.14648661020828566
-1.1230640115968566
1.3183794918745708
1.3183794918745708
-0.7324330510414282
0.537117570763714
1.7090104524299992
-0.14648661020828566
0.04882887006942855
1.7090104524299992
0.6347753109025711
-0.24414435034714274
1.2207217517357138
1.1230640115968566
-0.04882887006942855
0.7324330510414282
1.3183794918745708
0.14648661020828566
0.24414435034714274
1.3183794918745708
0.6347753109025711
0.04882887006942855
9.326314183260854
74.36636911573969
226.32181277180132
357.76913099870296
372.61310749980925
356.3042648966201
363.33562218661785
335.893797207599
266.5568017090105
194.38773174639505
145.26588845654993
114.50370031280995
79.44457160296025
51.22148470283055
43.21355001144427
33.15480277714199
17.52956435492485
14.990463111314565
15.47875181200885
6.298924238956283
3.1738765545128556
7.373159380483711
3.466849774929427
-1.1230640115968566
2.783245593957427
2.9785610742351416
-1.9043259327077133
-0.04882887006942855
2.68558785381857
-1.1230640115968566
-1.7090104524299992
1.8066681925688564
0.04882887006942855
-2.197299153124285
0.6347753109025711
1.0254062714579995
-1.9043259327077133
-0.537117570763714
1.1230640115968566
-1.0254062714579995
-1.3183794918745708
0.8300907911802854
-0.14648661020828566
-1.513694972152285
0.14648661020828566
0.43945983062485694
-1.3183794918745708
-0.43945983062485694
0.6347753109025711
-0.7324330510414282
-0.9277485313191425
0.43945983062485694
-0.14648661020828566
-18.60379949645228
-59.13176165407798
-73.29213397421225
-65.77248798352025
-93.60494392309452
-96.14404516670481
-13.81857022964828
78.76096742198825
107.86297398336767
77.88204776073853
41.065079728389414
30.518043793392845
24.072632944228275
11.08415350576028
10.10757610437171
12.84199282825971
4.638742656595713
0.9277485313191425
6.103608758678568
3.1738765545128556
-2.0019836728465705
2.0019836728465705
3.076218814373999
-2.0996414129854277
-0.6347753109025711
2.68558785381857
-0.8300907911802854
-2.0996414129854277
1.7090104524299992
0.34180209048599985
-8.44739452201114
-70.4600595101854
-260.79499504081787
-500.2517738612955
-593.7102311741818
-502.10727092393375
-346.831464103151
-226.90775921263446
-157.76607919432365
-114.69901579308767
-83.4485389486534
-63.233386739909974
-47.21751735713741
-32.08056763561456
-23.19371328297856
-18.310826276035705
-12.060730907148852
-7.861448081177996
-7.080186160067139
-4.834058136873426
-1.9043259327077133
-2.0996414129854277
-2.0996414129854277
-0.24414435034714274
-0.04882887006942855
-0.8300907911802854
0.24414435034714274
0.8300907911802854
-0.14648661020828566
0.04882887006942855
0.9277485313191425
0.34180209048599985
0.04882887006942855
1.0254062714579995
0.8300907911802854
0.14648661020828566
0.6347753109025711
0.9277485313191425
0.24414435034714274
0.34180209048599985
0.9277485313191425
0.537117570763714
0.34180209048599985
0.8300907911802854
0.7324330510414282
0.24414435034714274
0.6347753109025711
9.81460288395514
93.8979171435111
310.01449607080184
530.4280155642024
578.7685969329366
468.5130083161669
321.3427939269093
216.75135423819333
155.8129243915465
110.69504844739453
79.73754482337682
63.03807125963226
45.654993514915695
29.346150911726557
23.58434424353399
18.994430457007706
10.400549324788281
7.666132600900283
8.44739452201114
4.150453955901427
1.416037232013428
3.5645075150682843
2.2949568932631417
-0.6347753109025711
0.9277485313191425
1.7090104524299992
-0.8300907911802854
-0.537117570763714
1.2207217517357138
-0.34180209048599985
-1.2207217517357138
0.537117570763714
0.24414435034714274
-1.3183794918745708
-0.04882887006942855
0.537117570763714
-0.9277485313191425
-0.6347753109025711
0.43945983062485694
-0.43945983062485694
-0.9277485313191425
0.14648661020828566
0.04882887006942855
-0.9277485313191425
-0.14648661020828566
0.14648661020828566
-0.7324330510414282
-0.537117570763714
0.14648661020828566
-0.43945983062485694
-0.8300907911802854
-0.04882887006942855
-0.14648661020828566
-0.7324330510414282
-0.24414435034714274
0.04882887006942855
-0.537117570763714
-0.43945983062485694
0.04882887006942855
-0.34180209048599985
-0.537117570763714
-0.14648661020828566
-0.14648661020828566
-0.537117570763714
-0.24414435034714274
-0.04882887006942855
-0.43945983062485694
-0.34180209048599985
-0.04882887006942855
-0.34180209048599985
-0.43945983062485694
-0.14648661020828566
-0.24414435034714274
-0.43945983062485694
-0.24414435034714274
-0.14648661020828566
-0.34180209048599985
-17.236591134508277
-129.93362325474936
-374.4686045624475
-580.3311207751583
-580.6240939955749
-434.33279926756694
-281.3031204699779
-188.43060959792479
-138.23453116655222
-98.09719996948196
-71.63195239185168
-57.764553292133975
-40.186160067139696
-25.049210345616846
-21.533531700617992
-16.84596017395285
-8.05676356145571
-6.982528419928283
-7.861448081177996
-2.68558785381857
-0.8300907911802854
-3.5645075150682843
-1.513694972152285
1.3183794918745708
-1.0254062714579995
-1.3183794918745708
1.6113527122911422
0.6347753109025711
-1.0254062714579995
1.0254062714579995
1.513694972152285
-0.6347753109025711
0.24414435034714274
1.7090104524299992
0.04882887006942855
-0.14648661020828566
1.6113527122911422
0.8300907911802854
-0.24414435034714274
1.0254062714579995
1.3183794918745708
-0.04882887006942855
0.34180209048599985
1.3183794918745708
0.24414435034714274
0.04882887006942855
1.1230640115968566
0.7324330510414282
10.10757610437171
37.94003204394598
85.79232471198596
200.73548485542076
364.01922636758985
432.6726176852064
388.04303044174867
340.09308003356983
311.08873121232926
264.99427786678876
194.87602044708933
128.17578393224994
92.14007782101167
71.24132143129626
46.92454413672083
33.3501182574197
29.834439612420844
19.48271915770199
10.205233844510566
11.572442206454566
9.228656443121995
2.197299153124285
3.1738765545128556
5.224689097428855
0.34180209048599985
-0.43945983062485694
2.8809033340962844
0.6347753109025711
-1.8066681925688564
1.1230640115968566
1.2207217517357138
-1.8066681925688564
-0.34180209048599985
1.416037232013428
-1.0254062714579995
-1.3183794918745708
1.0254062714579995
-0.14648661020828566
-1.6113527122911422
0.24414435034714274
0.43945983062485694
-1.3183794918745708
-0.43945983062485694
0.6347753109025711
-0.8300907911802854
-0.9277485313191425
0.43945983062485694
-0.24414435034714274
-1.1230640115968566
0.04882887006942855
0.14648661020828566
-0.9277485313191425
-0.34180209048599985
0.24414435034714274
-0.6347753109025711
-0.7324330510414282
0.14648661020828566
-0.24414435034714274
-0.8300907911802854
-0.04882887006942855
0.04882887006942855
-0.7324330510414282
-0.34180209048599985
0.04882887006942855
-0.43945983062485694
-0.537117570763714
0.04882887006942855
-0.24414435034714274
-0.6347753109025711
-2.8809033340962844
-66.06546120393683
-268.90058747234303
-514.1191729610132
-600.9369039444572
-501.1306935225452
-339.7024490730144
-220.9506370641642
-157.57076371404594
-113.62478065156023
-80.51880674448768
-63.526359960326545
-47.90112153810941
-30.029755092698558
-22.705424582284277
-19.87335011825742
-11.279468986037996
-6.591897459372854
-8.154421301594567
-4.931715877012284
-0.7324330510414282
-2.783245593957427
-2.8809033340962844
0.8300907911802854
0.04882887006942855
-1.8066681925688564
0.7324330510414282
1.513694972152285
-0.8300907911802854
0.04882887006942855
1.8066681925688564
0.04882887006942855
-0.43945983062485694
1.513694972152285
0.8300907911802854
-0.43945983062485694
0.8300907911802854
1.3183794918745708
-0.04882887006942855
0.43945983062485694
1.416037232013428
0.24414435034714274
0.04882887006942855
1.3183794918745708
0.8300907911802854
-0.04882887006942855
0.7324330510414282
1.0254062714579995
0.04882887006942855
0.34180209048599985
1.1230640115968566
8.44739452201114
56.49500267032883
202.0050354772259
426.61783779659726
574.1786831464103
538.1429770351721
392.632944228275
255.71679255359732
174.17257953765164
127.68749523155566
91.1635004196231
67.33501182574197
53.17463950560769
36.768139162279695
24.072632944228275
20.361638818951704
15.185778591592278
7.959105821316854
7.080186160067139
6.982528419928283
2.5879301136797133
1.416037232013428
3.2715342946517127
1.2207217517357138
-0.6347753109025711
1.2207217517357138
1.0254062714579995
-1.1230640115968566
-0.04882887006942855
0.9277485313191425
-0.8300907911802854
-0.9277485313191425
0.6347753109025711
-0.24414435034714274
-1.2207217517357138
0.14648661020828566
0.14648661020828566
-1.0254062714579995
-0.34180209048599985
0.34180209048599985
-0.6347753109025711
-0.7324330510414282
0.24414435034714274
-0.24414435034714274
-0.8300907911802854
0.04882887006942855
0.04882887006942855
-0.7324330510414282
-0.24414435034714274
0.04882887006942855
-0.537117570763714
-0.537117570763714
0.04882887006942855
-0.24414435034714274
-0.6347753109025711
-0.04882887006942855
-0.04882887006942855
-0.6347753109025711
-0.34180209048599985
-0.04882887006942855
-0.43945983062485694
-0.43945983062485694
-0.04882887006942855
-0.24414435034714274
-0.537117570763714
-0.14648661020828566
-0.14648661020828566
-0.43945983062485694
-0.24414435034714274
-0.14648661020828566
-0.43945983062485694
-0.34180209048599985
-0.14648661020828566
-0.24414435034714274
-0.43945983062485694
-0.24414435034714274
-0.24414435034714274
-0.43945983062485694
-0.34180209048599985
-0.14648661020828566
-0.34180209048599985
-0.34180209048599985
-0.24414435034714274
-31.201647974364842
-178.17654688334477
-431.6960402838178
-598.300144960708
-555.916685740444
-397.02754253452355
-254.8378728923476
-174.85618371862364
-128.56641489280537
-90.67521171892882
-68.01861600671397
-54.24887464713512
-36.0845349813077
-23.58434424353399
-21.045242999923705
-14.795147631036851
-7.080186160067139
-7.373159380483711
-6.884870679789426
-1.6113527122911422
-1.2207217517357138
-3.36919203479057
-0.34180209048599985
1.1230640115968566
-1.513694972152285
-0.6347753109025711
1.8066681925688564
0.04882887006942855
-0.8300907911802854
1.513694972152285
1.1230640115968566
-0.7324330510414282
0.6347753109025711
1.513694972152285
-0.24414435034714274
0.14648661020828566
1.6113527122911422
0.24414435034714274
-0.24414435034714274
1.1230640115968566
0.8300907911802854
-0.24414435034714274
0.7324330510414282
1.2207217517357138
0.14648661020828566
0.34180209048599985
1.2207217517357138
2.5879301136797133
13.720912489509422
72.90150301365682
237.65011062790876
444.0985732814527
526.3263904783703
465.3879606317235
361.77309834439615
270.1701380941482
199.85656519417105
140.18768596932938
95.55809872587167
74.17105363546197
56.29968719005112
35.79156176089113
27.295338368810558
23.779659723811704
13.623254749370565
8.252079041733426
10.10757610437171
6.201266498817426
1.2207217517357138
3.5645075150682843
3.7598229953459983
-0.537117570763714
0.24414435034714274
2.5879301136797133
-0.34180209048599985
-1.3183794918745708
1.513694972152285
0.34180209048599985
-1.8066681925688564
0.34180209048599985
0.9277485313191425
-1.416037232013428
-0.6347753109025711
0.9277485313191425
-0.7324330510414282
-1.2207217517357138
0.537117570763714
0.04882887006942855
-1.3183794918745708
0.04882887006942855
0.34180209048599985
-1.0254062714579995
-0.537117570763714
0.43945983062485694
-0.537117570763714
-0.8300907911802854
0.24414435034714274
-0.14648661020828566
-0.9277485313191425
-0.04882887006942855
0.04882887006942855
-0.7324330510414282
-0.43945983062485694
0.14648661020828566
-0.43945983062485694
-0.6347753109025711
0.04882887006942855
-0.24414435034714274
-0.7324330510414282
-0.24414435034714274
-0.04882887006942855
-0.6347753109025711
-0.43945983062485694
-0.04882887006942855
-0.43945983062485694
-0.537117570763714
-0.04882887006942855
-0.24414435034714274
-0.537117570763714
-0.14648661020828566
-0.14648661020828566
-0.43945983062485694
-0.34180209048599985
-0.04882887006942855
-0.34180209048599985
-0.43945983062485694
-18.017853055619135
-137.55092698558022
-391.5587090867475
-594.3938353551538
-580.1358052948806
-423.98107881284807
-270.65842679484246
-182.37582970931564
-135.3047989623865
-95.46044098573282
-69.77645532921339
-56.983291371023114
-39.11192492561227
-23.974975204089418
-21.43587396047913
-16.650644693675137
-7.373159380483711
-6.884870679789426
-8.154421301594567
-2.392614633401999
-0.537117570763714
-3.7598229953459983
-1.3183794918745708
1.7090104524299992
-1.1230640115968566
-1.416037232013428
1.9043259327077133
0.537117570763714
-1.416037232013428
1.2207217517357138
1.7090104524299992
-0.7324330510414282
0.24414435034714274
1.9043259327077133
-0.04882887006942855
-0.24414435034714274
1.7090104524299992
0.7324330510414282
-0.34180209048599985
1.1230640115968566
1.3183794918745708
-0.14648661020828566
0.43945983062485694
1.416037232013428
0.14648661020828566
0.04882887006942855
1.3183794918745708
0.7324330510414282
-0.04882887006942855
0.8300907911802854
4.345769436179141
51.90508888380255
193.31349660486762
379.8397802700847
510.11520561532006
521.4435034714274
424.078736552987
297.31898985275046
200.05188067444877
138.5275043869688
101.41756313420309
75.63591973754482
55.32310978866255
40.28381780727855
29.63912413214313
21.045242999923705
14.990463111314565
11.279468986037996
8.05676356145571
5.420004577706569
4.052796215762569
3.076218814373999
1.7090104524299992
1.2207217517357138
1.1230640115968566
0.43945983062485694
0.04882887006942855
0.24414435034714274
0.04882887006942855
-0.34180209048599985
-0.14648661020828566
-0.04882887006942855
-0.34180209048599985
-0.34180209048599985
-0.04882887006942855
-0.24414435034714274
-0.43945983062485694
-0.14648661020828566
-0.24414435034714274
-0.34180209048599985
-0.24414435034714274
-0.24414435034714274
-0.34180209048599985
-0.34180209048599985
-0.14648661020828566
-0.34180209048599985
-0.34180209048599985
-0.24414435034714274
-0.24414435034714274
-0.34180209048599985
-0.24414435034714274
-0.24414435034714274
-0.34180209048599985
-0.34180209048599985
-0.24414435034714274
-0.24414435034714274
-0.34180209048599985
-0.24414435034714274
-0.24414435034714274
-0.34180209048599985
-0.24414435034714274
-0.24414435034714274
-0.34180209048599985
-0.34180209048599985
-0.24414435034714274
-0.34180209048599985
-0.34180209048599985
-0.24414435034714274
-0.24414435034714274
-0.34180209048599985
-0.24414435034714274
-0.24414435034714274
-0.34180209048599985
-0.34180209048599985
-0.24414435034714274
-0.24414435034714274
-0.34180209048599985
-0.24414435034714274
-0.24414435034714274
-0.34180209048599985
-22.998397802700847
-139.6017395284962
-365.87472343022813
-555.5260547798886
-567.2449835965515
-438.4344243533989
-291.75249866483557
-195.46196688792247
-140.3830014496071
-100.44098573281453
-73.78042267490653
-57.56923781185626
-40.479133287556266
-26.61173418783856
-21.63118944075685
-16.55298695353628
-9.326314183260854
-7.470817120622568
-7.177843900205997
-3.076218814373999
-1.3183794918745708
-2.8809033340962844
-1.3183794918745708
0.6347753109025711
-0.7324330510414282
-0.8300907911802854
1.1230640115968566
0.43945983062485694
-0.6347753109025711
0.9277485313191425
1.2207217517357138
-0.34180209048599985
0.14648661020828566
1.2207217517357138
0.14648661020828566
0.04882887006942855
1.2207217517357138
0.7324330510414282
-0.04882887006942855
0.8300907911802854
1.0254062714579995
0.04882887006942855
0.43945983062485694
1.1230640115968566
0.34180209048599985
0.24414435034714274
0.9277485313191425
0.537117570763714
0.04882887006942855
0.7324330510414282
0.8300907911802854
0.24414435034714274
0.537117570763714
19.48271915770199
115.18730449378195
281.1078049897002
392.73060196841385
415.48485542076753
412.94575417715726
384.03906309605554
313.72549019607845
223.1967650873579
147.21904325932707
106.59342336156253
81.10475318532082
54.639505607690545
39.79552910658427
33.838406958113985
21.92416266117342
12.939650568398566
13.330281528953995
9.81460288395514
3.2715342946517127
4.345769436179141
5.322346837567712
0.537117570763714
0.14648661020828566
2.9785610742351416
0.43945983062485694
-1.416037232013428
1.2207217517357138
0.9277485313191425
-1.6113527122911422
-0.04882887006942855
1.2207217517357138
-1.1230640115968566
-0.9277485313191425
0.9277485313191425
-0.34180209048599985
-1.416037232013428
0.34180209048599985
0.24414435034714274
-1.3183794918745708
-0.24414435034714274
0.537117570763714
-0.8300907911802854
-0.7324330510414282
0.43945983062485694
-0.34180209048599985
-1.0254062714579995
0.04882887006942855
0.04882887006942855
-0.9277485313191425
-0.24414435034714274
0.14648661020828566
-0.6347753109025711
-0.537117570763714
0.14648661020828566
-0.34180209048599985
-0.7324330510414282
0.04882887006942855
-0.04882887006942855
-0.7324330510414282
-0.24414435034714274
0.04882887006942855
-0.537117570763714
-0.43945983062485694
0.04882887006942855
-0.34180209048599985
-0.537117570763714
-0.14648661020828566
-0.14648661020828566
-0.537117570763714
-0.24414435034714274
-0.04882887006942855
-0.43945983062485694
-0.34180209048599985
-0.04882887006942855
-0.34180209048599985
-34.32669565880827
-177.49294270237277
-411.2855725947967
-570.3700312809949
-547.71343556878
-408.7464713511864
-270.951400015259
-184.62195773250934
-132.3750667582208
-94.48386358434425
-70.94834821087969
-54.7371633478294
-37.35408560311284
-25.732814526588847
-21.14290074006256
-14.697489890897993
-8.545052262149996
-7.763790341039139
-6.298924238956283
-2.197299153124285
-1.9043259327077133
-2.783245593957427
-0.537117570763714
0.34180209048599985
-1.1230640115968566
-0.34180209048599985
1.1230640115968566
0.04882887006942855
-0.24414435034714274
1.2207217517357138
0.8300907911802854
-0.24414435034714274
0.6347753109025711
1.0254062714579995
-0.04882887006942855
0.34180209048599985
1.3183794918745708
0.43945983062485694
0.04882887006942855
1.0254062714579995
0.6347753109025711
0.04882887006942855
0.6347753109025711
0.9277485313191425
0.24414435034714274
0.43945983062485694
0.9277485313191425
0.43945983062485694
0.24414435034714274
0.7324330510414282
0.537117570763714
27.68596932936599
142.33615625238423
325.5420767528801
465.77859159227893
502.10727092393375
447.2236209658961
343.6087586785687
242.92362859540702
166.5552758068208
115.67559319447624
86.67124437323568
64.9912260624094
45.26436255436027
33.3501182574197
26.025787747005417
17.236591134508277
11.670099946593423
10.302891584649425
6.982528419928283
3.466849774929427
3.662165255207141
3.1738765545128556
0.7324330510414282
0.7324330510414282
1.6113527122911422
0.04882887006942855
-0.43945983062485694
0.7324330510414282
0.14648661020828566
-0.8300907911802854
0.04882887006942855
0.24414435034714274
-0.7324330510414282
-0.43945983062485694
0.24414435034714274
-0.43945983062485694
-0.7324330510414282
0.04882887006942855
-0.14648661020828566
-0.7324330510414282
-0.14648661020828566
0.04882887006942855
-0.6347753109025711
-0.34180209048599985
0.04882887006942855
-0.43945983062485694
-0.537117570763714
-0.04882887006942855
-0.24414435034714274
-0.6347753109025711
-0.14648661020828566
-0.04882887006942855
-0.537117570763714
-0.34180209048599985
-0.04882887006942855
-0.34180209048599985
-0.43945983062485694
-0.14648661020828566
-0.24414435034714274
-0.43945983062485694
-0.24414435034714274
-0.14648661020828566
-0.43945983062485694
-0.34180209048599985
-0.14648661020828566
-0.34180209048599985
-0.34180209048599985
-0.14648661020828566
-0.24414435034714274
-0.43945983062485694
-0.24414435034714274
-0.24414435034714274
-0.43945983062485694
-0.34180209048599985
-0.24414435034714274
-0.34180209048599985
-0.34180209048599985
-0.24414435034714274
-0.24414435034714274
-0.34180209048599985
-0.24414435034714274
-0.24414435034714274
-2.2949568932631417
-44.09246967269398
-205.13008316166935
-453.18074311436635
-596.8352788586252
-539.2172121766995
-380.81635767147327
-245.56038757915618
-169.6803234912642
-124.1718165865568
-88.03845273517967
-66.65140764476998
-52.10040436408026
-34.424353398947126
-23.291371023117417
-20.361638818951704
-13.81857022964828
-7.177843900205997
-7.470817120622568
-6.39658197909514
-1.6113527122911422
-1.7090104524299992
-3.2715342946517127
-0.24414435034714274
0.8300907911802854
-1.416037232013428
-0.34180209048599985
1.513694972152285
-0.24414435034714274
-0.537117570763714
1.6113527122911422
0.9277485313191425
-0.43945983062485694
0.9277485313191425
1.3183794918745708
-0.24414435034714274
0.24414435034714274
1.416037232013428
0.24414435034714274
-0.04882887006942855
1.2207217517357138
0.8300907911802854
0.04882887006942855
0.9277485313191425
1.1230640115968566
0.14648661020828566
0.43945983062485694
1.1230640115968566
0.34180209048599985
0.04882887006942855
0.9277485313191425
43.40886549172198
203.76287479972532
409.6253910124361
486.18905928130005
440.28992141603726
374.5662623025864
310.3074692912184
240.38452735179675
167.04356450751507
112.06225680933852
86.08529793240254
64.20996414129854
40.96742198825055
32.27588311589227
27.588311589227132
15.381094071869994
10.009918364232853
11.963073167009995
6.787212939650568
1.513694972152285
4.638742656595713
4.150453955901427
-0.8300907911802854
0.7324330510414282
2.9785610742351416
-0.7324330510414282
-1.2207217517357138
1.9043259327077133
0.14648661020828566
-1.9043259327077133
0.6347753109025711
0.9277485313191425
-1.7090104524299992
-0.43945983062485694
1.1230640115968566
-0.9277485313191425
-1.1230640115968566
0.8300907911802854
-0.14648661020828566
-1.416037232013428
0.14648661020828566
0.34180209048599985
-1.2207217517357138
-0.34180209048599985
0.537117570763714
-0.7324330510414282
-0.8300907911802854
0.34180209048599985
-0.14648661020828566
-1.0254062714579995
0.04882887006942855
0.04882887006942855
-0.8300907911802854
-0.34180209048599985
0.14648661020828566
-0.537117570763714
-0.6347753109025711
0.04882887006942855
-0.24414435034714274
-0.7324330510414282
-0.04882887006942855
-0.04882887006942855
-0.6347753109025711
-0.34180209048599985
0.04882887006942855
-0.43945983062485694
-0.537117570763714
0.04882887006942855
-0.24414435034714274
-0.537117570763714
-0.14648661020828566
-0.14648661020828566
-59.62005035477226
-265.48256656748305
-518.318455786984
-606.7963683527886
-503.3768215457389
-339.11650263218127
-220.75532158388648
-158.25436789501794
-113.62478065156023
-80.42114900434882
-64.20996414129854
-48.09643701838712
-29.63912413214313
-22.998397802700847
-20.068665598535134
-10.79118028534371
-6.591897459372854
-8.545052262149996
-4.638742656595713
-0.34180209048599985
-2.9785610742351416
-2.783245593957427
1.1230640115968566
0.04882887006942855
-2.0019836728465705
0.9277485313191425
1.416037232013428
-1.1230640115968566
0.14648661020828566
2.0019836728465705
-0.14648661020828566
-0.43945983062485694
1.6113527122911422
0.6347753109025711
-0.6347753109025711
1.1230640115968566
1.416037232013428
-0.24414435034714274
0.34180209048599985
1.513694972152285
0.14648661020828566
-0.04882887006942855
1.3183794918745708
0.7324330510414282
0.04882887006942855
0.9277485313191425
1.0254062714579995
0.04882887006942855
0.43945983062485694
1.1230640115968566
0.34180209048599985
0.24414435034714274
28.564888990615703
131.8867780575265
309.0379186694133
485.2124818799115
549.9595635919737
470.7591363393606
334.23361562523843
222.41550316624705
152.3949034866865
111.08567940794995
82.37430380712597
60.59662775616083
44.77607385366598
32.471198596169984
22.90074006256199
16.748302433813993
12.45136186770428
8.545052262149996
6.103608758678568
4.736400396734569
3.076218814373999
1.8066681925688564
1.513694972152285
1.1230640115968566
0.34180209048599985
0.34180209048599985
0.34180209048599985
-0.04882887006942855
-0.14648661020828566
0.04882887006942855
-0.14648661020828566
-0.34180209048599985
-0.14648661020828566
-0.14648661020828566
-0.43945983062485694
-0.24414435034714274
-0.14648661020828566
-0.34180209048599985
-0.34180209048599985
-0.14648661020828566
-0.24414435034714274
-0.34180209048599985
-0.24414435034714274
-0.24414435034714274
-0.34180209048599985
-0.24414435034714274
-0.24414435034714274
-0.34180209048599985
-28.467231250476843
-113.72243839169909
-186.37979705500877
-193.89944304570076
-218.02090485999847
-260.8926527809567
-236.1852445258259
-192.4345769436179
-187.6493476768139
-148.68390936140995
-75.53826199740597
-64.69825284199283
-90.96818493934539
-88.72205691615167
-93.60494392309452
-96.53467612726024
-37.06111238269627
48.19409475852598
117.43343251697566
214.7981994354162
341.5579461356527
414.99656672007325
367.0466163118944
238.0407415884642
149.36751354238194
122.21866178377967
83.6438544289311
47.21751735713741
48.97535667963683
41.358052948805984
14.013885709925994
14.209201190203707
22.21713588158999
5.224689097428855
-0.6347753109025711
11.865415426871138
5.224689097428855
-5.615320057984283
4.345769436179141
6.494239719233997
-5.127031357289998
-1.1230640115968566
6.39658197909514
-2.0996414129854277
-4.345769436179141
3.9551384756237127
-67.23735408560312
-295.4634927901121
-540.0961318379492
-604.3549248493172
-491.46257724879837
-324.07721065079727
-207.4738689250019
-154.73868925001906
-112.25757228961623
-74.75700007629511
-61.96383611810483
-49.26832990005341
-26.90470740825513
-20.654612039368278
-21.92416266117342
-10.498207064927138
-4.150453955901427
-9.521629663538567
-5.71297779812314
1.513694972152285
-2.8809033340962844
-4.638742656595713
2.0019836728465705
0.7324330510414282
-3.5645075150682843
0.8300907911802854
2.8809033340962844
-1.9043259327077133
-0.537117570763714
3.1738765545128556
-0.04882887006942855
-1.513694972152285
2.2949568932631417
1.416037232013428
-1.416037232013428
1.1230640115968566
2.0996414129854277
-0.9277485313191425
-0.04882887006942855
2.2949568932631417
0.24414435034714274
-0.537117570763714
1.8066681925688564
1.1230640115968566
-0.6347753109025711
0.8300907911802854
28.27191577019913
106.30045014114596
199.66124971389334
298.5885404745556
426.129549095903
501.91195544365604
452.8877698939498
328.1788357366293
211.67315175097275
146.04715037766078
110.69504844739453
76.90547035934996
55.127794308384836
46.240939955748836
31.787594415197987
18.506141756313422
17.52956435492485
14.209201190203707
5.517662317845426
5.322346837567712
7.275501640344854
1.9043259327077133
0.04882887006942855
3.662165255207141
1.513694972152285
-1.7090104524299992
1.2207217517357138
1.7090104524299992
-1.6113527122911422
-0.43945983062485694
1.6113527122911422
-0.8300907911802854
-1.416037232013428
1.0254062714579995
0.04882887006942855
-1.7090104524299992
0.24414435034714274
0.6347753109025711
-1.416037232013428
-0.537117570763714
0.7324330510414282
-0.7324330510414282
-1.1230640115968566
0.43945983062485694
-0.04882887006942855
-1.2207217517357138
0.04882887006942855
0.24414435034714274
-0.9277485313191425
-0.43945983062485694
0.34180209048599985
-0.6347753109025711
-0.8300907911802854
0.04882887006942855
-0.24414435034714274
-0.8300907911802854
-0.04882887006942855
0.04882887006942855
-0.7324330510414282
-0.34180209048599985
0.04882887006942855
-0.43945983062485694
-0.6347753109025711
0.04882887006942855
-0.24414435034714274
-62.35446707866026
-273.0998702983139
-525.9357595178149
-607.5776302738994
-498.49393453879605
-333.842984664683
-217.9232471198596
-156.88715953307394
-112.25757228961623
-79.63988708323797
-63.91699092088197
-47.31517509727627
-28.95551995117113
-22.998397802700847
-19.971007858396277
-10.498207064927138
-6.6895551995117115
-8.642710002288853
-4.248111696040284
-0.34180209048599985
-3.2715342946517127
-2.8809033340962844
1.1230640115968566
-0.14648661020828566
-1.9043259327077133
1.1230640115968566
1.416037232013428
-1.2207217517357138
0.24414435034714274
1.9043259327077133
-0.43945983062485694
-0.537117570763714
1.7090104524299992
0.6347753109025711
-0.43945983062485694
1.416037232013428
1.416037232013428
-0.34180209048599985
0.43945983062485694
1.416037232013428
0.04882887006942855
-0.04882887006942855
1.3183794918745708
0.6347753109025711
-0.04882887006942855
0.9277485313191425
1.0254062714579995
0.04882887006942855
0.43945983062485694
1.1230640115968566
0.34180209048599985
0.34180209048599985
1.0254062714579995
0.6347753109025711
42.62760357061112
213.82162203402763
457.86831464103153
573.5927367055772
507.47844663157093
372.0271610589761
257.962920576791
186.37979705500877
133.83993286030366
92.23773556115053
71.1436636911574
55.420767528801406
35.303273060196844
25.342183566033416
22.803082322423133
14.013885709925994
7.470817120622568
9.228656443121995
6.6895551995117115
1.2207217517357138
2.783245593957427
3.9551384756237127
-0.14648661020828566
-0.24414435034714274
2.490272373540856
0.14648661020828566
-1.6113527122911422
1.1230640115968566
0.7324330510414282
-1.7090104524299992
-0.04882887006942855
1.1230640115968566
-1.1230640115968566
-0.9277485313191425
0.8300907911802854
-0.34180209048599985
-1.3183794918745708
0.34180209048599985
0.14648661020828566
-1.2207217517357138
-0.24414435034714274
0.43945983062485694
-0.8300907911802854
-0.7324330510414282
0.43945983062485694
-0.34180209048599985
-0.9277485313191425
0.04882887006942855
0.04882887006942855
-0.9277485313191425
-0.24414435034714274
0.14648661020828566
-0.6347753109025711
-0.537117570763714
0.04882887006942855
-0.34180209048599985
-0.7324330510414282
-0.04882887006942855
-0.14648661020828566
-0.7324330510414282
-0.34180209048599985
-0.04882887006942855
-0.537117570763714
-0.43945983062485694
-0.04882887006942855
-0.34180209048599985
-0.537117570763714
-0.14648661020828566
-0.14648661020828566
-0.537117570763714
-0.24414435034714274
-0.04882887006942855
-0.43945983062485694
-0.43945983062485694
-0.14648661020828566
-0.24414435034714274
-48.877698939497975
-216.94666971847104
-438.4344243533989
-557.0885786221103
-518.8067444876783
-389.5078965438315
-264.8966201266499
-182.86411841000992
-128.17578393224994
-92.23773556115053
-71.04600595101854
-52.49103532463569
-35.49858854047456
-26.61173418783856
-20.752269779507134
-12.84199282825971
-8.935683222705425
-8.349736781872283
-4.931715877012284
-2.197299153124285
-2.9785610742351416
-2.197299153124285
0.04882887006942855
-0.537117570763714
-1.1230640115968566
0.537117570763714
0.6347753109025711
-0.537117570763714
0.34180209048599985
1.1230640115968566
0.04882887006942855
0.04882887006942855
1.2207217517357138
0.6347753109025711
-0.04882887006942855
0.7324330510414282
0.8300907911802854
0.04882887006942855
0.6347753109025711
1.0254062714579995
0.24414435034714274
0.34180209048599985
1.0254062714579995
0.6347753109025711
0.24414435034714274
0.7324330510414282
0.6347753109025711
0.24414435034714274
0.7324330510414282
1.2207217517357138
0.6347753109025711
10.009918364232853
65.6748302433814
172.61005569542993
281.1078049897002
381.79293507286184
457.0870527199207
442.6337071793698
354.83939879453726
258.2558937972076
183.3524071107042
135.9884031433585
99.3667505912871
67.7256427862974
51.02616922255284
40.28381780727855
25.92813000686656
17.920195315480278
16.45532921339742
10.595864805065995
5.127031357289998
6.298924238956283
5.127031357289998
0.8300907911802854
1.513694972152285
2.9785610742351416
0.04882887006942855
-0.537117570763714
1.6113527122911422
0.24414435034714274
-1.3183794918745708
0.537117570763714
0.6347753109025711
-1.2207217517357138
-0.34180209048599985
0.7324330510414282
-0.7324330510414282
-0.9277485313191425
0.537117570763714
-0.14648661020828566
-1.1230640115968566
0.04882887006942855
0.14648661020828566
-1.0254062714579995
-0.43945983062485694
0.24414435034714274
-0.7324330510414282
-0.7324330510414282
0.14648661020828566
-0.24414435034714274
-0.8300907911802854
-0.04882887006942855
0.04882887006942855
-0.7324330510414282
-0.34180209048599985
0.04882887006942855
-0.43945983062485694
-0.537117570763714
0.04882887006942855
-0.24414435034714274
-0.6347753109025711
-0.14648661020828566
-0.04882887006942855
-0.537117570763714
-0.34180209048599985
-0.04882887006942855
-0.43945983062485694
-0.43945983062485694
-0.04882887006942855
-0.24414435034714274
-0.537117570763714
-0.14648661020828566
-0.14648661020828566
-0.43945983062485694
-0.34180209048599985
-0.14648661020828566
-0.34180209048599985
-0.43945983062485694
-9.42397192339971
-108.83955138475623
-357.9644464789807
-584.5304036011291
-595.3704127565424
-445.95407034409095
-285.990691996643
-190.28610666056306
-141.0666056305791
-99.65972381170367
-71.72961013199054
-59.13176165407798
-41.5533684290837
-24.756237125200276
-21.92416266117342
-17.920195315480278
-7.861448081177996
-6.494239719233997
-8.545052262149996
-2.783245593957427
-0.14648661020828566
-3.8574807354848555
-1.9043259327077133
1.9043259327077133
-0.8300907911802854
-1.7090104524299992
2.0019836728465705
0.9277485313191425
-1.6113527122911422
0.9277485313191425
1.9043259327077133
-0.7324330510414282
0.14648661020828566
2.197299153124285
0.04882887006942855
-0.6347753109025711
1.6113527122911422
0.9277485313191425
-0.6347753109025711
0.8300907911802854
1.513694972152285
-0.14648661020828566
0.24414435034714274
1.416037232013428
0.14648661020828566
-0.04882887006942855
1.3183794918745708
37.84237430380713
155.71526665140763
315.09269855802245
445.75875486381324
502.4002441443503
457.7706569008927
349.9565117875944
240.4821850919356
160.89112687876707
116.16388189517052
87.15953307392996
61.768520637827116
45.362020294499125
35.4009308003357
24.072632944228275
15.967040512703136
13.720912489509422
9.912260624093996
5.127031357289998
4.834058136873426
4.541084916456855
1.513694972152285
0.9277485313191425
2.0996414129854277
0.537117570763714
-0.43945983062485694
0.8300907911802854
0.43945983062485694
-0.8300907911802854
0.04882887006942855
0.537117570763714
-0.7324330510414282
-0.537117570763714
0.34180209048599985
-0.34180209048599985
-0.8300907911802854
0.04882887006942855
0.04882887006942855
-0.8300907911802854
-0.24414435034714274
0.04882887006942855
-0.6347753109025711
-0.537117570763714
0.04882887006942855
-0.34180209048599985
-0.6347753109025711
-0.04882887006942855
-0.14648661020828566
-0.7324330510414282
-0.34180209048599985
-0.04882887006942855
-0.537117570763714
-0.43945983062485694
-0.04882887006942855
-0.34180209048599985
-0.537117570763714
-0.14648661020828566
-0.14648661020828566
-0.537117570763714
-0.24414435034714274
-0.04882887006942855
-0.43945983062485694
-0.34180209048599985
-0.14648661020828566
-0.34180209048599985
-0.43945983062485694
-0.24414435034714274
-0.24414435034714274
-0.43945983062485694
-0.24414435034714274
-0.14648661020828566
-0.34180209048599985
-0.34180209048599985
-0.14648661020828566
-30.029755092698558
-170.94987411306934
-417.04737926298924
-587.0695048447394
-557.0885786221103
-406.01205462729837
-263.33409628442814
-179.64141298542762
-131.0078583962768
-92.82368200198367
-69.38582436865796
-54.932478828107115
-37.15877012283513
-24.65857938506142
-21.43587396047913
-15.185778591592278
-7.666132600900283
-7.470817120622568
-6.982528419928283
-2.0019836728465705
-1.513694972152285
-3.466849774929427
-0.6347753109025711
1.0254062714579995
-1.2207217517357138
-0.537117570763714
1.7090104524299992
0.04882887006942855
-0.8300907911802854
1.2207217517357138
0.9277485313191425
-0.537117570763714
0.7324330510414282
1.416037232013428
-0.14648661020828566
0.14648661020828566
1.513694972152285
0.43945983062485694
-0.14648661020828566
1.1230640115968566
1.0254062714579995
-0.04882887006942855
0.6347753109025711
1.1230640115968566
0.04882887006942855
0.24414435034714274
1.1230640115968566
0.537117570763714
0.24414435034714274
1.0254062714579995
0.8300907911802854
6.494239719233997
70.65537499046312
234.62272068360417
387.9453727016098
419.8794537270161
398.6877241168841
380.5233844510567
334.81956206607157
256.595712214847
171.63347829404134
115.57793545433738
89.99160753795681
64.40527962157626
41.74868390936141
35.49858854047456
27.97894254978256
14.404516670481422
11.670099946593423
12.939650568398566
5.420004577706569
2.0019836728465705
6.005951018539712
3.1738765545128556
-1.2207217517357138
2.0019836728465705
2.783245593957427
-1.6113527122911422
-0.43945983062485694
2.2949568932631417
-0.7324330510414282
-1.7090104524299992
1.416037232013428
0.24414435034714274
-2.0019836728465705
0.24414435034714274
0.9277485313191425
-1.6113527122911422
-0.6347753109025711
1.1230640115968566
-0.7324330510414282
-1.416037232013428
0.537117570763714
-0.04882887006942855
-1.416037232013428
0.04882887006942855
0.43945983062485694
-1.1230640115968566
-0.537117570763714
0.537117570763714
-0.537117570763714
-0.9277485313191425
0.24414435034714274
-0.04882887006942855
-1.0254062714579995
-0.04882887006942855
0.14648661020828566
-0.8300907911802854
-0.43945983062485694
0.14648661020828566
-0.43945983062485694
-0.6347753109025711
0.04882887006942855
-0.14648661020828566
-0.7324330510414282
-0.14648661020828566
0.04882887006942855
-0.6347753109025711
-0.43945983062485694
0.04882887006942855
-0.43945983062485694
-19.18974593728542
-101.80819409475852
-273.2951857785916
-469.4895857175555
-559.1393911650263
-492.3414969100481
-352.983901731899
-233.54848554207675
-160.20752269779507
-116.55451285572595
-84.91340505073624
-62.84275577935454
-47.31517509727627
-33.3501182574197
-23.19371328297856
-17.920195315480278
-12.84199282825971
-8.05676356145571
-6.39658197909514
-5.127031357289998
-2.490272373540856
-1.6113527122911422
-2.0019836728465705
-0.7324330510414282
0.04882887006942855
-0.537117570763714
-0.14648661020828566
0.7324330510414282
0.34180209048599985
0.04882887006942855
0.7324330510414282
0.6347753109025711
0.04882887006942855
0.43945983062485694
0.8300907911802854
0.34180209048599985
0.43945983062485694
0.9277485313191425
0.6347753109025711
0.34180209048599985
0.8300907911802854
0.8300907911802854
0.34180209048599985
0.537117570763714
0.7324330510414282
0.34180209048599985
0.43945983062485694
0.8300907911802854
0.537117570763714
0.34180209048599985
0.6347753109025711
8.838025482566568
56.59266041046769
166.16464484626536
318.70603494316015
468.1223773556115
528.2795452811475
457.57534142061496
327.10460059510183
215.97009231708248
147.90264744029906
109.32784008545052
79.83520256351568
57.86221103227283
44.38544289311055
32.08056763561456
21.24055848020142
16.45532921339742
12.939650568398566
7.666132600900283
5.517662317845426
5.420004577706569
2.9785610742351416
1.2207217517357138
2.0996414129854277
1.416037232013428
-0.14648661020828566
0.43945983062485694
0.8300907911802854
-0.43945983062485694
-0.34180209048599985
0.43945983062485694
-0.24414435034714274
-0.7324330510414282
0.14648661020828566
0.04882887006942855
-0.8300907911802854
-0.24414435034714274
0.04882887006942855
-0.6347753109025711
-0.537117570763714
0.04882887006942855
-0.34180209048599985
-0.6347753109025711
-0.14648661020828566
-0.14648661020828566
-0.6347753109025711
-0.34180209048599985
-0.04882887006942855
-0.537117570763714
-0.43945983062485694
-0.04882887006942855
-0.34180209048599985
-0.537117570763714
-0.14648661020828566
-0.24414435034714274
-0.537117570763714
-0.24414435034714274
-0.14648661020828566
-0.43945983062485694
-0.34180209048599985
-0.14648661020828566
-0.34180209048599985
-0.43945983062485694
-0.14648661020828566
-0.24414435034714274
-0.43945983062485694
-0.24414435034714274
-0.14648661020828566
-0.34180209048599985
-0.34180209048599985
-0.24414435034714274
-0.34180209048599985
-0.34180209048599985
-0.24414435034714274
-0.24414435034714274
-29.2484931715877
-145.65651941710536
-341.5579461356527
-509.04097047379264
-543.9047837033646
-449.2744335088121
-315.97161821927216
-213.04036011291677
-148.00030518043792
-106.49576562142367
-79.05394064240483
-59.22941939421683
-42.529945830472265
-30.22507057297627
-22.412451361867703
-16.16235599298085
-10.986495765621424
-8.252079041733426
-6.201266498817426
-3.8574807354848555
-2.5879301136797133
-2.0996414129854277
-1.0254062714579995
-0.34180209048599985
-0.537117570763714
-0.14648661020828566
0.34180209048599985
0.14648661020828566
0.04882887006942855
0.6347753109025711
0.6347753109025711
0.24414435034714274
0.537117570763714
0.7324330510414282
0.43945983062485694
0.43945983062485694
0.7324330510414282
0.43945983062485694
0.34180209048599985
0.7324330510414282
0.7324330510414282
0.6347753109025711
0.7324330510414282
0.7324330510414282
0.537117570763714
0.6347753109025711
0.7324330510414282
0.537117570763714
10.888838025482567
64.50293736171511
150.8323796444648
207.2785534447242
263.52941176470586
352.4956130312047
381.98825055313955
334.9172198062104
290.092317082475
260.59967956054015
222.80613412680248
165.67635614557108
106.8863965819791
76.61249713893339
61.475547417410546
39.600213626306555
26.514076447699704
25.830472266727703
17.041275654230564
7.275501640344854
9.619287403677424
8.838025482566568
1.2207217517357138
2.0019836728465705
5.322346837567712
0.24414435034714274
-1.3183794918745708
2.8809033340962844
1.0254062714579995
-2.392614633401999
0.8300907911802854
1.7090104524299992
-2.0019836728465705
-0.7324330510414282
1.8066681925688564
-0.9277485313191425
-1.7090104524299992
1.1230640115968566
0.04882887006942855
-1.9043259327077133
0.14648661020828566
0.7324330510414282
-1.416037232013428
-0.6347753109025711
0.8300907911802854
-0.7324330510414282
-1.1230640115968566
0.537117570763714
-0.04882887006942855
-1.3183794918745708
0.04882887006942855
0.34180209048599985
-1.0254062714579995
-0.537117570763714
0.43945983062485694
-0.6347753109025711
-0.9277485313191425
0.14648661020828566
-0.14648661020828566
-0.9277485313191425
-0.14648661020828566
0.04882887006942855
-0.7324330510414282
-0.43945983062485694
0.04882887006942855
-0.43945983062485694
-0.6347753109025711
0.04882887006942855
-0.14648661020828566
-0.6347753109025711
-0.14648661020828566
-0.04882887006942855
-6.6895551995117115
-53.760585946440834
-186.0868238345922
-377.88662546730757
-522.0294499122606
-530.1350423437858
-422.5162127107652
-291.16655222400243
-195.26665140764476
-136.76966506446936
-99.85503929198138
-73.97573815518425
-54.932478828107115
-39.99084458686198
-28.467231250476843
-20.55695429922942
-14.990463111314565
-10.302891584649425
-7.275501640344854
-5.517662317845426
-3.7598229953459983
-2.2949568932631417
-1.7090104524299992
-1.0254062714579995
-0.34180209048599985
-0.14648661020828566
-0.04882887006942855
0.24414435034714274
0.34180209048599985
0.14648661020828566
0.43945983062485694
0.6347753109025711
0.537117570763714
0.537117570763714
0.6347753109025711
0.43945983062485694
0.34180209048599985
0.537117570763714
0.6347753109025711
0.537117570763714
0.537117570763714
0.6347753109025711
0.43945983062485694
0.43945983062485694
0.537117570763714
0.537117570763714
0.43945983062485694
0.537117570763714
0.6347753109025711
0.6347753109025711
0.6347753109025711
0.6347753109025711
25.732814526588847
108.05828946364538
226.51712825207903
357.37850003814754
473.98184176394295
499.7634851606012
416.6567483024338
293.41268024719614
193.1181811245899
135.20714122224766
101.02693217364767
72.02258335240711
52.588693064774546
41.45571068894484
28.66254673075456
18.701457236591136
15.771725032425422
11.865415426871138
6.103608758678568
5.420004577706569
5.420004577706569
2.0019836728465705
0.9277485313191425
2.392614633401999
0.8300907911802854
-0.6347753109025711
0.8300907911802854
0.8300907911802854
-0.9277485313191425
-0.14648661020828566
0.7324330510414282
-0.6347753109025711
-0.8300907911802854
0.43945983062485694
-0.14648661020828566
-1.0254062714579995
0.04882887006942855
0.04882887006942855
-0.8300907911802854
-0.34180209048599985
0.14648661020828566
-0.537117570763714
-0.6347753109025711
0.04882887006942855
-0.24414435034714274
-0.7324330510414282
-0.04882887006942855
-0.04882887006942855
-0.6347753109025711
-0.34180209048599985
0.04882887006942855
-0.43945983062485694
-0.537117570763714
0.04882887006942855
-0.24414435034714274
-0.537117570763714
-0.14648661020828566
-0.14648661020828566
-0.537117570763714
-0.34180209048599985
-0.04882887006942855
-0.43945983062485694
-0.43945983062485694
-0.14648661020828566
-0.34180209048599985
-0.537117570763714
-0.24414435034714274
-0.24414435034714274
-0.43945983062485694
-0.34180209048599985
-32.27588311589227
-181.7898832684825
-435.40703440909436
-598.4954604409858
-553.5728999771114
-394.683756771191
-253.2753490501259
-173.87960631723507
-127.78515297169452
-90.2845807583734
-67.92095826657511
-54.053559166857404
-35.889219501029984
-23.682001983672848
-21.045242999923705
-14.599832150759136
-6.982528419928283
-7.470817120622568
-6.982528419928283
-1.7090104524299992
-1.3183794918745708
-3.466849774929427
-0.43945983062485694
1.0254062714579995
-1.6113527122911422
-0.7324330510414282
1.7090104524299992
0.04882887006942855
-0.6347753109025711
1.6113527122911422
1.0254062714579995
-0.8300907911802854
0.6347753109025711
1.416037232013428
-0.24414435034714274
0.14648661020828566
1.7090104524299992
0.537117570763714
-0.04882887006942855
1.2207217517357138
0.8300907911802854
-0.34180209048599985
0.537117570763714
1.3183794918745708
0.34180209048599985
0.537117570763714
1.2207217517357138
0.34180209048599985
-0.04882887006942855
2.68558785381857
39.600213626306555
127.29686427100023
195.36430914778362
235.59929808499274
305.3269245441367
338.5305561913481
301.8112458991379
283.7445639734493
289.0180819409476
260.40436408026244
198.58701457236592
135.40245670252537
100.83161669336995
84.62043183031967
56.39734493018997
34.32669565880827
33.15480277714199
24.95155260547799
9.912260624093996
11.181811245899137
13.037308308537423
2.783245593957427
1.2207217517357138
7.177843900205997
1.9043259327077133
-2.5879301136797133
3.1738765545128556
2.783245593957427
-3.076218814373999
0.04882887006942855
3.076218814373999
-1.9043259327077133
-1.8066681925688564
2.392614633401999
-0.14648661020828566
-2.68558785381857
1.1230640115968566
1.0254062714579995
-2.392614633401999
-0.24414435034714274
1.513694972152285
-1.416037232013428
-1.3183794918745708
1.3183794918745708
-0.34180209048599985
-1.8066681925688564
0.537117570763714
0.43945983062485694
-1.6113527122911422
-0.24414435034714274
0.8300907911802854
-1.0254062714579995
-0.9277485313191425
0.6347753109025711
-0.34180209048599985
-1.2207217517357138
0.14648661020828566
0.04882887006942855
-1.2207217517357138
-0.34180209048599985
0.34180209048599985
-0.7324330510414282
-0.7324330510414282
0.24414435034714274
-0.34180209048599985
-0.9277485313191425
0.04882887006942855
0.04882887006942855
-0.8300907911802854
-0.24414435034714274
-10.693522545204852
-106.00747692072939
-337.8469520103761
-559.5300221255817
-589.6086060883497
-457.57534142061496
-300.346379797055
-199.2706187533379
-145.65651941710536
-103.4683756771191
-74.36636911573969
-60.108339055466544
-42.62760357061112
-26.025787747005417
-22.119478141451133
-18.40848401617456
-9.130998702983138
-6.982528419928283
-8.44739452201114
-3.2715342946517127
0.04882887006942855
-2.9785610742351416
-2.0019836728465705
1.1230640115968566
-1.0254062714579995
-1.9043259327077133
1.3183794918745708
0.9277485313191425
-0.9277485313191425
1.1230640115968566
1.8066681925688564
-0.7324330510414282
-0.34180209048599985
1.6113527122911422
0.14648661020828566
-0.34180209048599985
2.0019836728465705
1.513694972152285
-0.34180209048599985
0.43945983062485694
1.0254062714579995
-0.34180209048599985
0.04882887006942855
1.513694972152285
0.8300907911802854
0.34180209048599985
1.2207217517357138
0.7324330510414282
-0.24414435034714274
20.45929655909056
130.81254291599907
339.7024490730144
507.0878156710155
528.5725185015641
441.7547875181201
323.68657969024184
228.37262531471734
160.30518043793393
110.3044174868391
82.47196154726483
64.20996414129854
43.604180971999696
30.420386053253985
25.732814526588847
17.43190661478599
9.81460288395514
9.619287403677424
7.861448081177996
2.68558785381857
2.783245593957427
4.052796215762569
0.7324330510414282
-0.14648661020828566
2.0019836728465705
0.6347753109025711
-1.2207217517357138
0.537117570763714
0.9277485313191425
-1.1230640115968566
-0.43945983062485694
0.8300907911802854
-0.6347753109025711
-1.0254062714579995
0.537117570763714
-0.04882887006942855
-1.1230640115968566
0.04882887006942855
0.24414435034714274
-0.9277485313191425
-0.43945983062485694
0.34180209048599985
-0.537117570763714
-0.7324330510414282
0.14648661020828566
-0.14648661020828566
-0.8300907911802854
-0.04882887006942855
0.04882887006942855
-0.8300907911802854
-0.43945983062485694
0.04882887006942855
-0.43945983062485694
-0.6347753109025711
0.04882887006942855
-0.24414435034714274
-0.6347753109025711
-0.14648661020828566
-0.04882887006942855
-0.537117570763714
-0.34180209048599985
-0.04882887006942855
-0.43945983062485694
-0.43945983062485694
-0.04882887006942855
-0.24414435034714274
-34.81498435950255
-159.7192339971008
-353.1792172121767
-511.48241397726406
-541.2680247196155
-443.6102845807584
-309.6238651102464
-207.4738689250019
-143.21507591363394
-103.85900663767453
-77.4914168001831
-57.27626459143969
-41.651026169222554
-30.420386053253985
-21.92416266117342
-15.381094071869994
-11.08415350576028
-7.861448081177996
-5.127031357289998
-3.7598229953459983
-2.9785610742351416
-2.0019836728465705
-1.1230640115968566
-0.8300907911802854
-0.24414435034714274
0.43945983062485694
0.43945983062485694
0.14648661020828566
0.14648661020828566
0.24414435034714274
0.14648661020828566
0.34180209048599985
0.7324330510414282
0.8300907911802854
0.8300907911802854
0.6347753109025711
0.34180209048599985
0.24414435034714274
0.43945983062485694
0.537117570763714
0.6347753109025711
0.9277485313191425
1.0254062714579995
0.6347753109025711
0.34180209048599985
0.34180209048599985
0.24414435034714274
0.24414435034714274
0.537117570763714
0.9277485313191425
0.9277485313191425
0.6347753109025711
0.43945983062485694
0.34180209048599985
11.279468986037996
67.62798504615854
152.78553444724193
184.13366903181506
191.65331502250706
246.14633401998933
272.8068970778973
253.08003356984818
279.25230792706185
328.8624399176013
319.487296864271
243.80254825665673
153.66445410849164
104.44495307850767
83.83916990920882
55.32310978866255
36.182192721446555
35.4009308003357
24.853894865339132
10.400549324788281
12.549019607843137
12.84199282825971
2.392614633401999
2.197299153124285
7.470817120622568
1.2207217517357138
-2.0996414129854277
3.7598229953459983
2.0996414129854277
-3.1738765545128556
0.7324330510414282
2.783245593957427
-2.2949568932631417
-1.416037232013428
2.490272373540856
-0.7324330510414282
-2.490272373540856
1.416037232013428
0.6347753109025711
-2.490272373540856
0.04882887006942855
1.416037232013428
-1.7090104524299992
-1.0254062714579995
1.3183794918745708
-0.6347753109025711
-1.7090104524299992
0.7324330510414282
0.24414435034714274
-1.6113527122911422
-0.04882887006942855
0.7324330510414282
-1.1230640115968566
-0.7324330510414282
0.7324330510414282
-0.537117570763714
-1.1230640115968566
0.34180209048599985
0.04882887006942855
-1.1230640115968566
-0.14648661020828566
0.34180209048599985
-0.8300907911802854
-0.6347753109025711
0.24414435034714274
-0.43945983062485694
-0.8300907911802854
0.04882887006942855
-0.14648661020828566
-0.9277485313191425
-0.24414435034714274
0.04882887006942855
-7.959105821316854
-66.94438086518655
-229.54451819638362
-440.8758678568704
-556.2096589608606
-513.3379110399023
-381.4023041123064
-256.98634317540245
-176.02807660028992
-125.05073624780651
-90.57755397878996
-68.21393148699168
-50.635538261997404
-35.303273060196844
-25.732814526588847
-19.87335011825742
-13.330281528953995
-8.935683222705425
-7.373159380483711
-4.736400396734569
-2.197299153124285
-2.2949568932631417
-2.0996414129854277
-0.537117570763714
-0.43945983062485694
-0.9277485313191425
0.14648661020828566
0.9277485313191425
0.24414435034714274
0.24414435034714274
0.7324330510414282
0.14648661020828566
-0.04882887006942855
0.6347753109025711
0.6347753109025711
0.34180209048599985
0.8300907911802854
0.8300907911802854
0.04882887006942855
0.24414435034714274
0.6347753109025711
0.34180209048599985
0.34180209048599985
1.0254062714579995
0.9277485313191425
0.34180209048599985
0.43945983062485694
0.537117570763714
0.24414435034714274
10.10757610437171
47.0222018768597
131.0078583962768
291.36186770428014
478.76707103074693
554.3541618982223
474.66544594491495
332.18280308232244
217.0443274586099
151.5159838254368
111.28099488822767
79.73754482337682
59.815365835049974
46.14328221560998
31.201647974364842
21.43587396047913
18.017853055619135
12.45136186770428
6.982528419928283
6.6895551995117115
5.615320057984283
1.9043259327077133
1.8066681925688564
2.783245593957427
0.537117570763714
-0.24414435034714274
1.2207217517357138
0.43945983062485694
-0.9277485313191425
0.24414435034714274
0.537117570763714
-0.8300907911802854
-0.43945983062485694
0.537117570763714
-0.43945983062485694
-0.8300907911802854
0.24414435034714274
-0.14648661020828566
-1.0254062714579995
-0.14648661020828566
0.04882887006942855
-0.7324330510414282
-0.43945983062485694
0.04882887006942855
-0.43945983062485694
-0.6347753109025711
0.04882887006942855
-0.14648661020828566
-0.6347753109025711
-0.14648661020828566
-0.04882887006942855
-0.537117570763714
-0.34180209048599985
0.04882887006942855
-0.43945983062485694
-0.537117570763714
-0.04882887006942855
-0.24414435034714274
-0.537117570763714
-0.24414435034714274
-0.14648661020828566
-0.43945983062485694
-0.34180209048599985
-0.14648661020828566
-0.34180209048599985
-0.43945983062485694
-0.14648661020828566
-0.24414435034714274
-0.43945983062485694
-0.24414435034714274
-34.131380178530556
-187.4540321965362
-440.8758678568704
-598.98374914168
-549.8619058518349
-390.6797894254978
-251.22453650720988
-173.29365987640193
-127.29686427100023
-89.69863431754024
-67.53032730601969
-53.467612726024264
-35.20561532005799
-23.291371023117417
-21.045242999923705
-14.697489890897993
-7.275501640344854
-7.568474860761425
-6.884870679789426
-1.513694972152285
-1.2207217517357138
-3.1738765545128556
-0.34180209048599985
0.8300907911802854
-1.7090104524299992
-0.6347753109025711
1.7090104524299992
-0.04882887006942855
-0.537117570763714
1.8066681925688564
0.9277485313191425
-0.9277485313191425
0.43945983062485694
1.2207217517357138
-0.34180209048599985
0.34180209048599985
2.0019836728465705
0.7324330510414282
-0.14648661020828566
1.0254062714579995
0.6347753109025711
-0.34180209048599985
0.6347753109025711
1.2207217517357138
0.34180209048599985
0.6347753109025711
1.2207217517357138
0.24414435034714274
0.04882887006942855
28.076600289921416
133.15632867933166
265.0919356069276
307.866025787747
305.815213244831
347.41741054398415
367.2419317921721
318.9990081635767
250.83390554665445
198.1963836118105
162.74662394140535
121.53505760280765
76.8078126192111
57.08094911116198
48.19409475852598
28.760204470893417
18.506141756313422
20.752269779507134
12.939650568398566
3.8574807354848555
7.763790341039139
7.470817120622568
-0.24414435034714274
1.2207217517357138
5.0293736171511405
-0.34180209048599985
-1.8066681925688564
3.076218814373999
0.8300907911802854
-2.783245593957427
0.9277485313191425
1.8066681925688564
-2.2949568932631417
-0.7324330510414282
1.9043259327077133
-1.0254062714579995
-1.8066681925688564
1.2207217517357138
0.04882887006942855
-2.0996414129854277
0.24414435034714274
0.8300907911802854
-1.6113527122911422
-0.6347753109025711
1.0254062714579995
-0.8300907911802854
-1.2207217517357138
0.6347753109025711
-0.04882887006942855
-1.416037232013428
0.04882887006942855
0.34180209048599985
-1.1230640115968566
-0.43945983062485694
0.537117570763714
-0.6347753109025711
-0.9277485313191425
0.24414435034714274
-0.14648661020828566
-1.0254062714579995
-0.04882887006942855
0.04882887006942855
-0.8300907911802854
-0.43945983062485694
0.14648661020828566
-0.537117570763714
-0.6347753109025711
0.04882887006942855
-0.24414435034714274
-0.8300907911802854
-0.14648661020828566
-16.748302433813993
-120.26550698100252
-342.4368657969024
-544.8813611047532
-572.8114747844663
-452.00885023270007
-303.86205844205386
-203.76287479972532
-146.63309681849393
-104.1519798580911
-75.83123521782254
-60.01068131532769
-42.33463035019455
-27.100022888532845
-22.412451361867703
-17.724879835202564
-9.619287403677424
-7.568474860761425
-7.861448081177996
-3.1738765545128556
-0.7324330510414282
-2.8809033340962844
-1.513694972152285
0.7324330510414282
-1.0254062714579995
-1.416037232013428
1.1230640115968566
0.6347753109025711
-0.6347753109025711
1.1230640115968566
1.416037232013428
-0.537117570763714
0.04882887006942855
1.416037232013428
0.14648661020828566
-0.14648661020828566
1.513694972152285
1.1230640115968566
-0.04882887006942855
0.6347753109025711
0.9277485313191425
-0.04882887006942855
0.24414435034714274
1.3183794918745708
0.7324330510414282
0.43945983062485694
1.1230640115968566
0.537117570763714
-0.14648661020828566
0.537117570763714
0.8300907911802854
0.34180209048599985
0.7324330510414282
1.2207217517357138
0.43945983062485694
19.775692378118563
133.0586709391928
363.82391088731214
560.3112840466927
572.2255283436332
440.28992141603726
291.459525444419
195.65728236820019
141.7502098115511
100.7339589532311
73.78042267490653
58.74113069352254
41.358052948805984
26.61173418783856
22.21713588158999
17.13893339436942
8.935683222705425
7.373159380483711
7.861448081177996
3.1738765545128556
1.3183794918745708
3.5645075150682843
1.7090104524299992
-0.7324330510414282
1.2207217517357138
1.416037232013428
-1.1230640115968566
-0.24414435034714274
1.2207217517357138
-0.6347753109025711
-1.0254062714579995
0.7324330510414282
0.04882887006942855
-1.3183794918745708
0.04882887006942855
0.34180209048599985
-1.0254062714579995
-0.43945983062485694
0.43945983062485694
-0.7324330510414282
-0.9277485313191425
0.24414435034714274
-0.14648661020828566
-0.9277485313191425
-0.04882887006942855
0.04882887006942855
-0.8300907911802854
-0.43945983062485694
0.14648661020828566
-0.537117570763714
-0.6347753109025711
0.04882887006942855
-0.24414435034714274
-0.7324330510414282
-0.14648661020828566
-0.04882887006942855
-0.6347753109025711
-0.34180209048599985
0.04882887006942855
-0.43945983062485694
-0.537117570763714
-0.04882887006942855
-0.24414435034714274
-0.537117570763714
-0.24414435034714274
-0.14648661020828566
-0.43945983062485694
-0.34180209048599985
-0.14648661020828566
-0.43945983062485694
-0.537117570763714
-0.14648661020828566
-0.24414435034714274
-0.43945983062485694
-24.267948424505988
-146.14480811779964
-377.69130998702985
-563.3386739909972
-565.0965133134966
-431.0124361028458
-285.1117723353933
-191.65331502250706
-138.33218890669107
-98.87846189059282
-72.70618753337911
-56.88563363088426
-39.79552910658427
-26.22110322728313
-21.63118944075685
-16.357671473258563
-8.935683222705425
-7.373159380483711
-7.080186160067139
-2.68558785381857
-1.0254062714579995
-2.9785610742351416
-1.3183794918745708
0.537117570763714
-1.0254062714579995
-0.9277485313191425
1.2207217517357138
0.6347753109025711
-0.43945983062485694
0.9277485313191425
1.0254062714579995
-0.537117570763714
0.24414435034714274
1.3183794918745708
0.24414435034714274
0.24414435034714274
1.513694972152285
0.7324330510414282
-0.14648661020828566
0.6347753109025711
0.8300907911802854
0.04882887006942855
0.6347753109025711
1.416037232013428
0.6347753109025711
0.24414435034714274
0.8300907911802854
0.34180209048599985
0.04882887006942855
0.6347753109025711
35.69390402075227
164.30914778362708
322.7100022888533
368.9021133745327
328.1788357366293
281.9867246509499
204.25116350041964
137.25795376516365
166.26230258640422
232.7672236209659
238.4313725490196
178.95780880445562
114.01541161211567
86.76890211337454
71.63195239185168
43.21355001144427
29.2484931715877
31.00633249408713
18.799114976729992
6.884870679789426
12.060730907148852
10.498207064927138
-0.04882887006942855
2.68558785381857
7.080186160067139
-0.537117570763714
-1.9043259327077133
4.443427176317998
0.9277485313191425
-3.466849774929427
1.8066681925688564
2.2949568932631417
-3.076218814373999
-0.537117570763714
2.68558785381857
-1.6113527122911422
-2.0996414129854277
2.0996414129854277
0.04882887006942855
-2.5879301136797133
0.7324330510414282
1.1230640115968566
-2.197299153124285
-0.6347753109025711
1.416037232013428
-1.2207217517357138
-1.513694972152285
1.0254062714579995
-0.14648661020828566
-1.7090104524299992
0.24414435034714274
0.537117570763714
-1.416037232013428
-0.43945983062485694
0.7324330510414282
-0.8300907911802854
-1.0254062714579995
0.537117570763714
-0.14648661020828566
-1.2207217517357138
0.04882887006942855
0.14648661020828566
-1.0254062714579995
-0.34180209048599985
0.34180209048599985
-0.6347753109025711
-0.7324330510414282
-0.7324330510414282
-59.91302357518883
-261.380941481651
-510.9941252765698
-603.9642938887617
-506.4042114900435
-343.1204699778744
-222.5131609063859
-159.13328755626765
-114.89433127336538
-81.00709544518196
-64.20996414129854
-48.68238345922026
-29.9320973525597
-22.412451361867703
-19.87335011825742
-11.279468986037996
-6.6895551995117115
-8.74036774242771
-5.224689097428855
-0.537117570763714
-2.68558785381857
-2.8809033340962844
1.2207217517357138
0.14648661020828566
-2.197299153124285
0.43945983062485694
1.513694972152285
-1.1230640115968566
-0.14648661020828566
2.0019836728465705
0.04882887006942855
-0.537117570763714
1.416037232013428
0.6347753109025711
-0.7324330510414282
0.9277485313191425
1.416037232013428
-0.04882887006942855
0.537117570763714
1.6113527122911422
0.24414435034714274
-0.14648661020828566
1.1230640115968566
0.7324330510414282
-0.04882887006942855
0.9277485313191425
1.3183794918745708
0.04882887006942855
0.34180209048599985
1.1230640115968566
0.24414435034714274
0.04882887006942855
0.9277485313191425
8.252079041733426
40.86976424811169
136.08606088349737
318.51071946288243
505.7206073090715
558.1628137636377
461.0910200656138
316.3622491798276
208.05981536583505
147.51201647974364
107.37468528267338
76.90547035934996
59.03410391393912
44.580758373388264
29.346150911726557
21.43587396047913
17.920195315480278
11.279468986037996
6.884870679789426
7.177843900205997
4.931715877012284
1.513694972152285
2.392614633401999
2.5879301136797133
0.04882887006942855
0.04882887006942855
1.416037232013428
-0.14648661020828566
-0.9277485313191425
0.6347753109025711
0.14648661020828566
-1.1230640115968566
-0.04882887006942855
0.43945983062485694
-0.8300907911802854
-0.537117570763714
0.34180209048599985
-0.43945983062485694
-0.8300907911802854
0.04882887006942855
-0.04882887006942855
-0.8300907911802854
-0.14648661020828566
0.04882887006942855
-0.6347753109025711
-0.43945983062485694
0.04882887006942855
-0.43945983062485694
-0.6347753109025711
-0.04882887006942855
-0.24414435034714274
-0.7324330510414282
-0.24414435034714274
-0.04882887006942855
-0.537117570763714
-0.43945983062485694
-0.04882887006942855
-0.34180209048599985
-0.537117570763714
-0.14648661020828566
-0.14648661020828566
-0.537117570763714
-0.24414435034714274
-0.14648661020828566
-0.43945983062485694
-0.34180209048599985
-0.14648661020828566
-0.34180209048599985
-0.43945983062485694
-0.14648661020828566
-0.24414435034714274
-0.43945983062485694
-0.24414435034714274
-0.14648661020828566
-0.34180209048599985
-0.34180209048599985
-24.65857938506142
-158.15671015487908
-411.87151903562983
-596.3469901579309
-567.8309300373846
-410.406652933547
-262.748149843595
-178.5671778439002
-131.8867780575265
-93.01899748226138
-68.89753566796368
-55.61608300907912
-37.549401083390556
-23.682001983672848
-21.14290074006256
-15.771725032425422
-7.373159380483711
-7.275501640344854
-7.568474860761425
-1.9043259327077133
-0.7324330510414282
-3.5645075150682843
-0.9277485313191425
1.2207217517357138
-1.416037232013428
-1.1230640115968566
1.7090104524299992
0.14648661020828566
-1.0254062714579995
1.416037232013428
1.3183794918745708
-0.8300907911802854
0.43945983062485694
1.7090104524299992
-0.14648661020828566
-0.04882887006942855
1.7090104524299992
0.7324330510414282
-0.24414435034714274
1.0254062714579995
1.0254062714579995
-0.14648661020828566
0.6347753109025711
1.3183794918745708
0.24414435034714274
0.34180209048599985
1.3183794918745708
7.177843900205997
20.068665598535134
35.596246280613414
95.55809872587167
218.02090485999847
295.561150530251
291.6548409246967
314.21377889677274
360.1129167620356
337.261005569543
266.2638284885939
209.03639276722362
174.56321049820707
141.16426337071795
93.80025940337224
60.49897001602197
52.49103532463569
37.64705882352941
19.48271915770199
19.385061417563133
18.310826276035705
5.908293278400855
4.638742656595713
9.619287403677424
2.783245593957427
-1.3183794918745708
4.541084916456855
2.8809033340962844
-2.8809033340962844
0.9277485313191425
3.2715342946517127
-2.197299153124285
-1.416037232013428
2.68558785381857
-0.6347753109025711
-2.68558785381857
1.416037232013428
0.7324330510414282
-2.5879301136797133
0.04882887006942855
1.513694972152285
-1.7090104524299992
-1.1230640115968566
1.416037232013428
-0.537117570763714
-1.7090104524299992
0.7324330510414282
0.24414435034714274
-1.7090104524299992
-0.04882887006942855
0.7324330510414282
-1.2207217517357138
-0.8300907911802854
0.7324330510414282
-0.43945983062485694
-1.2207217517357138
0.34180209048599985
0.04882887006942855
-1.2207217517357138
-0.24414435034714274
0.24414435034714274
-0.9277485313191425
-0.6347753109025711
0.24414435034714274
-0.43945983062485694
-0.8300907911802854
0.04882887006942855
-0.04882887006942855
-0.8300907911802854
-0.24414435034714274
0.04882887006942855
-0.6347753109025711
-0.43945983062485694
0.04882887006942855
-42.529945830472265
-213.13801785305563
-465.8762493324178
-601.4251926451515
-535.2132448310064
-374.0779736018921
-241.1657892729076
-168.50843060959792
-122.90226596475166
-86.47592889295797
-66.45609216449226
-51.709773403524835
-33.252460517280845
-23.291371023117417
-20.84992751964599
-13.232623788815136
-6.884870679789426
-8.05676356145571
-6.201266498817426
-0.9277485313191425
-1.9043259327077133
-3.466849774929427
0.04882887006942855
0.537117570763714
-1.8066681925688564
0.04882887006942855
1.8066681925688564
-0.43945983062485694
-0.43945983062485694
1.8066681925688564
0.43945983062485694
-0.8300907911802854
1.0254062714579995
1.2207217517357138
-0.34180209048599985
0.6347753109025711
1.7090104524299992
0.04882887006942855
-0.04882887006942855
1.2207217517357138
0.43945983062485694
-0.14648661020828566
1.0254062714579995
1.2207217517357138
0.14648661020828566
0.537117570763714
1.0254062714579995
0.04882887006942855
0.14648661020828566
22.412451361867703
95.65575646601053
199.66124971389334
314.40909437705045
440.58289463645383
503.96276798657203
446.7353322652018
323.68657969024184
211.18486305027847
144.48462653543908
108.93720912489509
77.68673228046082
55.03013656824598
44.67841611352712
32.08056763561456
19.287403677424276
16.357671473258563
13.720912489509422
6.494239719233997
4.834058136873426
6.39658197909514
2.5879301136797133
0.24414435034714274
2.783245593957427
1.7090104524299992
-1.1230640115968566
0.537117570763714
1.513694972152285
-1.0254062714579995
-0.6347753109025711
1.2207217517357138
-0.34180209048599985
-1.3183794918745708
0.537117570763714
0.14648661020828566
-1.3183794918745708
-0.14648661020828566
0.43945983062485694
-1.0254062714579995
-0.7324330510414282
0.43945983062485694
-0.43945983062485694
-1.0254062714579995
0.14648661020828566
0.04882887006942855
-0.9277485313191425
-0.14648661020828566
0.14648661020828566
-0.7324330510414282
-0.537117570763714
0.14648661020828566
-0.34180209048599985
-0.7324330510414282
0.04882887006942855
-0.14648661020828566
-0.7324330510414282
-0.24414435034714274
0.04882887006942855
-0.537117570763714
-0.43945983062485694
0.04882887006942855
-0.34180209048599985
-0.6347753109025711
-0.14648661020828566
-0.24414435034714274
-0.6347753109025711
-0.24414435034714274
-0.04882887006942855
-0.43945983062485694
-0.43945983062485694
-0.04882887006942855
-0.34180209048599985
-0.43945983062485694
-0.14648661020828566
-0.24414435034714274
-0.43945983062485694
-0.24414435034714274
-13.916227969787137
-113.9177538719768
-344.29236285954073
-558.7487602044708
-584.5304036011291
-453.0830853742275
-298.3932249942779
-198.3916990920882
-144.09399557488365
-102.68711375600824
-74.46402685587854
-59.62005035477226
-42.43228809033341
-26.416418707560844
-21.826504921034562
-17.627222095063708
-9.130998702983138
-7.080186160067139
-8.05676356145571
-3.2715342946517127
-0.7324330510414282
-3.076218814373999
-1.513694972152285
1.3183794918745708
-0.7324330510414282
-1.513694972152285
1.3183794918745708
0.7324330510414282
-1.1230640115968566
0.8300907911802854
1.7090104524299992
-0.43945983062485694
0.04882887006942855
1.7090104524299992
0.24414435034714274
-0.24414435034714274
1.416037232013428
1.0254062714579995
-0.14648661020828566
0.7324330510414282
1.0254062714579995
-0.14648661020828566
0.04882887006942855
1.1230640115968566
0.34180209048599985
0.14648661020828566
1.2207217517357138
0.8300907911802854
0.04882887006942855
0.6347753109025711
0.9277485313191425
0.14648661020828566
6.201266498817426
56.690318150606544
162.6489662012665
233.4508278019379
241.75173571374074
278.471046005951
321.538109407187
302.78782330052644
276.51789120317386
274.8577096208133
258.54886701762416
207.9621576256962
136.86732280460822
88.52674143587396
72.21789883268482
51.51445792324712
30.127412832837415
28.076600289921416
24.072632944228275
9.71694514381628
8.05676356145571
12.060730907148852
3.9551384756237127
-0.04882887006942855
5.810635538261997
3.2715342946517127
-2.5879301136797133
1.6113527122911422
3.36919203479057
-2.392614633401999
-1.1230640115968566
2.8809033340962844
-0.8300907911802854
-2.490272373540856
1.7090104524299992
0.6347753109025711
-2.5879301136797133
0.24414435034714274
1.513694972152285
-1.9043259327077133
-1.0254062714579995
1.513694972152285
-0.7324330510414282
-1.7090104524299992
0.9277485313191425
0.14648661020828566
-1.8066681925688564
0.04882887006942855
0.7324330510414282
-1.3183794918745708
-0.7324330510414282
0.7324330510414282
-0.6347753109025711
-1.3183794918745708
0.34180209048599985
0.04882887006942855
-1.2207217517357138
-0.04882887006942855
0.34180209048599985
-0.9277485313191425
-0.537117570763714
0.34180209048599985
-0.43945983062485694
-0.8300907911802854
0.14648661020828566
-0.04882887006942855
-0.8300907911802854
-0.14648661020828566
0.04882887006942855
-0.7324330510414282
-13.037308308537423
-91.35881589990082
-284.2328526741436
-502.79087510490575
-581.0147249561303
-489.21644922560466
-337.55397878995956
-221.04829480430305
-155.22697795071335
-112.94117647058823
-81.20241092545967
-61.768520637827116
-46.43625543602655
-31.00633249408713
-22.60776684214542
-18.60379949645228
-11.963073167009995
-7.275501640344854
-7.177843900205997
-4.931715877012284
-1.6113527122911422
-2.0996414129854277
-2.2949568932631417
0.04882887006942855
0.04882887006942855
-1.1230640115968566
0.24414435034714274
1.1230640115968566
-0.24414435034714274
0.04882887006942855
1.2207217517357138
0.34180209048599985
-0.24414435034714274
1.0254062714579995
0.9277485313191425
0.04882887006942855
0.7324330510414282
1.1230640115968566
0.14648661020828566
0.34180209048599985
1.1230640115968566
0.43945983062485694
0.14648661020828566
1.0254062714579995
0.8300907911802854
0.04882887006942855
0.43945983062485694
0.7324330510414282
0.24414435034714274
0.43945983062485694
24.95155260547799
148.19562066071566
374.2732890821698
541.3656824597543
538.1429770351721
424.85999847409784
298.7838559548333
208.8410772869459
148.48859388113223
103.27306019684139
77.39375906004425
60.401312275883114
40.96742198825055
28.27191577019913
24.072632944228275
16.45532921339742
9.033340962844282
8.935683222705425
7.470817120622568
2.490272373540856
2.392614633401999
3.8574807354848555
0.7324330510414282
-0.34180209048599985
1.8066681925688564
0.7324330510414282
-1.2207217517357138
0.43945983062485694
0.9277485313191425
-1.1230640115968566
-0.43945983062485694
0.8300907911802854
-0.537117570763714
-1.0254062714579995
0.43945983062485694
-0.04882887006942855
-1.2207217517357138
-0.04882887006942855
0.14648661020828566
-0.9277485313191425
-0.537117570763714
0.24414435034714274
-0.537117570763714
-0.8300907911802854
0.14648661020828566
-0.14648661020828566
-0.8300907911802854
-0.14648661020828566
0.04882887006942855
-0.7324330510414282
-0.43945983062485694
0.04882887006942855
-0.43945983062485694
-0.6347753109025711
0.04882887006942855
-0.14648661020828566
-0.6347753109025711
-0.14648661020828566
-0.04882887006942855
-0.537117570763714
-0.43945983062485694
-0.14648661020828566
-0.43945983062485694
-0.537117570763714
-0.14648661020828566
-0.24414435034714274
-0.537117570763714
-0.24414435034714274
-0.14648661020828566
-0.43945983062485694
-0.34180209048599985
-0.14648661020828566
-0.34180209048599985
-0.43945983062485694
-0.14648661020828566
-0.24414435034714274
-0.43945983062485694
-0.24414435034714274
-0.14648661020828566
-50.04959182116426
-226.32181277180132
-458.55191882200353
-573.3974212252995
-518.0254825665675
-377.20302128633557
-252.5917448691539
-175.8327611200122
-124.46478980697337
-89.01503013656824
-68.89753566796368
-51.416800183108265
-33.93606469825284
-25.439841306172273
-20.752269779507134
-12.646677347981994
-8.252079041733426
-8.349736781872283
-5.0293736171511405
-1.6113527122911422
-2.8809033340962844
-2.5879301136797133
0.24414435034714274
-0.24414435034714274
-1.416037232013428
0.537117570763714
1.1230640115968566
-0.43945983062485694
0.24414435034714274
1.416037232013428
0.04882887006942855
-0.24414435034714274
1.1230640115968566
0.537117570763714
-0.14648661020828566
0.9277485313191425
1.1230640115968566
0.04882887006942855
0.43945983062485694
1.1230640115968566
0.34180209048599985
0.14648661020828566
1.1230640115968566
0.7324330510414282
0.14648661020828566
0.8300907911802854
0.9277485313191425
0.14648661020828566
0.43945983062485694
1.0254062714579995
0.537117570763714
0.537117570763714
18.40848401617456
64.69825284199283
105.22621499961852
153.0785076676585
253.4706645304036
325.05378805218584
299.36980239566645
272.318608377203
282.3773556115053
255.81445029373617
204.73945220111392
179.4460975051499
171.63347829404134
153.66445410849164
107.66765850308995
64.40527962157626
52.78400854505226
41.84634164950027
21.045242999923705
17.82253757534142
20.361638818951704
8.252079041733426
2.8809033340962844
9.619287403677424
5.127031357289998
-2.197299153124285
3.36919203479057
4.638742656595713
-2.5879301136797133
-0.537117570763714
4.052796215762569
-1.1230640115968566
-2.68558785381857
2.5879301136797133
0.6347753109025711
-3.2715342946517127
0.6347753109025711
1.8066681925688564
-2.490272373540856
-0.9277485313191425
2.0019836728465705
-1.1230640115968566
-2.0019836728465705
1.3183794918745708
0.14648661020828566
-2.197299153124285
0.24414435034714274
0.9277485313191425
-1.6113527122911422
-0.7324330510414282
1.1230640115968566
-0.8300907911802854
-1.3183794918745708
0.7324330510414282
0.04882887006942855
-1.416037232013428
0.04882887006942855
0.43945983062485694
-1.2207217517357138
-0.6347753109025711
0.43945983062485694
-0.6347753109025711
-0.9277485313191425
0.24414435034714274
-0.14648661020828566
-1.0254062714579995
-0.04882887006942855
0.14648661020828566
-0.8300907911802854
-0.43945983062485694
0.14648661020828566
-0.43945983062485694
-0.7324330510414282
0.04882887006942855
-49.951934081025406
-236.96650644693676
-489.6070801861601
-603.768978408484
-521.052872510872
-358.5503929198138
-231.69298847943847
-163.62554360265506
-118.89829861905852
-83.74151216906996
-65.38185702296482
-50.34256504158083
-31.592278934920273
-22.90074006256199
-20.45929655909056
-12.256046387426567
-6.6895551995117115
-8.252079041733426
-5.71297779812314
-0.8300907911802854
-2.2949568932631417
-3.1738765545128556
0.6347753109025711
0.43945983062485694
-2.0019836728465705
0.24414435034714274
1.7090104524299992
-0.6347753109025711
-0.04882887006942855
2.0019836728465705
0.34180209048599985
-0.7324330510414282
1.3183794918745708
1.0254062714579995
-0.537117570763714
0.7324330510414282
1.6113527122911422
0.04882887006942855
0.14648661020828566
1.416037232013428
0.43945983062485694
-0.14648661020828566
1.1230640115968566
0.9277485313191425
0.04882887006942855
0.8300907911802854
1.1230640115968566
0.04882887006942855
0.14648661020828566
11.670099946593423
58.25284199282826
138.7228198672465
234.42740520332646
358.25741969939725
462.8488593881132
455.62218661783777
364.01922636758985
270.46311131456474
202.0050354772259
153.37148088807507
108.74189364461738
73.58510719462882
57.56923781185626
43.70183871213855
26.90470740825513
20.752269779507134
18.799114976729992
10.205233844510566
5.908293278400855
8.05676356145571
4.834058136873426
0.43945983062485694
2.8809033340962844
3.076218814373999
-0.8300907911802854
0.04882887006942855
2.197299153124285
-0.43945983062485694
-1.3183794918745708
1.3183794918745708
0.14648661020828566
-1.7090104524299992
0.14648661020828566
0.7324330510414282
-1.416037232013428
-0.6347753109025711
0.8300907911802854
-0.7324330510414282
-1.1230640115968566
0.537117570763714
-0.04882887006942855
-1.2207217517357138
0.04882887006942855
0.24414435034714274
-0.9277485313191425
-0.43945983062485694
0.34180209048599985
-0.537117570763714
-0.8300907911802854
0.14648661020828566
-0.14648661020828566
-0.8300907911802854
-0.04882887006942855
0.04882887006942855
-0.8300907911802854
-0.43945983062485694
0.04882887006942855
-0.537117570763714
-0.6347753109025711
0.04882887006942855
-0.24414435034714274
-0.6347753109025711
-0.14648661020828566
-0.04882887006942855
-0.537117570763714
-0.34180209048599985
-0.04882887006942855
-0.34180209048599985
-0.537117570763714
-0.04882887006942855
-0.24414435034714274
-0.537117570763714
-0.24414435034714274
-0.14648661020828566
-0.43945983062485694
-34.81498435950255
-180.03204394598308
-414.80125123979553
-571.6395819028
-546.346227206836
-406.5980010681315
-269.1935606927596
-183.3524071107042
-131.59380483710993
-94.09323262378882
-70.75303273060197
-54.639505607690545
-37.4517433432517
-25.92813000686656
-21.24055848020142
-14.599832150759136
-8.44739452201114
-7.666132600900283
-6.39658197909514
-2.490272373540856
-2.0019836728465705
-2.9785610742351416
-0.6347753109025711
0.34180209048599985
-1.0254062714579995
-0.14648661020828566
1.2207217517357138
-0.04882887006942855
-0.43945983062485694
1.1230640115968566
0.6347753109025711
-0.24414435034714274
0.8300907911802854
1.2207217517357138
0.04882887006942855
0.34180209048599985
1.2207217517357138
0.43945983062485694
0.24414435034714274
1.1230640115968566
0.8300907911802854
0.04882887006942855
0.7324330510414282
0.9277485313191425
0.14648661020828566
0.34180209048599985
0.8300907911802854
0.43945983062485694
0.43945983062485694
0.9277485313191425
18.506141756313422
101.6128786144808
230.0328068970779
285.50240329594874
273.58815899900816
303.5690852216373
337.35866330968184
305.131609063859
258.4512092774853
233.84145876249332
208.93873502708476
163.43022812237734
105.51918822003509
71.1436636911574
59.42473487449455
39.99084458686198
23.58434424353399
23.779659723811704
18.60379949645228
6.591897459372854
7.470817120622568
9.912260624093996
1.9043259327077133
0.24414435034714274
5.420004577706569
1.6113527122911422
-2.392614633401999
2.197299153124285
2.2949568932631417
-2.5879301136797133
-0.14648661020828566
2.490272373540856
-1.416037232013428
-1.8066681925688564
1.9043259327077133
-0.04882887006942855
-2.2949568932631417
0.6347753109025711
0.8300907911802854
-2.0996414129854277
-0.43945983062485694
1.2207217517357138
-1.1230640115968566
-1.3183794918745708
0.9277485313191425
-0.14648661020828566
-1.6113527122911422
0.24414435034714274
0.43945983062485694
-1.3183794918745708
-0.34180209048599985
0.6347753109025711
-0.8300907911802854
-0.9277485313191425
0.43945983062485694
-0.24414435034714274
-1.1230640115968566
0.04882887006942855
0.14648661020828566
-0.9277485313191425
-0.34180209048599985
0.14648661020828566
-0.7324330510414282
-0.7324330510414282
0.14648661020828566
-0.24414435034714274
-0.8300907911802854
-0.04882887006942855
0.04882887006942855
-0.7324330510414282
-14.404516670481422
-95.55809872587167
-287.06492713817045
-501.1306935225452
-578.0849927519646
-487.6539253833829
-337.0656900892653
-220.75532158388648
-154.6410315098802
-112.5505455100328
-81.10475318532082
-61.768520637827116
-46.533913176165406
-31.103990234225986
-22.314793621728846
-18.21316853589685
-11.767757686732281
-7.177843900205997
-6.982528419928283
-4.931715877012284
-1.7090104524299992
-2.197299153124285
-2.392614633401999
-0.04882887006942855
0.14648661020828566
-0.9277485313191425
0.24414435034714274
1.0254062714579995
-0.24414435034714274
0.04882887006942855
1.1230640115968566
0.34180209048599985
-0.14648661020828566
0.9277485313191425
0.8300907911802854
0.04882887006942855
0.6347753109025711
1.1230640115968566
0.24414435034714274
0.24414435034714274
1.0254062714579995
0.537117570763714
0.14648661020828566
0.8300907911802854
0.7324330510414282
0.14648661020828566
0.6347753109025711
0.9277485313191425
0.43945983062485694
0.43945983062485694
0.8300907911802854
0.43945983062485694
0.14648661020828566
0.6347753109025711
35.4009308003357
152.59021896696422
300.73701075761045
399.46898603799497
452.30182345311664
450.6416418707561
378.86320286869613
274.76005188067444
182.27817196917678
125.5390249485008
95.65575646601053
68.60456244754711
47.412832837415124
38.33066300450141
28.467231250476843
16.748302433813993
13.720912489509422
12.353704127565424
6.005951018539712
3.7598229953459983
5.615320057984283
2.68558785381857
-0.04882887006942855
2.0996414129854277
1.8066681925688564
-1.0254062714579995
0.04882887006942855
1.513694972152285
-0.7324330510414282
-0.9277485313191425
1.0254062714579995
-0.14648661020828566
-1.3183794918745708
0.34180209048599985
0.34180209048599985
-1.2207217517357138
-0.34180209048599985
0.537117570763714
-0.7324330510414282
-0.8300907911802854
0.34180209048599985
-0.34180209048599985
-1.1230640115968566
0.04882887006942855
0.04882887006942855
-0.9277485313191425
-0.34180209048599985
0.14648661020828566
-0.537117570763714
-0.6347753109025711
0.04882887006942855
-0.24414435034714274
-0.7324330510414282
-0.04882887006942855
-0.04882887006942855
-0.6347753109025711
-0.34180209048599985
0.04882887006942855
-0.43945983062485694
-0.537117570763714
0.04882887006942855
-0.34180209048599985
-0.6347753109025711
-0.24414435034714274
-0.14648661020828566
-0.537117570763714
-0.34180209048599985
-0.04882887006942855
-0.43945983062485694
-0.43945983062485694
-0.14648661020828566
-0.24414435034714274
-0.43945983062485694
-0.24414435034714274
-0.14648661020828566
-0.43945983062485694
-0.34180209048599985
-19.287403677424276
-141.7502098115511
-395.5626764324407
-594.8821240558481
-577.9873350118257
-421.34431982909894
-268.9982452124819
-181.59456778820478
-134.62119478141452
-94.87449454489968
-69.58113984893568
-56.7879758907454
-38.91660944533455
-23.974975204089418
-21.533531700617992
-16.45532921339742
-7.275501640344854
-6.884870679789426
-7.959105821316854
-2.197299153124285
-0.537117570763714
-3.7598229953459983
-1.2207217517357138
1.6113527122911422
-1.3183794918745708
-1.416037232013428
1.9043259327077133
0.43945983062485694
-1.416037232013428
1.2207217517357138
1.513694972152285
-0.8300907911802854
0.34180209048599985
2.0019836728465705
0.04882887006942855
-0.04882887006942855
1.8066681925688564
0.7324330510414282
-0.34180209048599985
1.1230640115968566
1.3183794918745708
-0.24414435034714274
0.43945983062485694
1.416037232013428
0.24414435034714274
0.04882887006942855
1.2207217517357138
7.666132600900283
31.396963454642556
92.82368200198367
222.70847638666362
354.64408331425955
348.29633020523386
256.0097657740139
241.94705119401846
283.5492484931716
282.1820401312276
237.06416418707562
188.33295185778593
154.6410315098802
118.80064087891967
74.85465781643397
52.295719844357976
46.33859769588769
29.346150911726557
16.260013733119706
18.89677271686885
14.11154345006485
3.466849774929427
5.908293278400855
8.252079041733426
0.34180209048599985
-0.14648661020828566
5.0293736171511405
0.7324330510414282
-2.68558785381857
2.2949568932631417
1.9043259327077133
-2.783245593957427
0.04882887006942855
2.2949568932631417
-1.8066681925688564
-1.7090104524299992
1.9043259327077133
-0.34180209048599985
-2.2949568932631417
0.8300907911802854
0.7324330510414282
-2.0996414129854277
-0.24414435034714274
1.2207217517357138
