ecg
-1.6113527122911422
-1.9043259327077133
2.0019836728465705
-0.14648661020828566
-2.490272373540856
0.8300907911802854
0.9277485313191425
-2.0996414129854277
-0.34180209048599985
1.416037232013428
-1.2207217517357138
-1.3183794918745708
1.1230640115968566
-0.24414435034714274
-1.7090104524299992
0.24414435034714274
0.34180209048599985
-1.513694972152285
-0.34180209048599985
0.6347753109025711
-0.9277485313191425
-0.9277485313191425
0.537117570763714
-0.24414435034714274
-1.1230640115968566
0.04882887006942855
0.04882887006942855
-1.1230640115968566
-0.43945983062485694
0.24414435034714274
-0.7324330510414282
-0.7324330510414282
0.14648661020828566
-0.24414435034714274
-0.8300907911802854
-0.04882887006942855
0.04882887006942855
-0.7324330510414282
-0.34180209048599985
-26.025787747005417
-156.1058976119631
-394.4884412909133
-574.0810254062715
-562.6550698100252
-420.9536888685435
-275.63897154192415
-186.0868238345922
-135.01182574196994
-95.55809872587167
-70.75303273060197
-56.49500267032883
-39.20958266575113
-25.63515678644999
-21.728847180895706
-15.967040512703136
-7.666132600900283
-6.6895551995117115
-7.177843900205997
-2.8809033340962844
-1.7090104524299992
-3.7598229953459983
-1.3183794918745708
1.0254062714579995
-0.7324330510414282
-0.6347753109025711
1.416037232013428
0.04882887006942855
-1.1230640115968566
0.8300907911802854
0.9277485313191425
-0.6347753109025711
0.7324330510414282
1.9043259327077133
0.04882887006942855
-0.04882887006942855
1.2207217517357138
0.34180209048599985
-0.34180209048599985
1.0254062714579995
1.416037232013428
0.34180209048599985
0.7324330510414282
1.0254062714579995
-0.04882887006942855
-0.04882887006942855
0.8300907911802854
0.6347753109025711
0.43945983062485694
16.064698252841993
96.43701838712138
236.47821774624248
327.98352025635154
355.8159761959258
394.8790722514687
416.55909056229495
365.7770656900893
265.1895933470665
172.12176699473565
121.4373998626688
92.62836652170596
62.64744029907683
45.16670481422141
39.014267185473415
25.732814526588847
14.599832150759136
15.088120851453422
11.767757686732281
3.662165255207141
4.541084916456855
6.39658197909514
0.9277485313191425
-0.04882887006942855
3.466849774929427
0.9277485313191425
-1.8066681925688564
1.3183794918745708
1.416037232013428
-1.9043259327077133
-0.24414435034714274
1.513694972152285
-1.2207217517357138
-1.416037232013428
1.1230640115968566
-0.14648661020828566
-1.7090104524299992
0.34180209048599985
0.43945983062485694
-1.513694972152285
-0.34180209048599985
0.7324330510414282
-0.9277485313191425
-1.0254062714579995
0.43945983062485694
-0.34180209048599985
-1.2207217517357138
0.04882887006942855
0.14648661020828566
-1.0254062714579995
-0.34180209048599985
0.34180209048599985
-0.6347753109025711
-0.7324330510414282
0.24414435034714274
-0.24414435034714274
-0.8300907911802854
-0.04882887006942855
-0.04882887006942855
-0.8300907911802854
-0.34180209048599985
0.04882887006942855
-0.537117570763714
-0.537117570763714
0.04882887006942855
-0.24414435034714274
-0.6347753109025711
-0.14648661020828566
-8.44739452201114
-91.35881589990082
-303.86205844205386
-522.3224231326772
-577.0107576104372
-474.17715724422067
-327.10460059510183
-219.68108644235903
-156.9848172732128
-110.69504844739453
-79.73754482337682
-63.03807125963226
-45.26436255436027
-29.150835431448844
-23.87731746395056
-19.092088197146563
-10.205233844510566
-7.666132600900283
-8.252079041733426
-3.36919203479057
-0.6347753109025711
-3.2715342946517127
-2.197299153124285
0.6347753109025711
-1.1230640115968566
-1.7090104524299992
1.2207217517357138
1.1230640115968566
-0.6347753109025711
0.8300907911802854
1.416037232013428
-0.6347753109025711
-0.04882887006942855
1.513694972152285
0.34180209048599985
0.04882887006942855
1.513694972152285
0.8300907911802854
-0.43945983062485694
0.537117570763714
1.1230640115968566
0.04882887006942855
0.34180209048599985
1.513694972152285
0.6347753109025711
0.04882887006942855
0.8300907911802854
0.43945983062485694
-0.14648661020828566
0.537117570763714
1.1230640115968566
0.6347753109025711
3.076218814373999
39.69787136644541
121.14442664225223
178.95780880445562
218.70450904097046
302.2018768596933
354.0581368734264
326.7139696345464
301.1276417181659
292.04547188525214
256.98634317540245
195.75494010833904
132.96101319905395
97.80422674906538
81.98367284657053
55.03013656824598
33.252460517280845
31.9829098954757
24.365606164644845
9.71694514381628
10.595864805065995
12.74433508812085
2.8809033340962844
1.0254062714579995
6.884870679789426
2.0996414129854277
-2.490272373540856
2.9785610742351416
2.68558785381857
-2.9785610742351416
-0.04882887006942855
2.9785610742351416
-1.7090104524299992
-1.9043259327077133
2.2949568932631417
-0.14648661020828566
-2.68558785381857
1.0254062714579995
1.0254062714579995
-2.392614633401999
-0.43945983062485694
1.416037232013428
-1.416037232013428
-1.416037232013428
1.2207217517357138
-0.24414435034714274
-1.8066681925688564
0.43945983062485694
0.537117570763714
-1.513694972152285
-0.34180209048599985
0.7324330510414282
-1.0254062714579995
-1.0254062714579995
0.537117570763714
-0.24414435034714274
-1.2207217517357138
0.14648661020828566
0.14648661020828566
-1.0254062714579995
-0.34180209048599985
0.34180209048599985
-0.7324330510414282
-0.7324330510414282
0.24414435034714274
-0.34180209048599985
-0.9277485313191425
-0.04882887006942855
-0.04882887006942855
-0.8300907911802854
-0.34180209048599985
-18.40848401617456
-129.05470359349965
-359.7222858014801
-560.4089417868315
-575.741206988632
-443.51262684061953
-292.3384451056687
-195.07133592736704
-141.35957885099566
-100.53864347295338
-73.3897917143511
-58.74113069352254
-41.74868390936141
-26.514076447699704
-21.92416266117342
-17.041275654230564
-8.349736781872283
-6.6895551995117115
-7.763790341039139
-3.36919203479057
-1.1230640115968566
-3.36919203479057
-1.7090104524299992
1.1230640115968566
-0.537117570763714
-0.9277485313191425
1.416037232013428
0.34180209048599985
-1.3183794918745708
0.6347753109025711
1.416037232013428
-0.34180209048599985
0.537117570763714
2.0996414129854277
0.24414435034714274
-0.34180209048599985
1.0254062714579995
0.537117570763714
-0.43945983062485694
0.8300907911802854
1.513694972152285
0.24414435034714274
0.34180209048599985
1.0254062714579995
0.04882887006942855
-0.04882887006942855
0.9277485313191425
0.8300907911802854
0.537117570763714
1.2207217517357138
1.1230640115968566
0.04882887006942855
28.760204470893417
162.25833524071106
385.79690241855496
530.6233310444801
506.11123826962694
396.6369115739681
293.9986266880293
220.75532158388648
161.18410009918364
110.10910200656139
80.9094377050431
63.42870222018769
42.43228809033341
28.95551995117113
25.537499046311133
17.52956435492485
9.130998702983138
9.521629663538567
8.252079041733426
2.392614633401999
2.392614633401999
4.443427176317998
0.7324330510414282
-0.6347753109025711
2.0996414129854277
0.8300907911802854
-1.6113527122911422
0.537117570763714
1.2207217517357138
-1.416037232013428
-0.6347753109025711
1.1230640115968566
-0.6347753109025711
-1.2207217517357138
0.6347753109025711
0.04882887006942855
-1.416037232013428
-0.04882887006942855
0.34180209048599985
-1.1230640115968566
-0.537117570763714
0.43945983062485694
-0.537117570763714
-0.9277485313191425
0.24414435034714274
-0.04882887006942855
-1.0254062714579995
-0.14648661020828566
0.04882887006942855
-0.8300907911802854
-0.43945983062485694
0.14648661020828566
-0.537117570763714
-0.7324330510414282
0.04882887006942855
-0.14648661020828566
-0.7324330510414282
-0.14648661020828566
0.04882887006942855
-0.6347753109025711
-0.43945983062485694
-0.04882887006942855
-0.43945983062485694
-0.537117570763714
-0.04882887006942855
-0.24414435034714274
-0.537117570763714
-0.24414435034714274
-0.14648661020828566
-43.89715419241627
-203.5675593194476
-426.42252231631954
-554.5494773785
-522.420080872816
-395.7579919127184
-270.951400015259
-187.74700541695276
-131.98443579766536
-94.19089036392768
-72.41321431296254
-54.24887464713512
-36.475165941863125
-27.002365148393988
-21.43587396047913
-13.232623788815136
-8.44739452201114
-8.44739452201114
-5.615320057984283
-2.2949568932631417
-2.9785610742351416
-2.68558785381857
0.04882887006942855
0.14648661020828566
-0.8300907911802854
0.34180209048599985
0.6347753109025711
-0.9277485313191425
-0.14648661020828566
1.1230640115968566
0.24414435034714274
0.24414435034714274
1.6113527122911422
0.8300907911802854
-0.43945983062485694
0.34180209048599985
0.7324330510414282
0.04882887006942855
0.537117570763714
1.513694972152285
0.7324330510414282
0.14648661020828566
0.6347753109025711
0.24414435034714274
-0.04882887006942855
0.6347753109025711
1.0254062714579995
0.6347753109025711
0.8300907911802854
27.588311589227132
99.75738155184253
168.41077286945907
233.74380102235446
333.842984664683
387.0664530403601
350.0541695277333
307.08476386663614
286.2836652170596
253.37300679026475
194.9736781872282
127.19920653086137
86.28061341268025
69.87411306935225
47.90112153810941
29.834439612420844
28.174258030060273
21.63118944075685
9.033340962844282
9.130998702983138
10.79118028534371
2.783245593957427
1.0254062714579995
5.71297779812314
1.9043259327077133
-2.0019836728465705
2.2949568932631417
2.2949568932631417
-2.2949568932631417
-0.14648661020828566
2.2949568932631417
-1.416037232013428
-1.7090104524299992
1.8066681925688564
-0.04882887006942855
-2.197299153124285
0.6347753109025711
0.8300907911802854
-1.9043259327077133
-0.43945983062485694
1.2207217517357138
-1.0254062714579995
-1.2207217517357138
0.8300907911802854
-0.24414435034714274
-1.6113527122911422
0.24414435034714274
0.34180209048599985
-1.3183794918745708
-0.34180209048599985
0.537117570763714
-0.8300907911802854
-0.8300907911802854
0.43945983062485694
-0.24414435034714274
-1.1230640115968566
0.04882887006942855
0.04882887006942855
-0.9277485313191425
-0.34180209048599985
0.14648661020828566
-0.6347753109025711
-0.6347753109025711
0.14648661020828566
-0.24414435034714274
-0.7324330510414282
-0.04882887006942855
0.04882887006942855
-0.7324330510414282
-0.34180209048599985
-24.560921644922562
-153.7621118486305
-397.1252002746624
-580.9170672159914
-566.1707484550241
-419.68413824673837
-272.6115815976196
-184.23132677195392
-134.4258793011368
-94.97215228503853
-70.26474402990769
-56.49500267032883
-39.014267185473415
-25.049210345616846
-21.533531700617992
-15.869382772564279
-7.470817120622568
-6.884870679789426
-7.568474860761425
-2.783245593957427
-1.416037232013428
-3.7598229953459983
-1.3183794918745708
1.2207217517357138
-0.8300907911802854
-0.7324330510414282
1.6113527122911422
0.14648661020828566
-1.2207217517357138
0.9277485313191425
1.1230640115968566
-0.6347753109025711
0.7324330510414282
2.0019836728465705
0.04882887006942855
-0.24414435034714274
1.1230640115968566
0.34180209048599985
-0.34180209048599985
1.1230640115968566
1.416037232013428
0.24414435034714274
0.537117570763714
1.0254062714579995
-0.04882887006942855
0.04882887006942855
1.0254062714579995
0.537117570763714
0.24414435034714274
1.2207217517357138
1.0254062714579995
0.04882887006942855
15.869382772564279
110.69504844739453
299.17448691538874
443.3173113603418
450.25101091020065
399.07835507743954
349.9565117875944
290.775921263447
216.26306553749905
143.89868009460594
100.83161669336995
79.05394064240483
54.346532387273975
36.37750820172427
31.885252155336843
23.096055542839704
11.670099946593423
11.279468986037996
10.888838025482567
3.5645075150682843
2.490272373540856
5.615320057984283
1.7090104524299992
-0.9277485313191425
2.490272373540856
1.7090104524299992
-1.9043259327077133
0.24414435034714274
1.8066681925688564
-1.416037232013428
-1.0254062714579995
1.513694972152285
-0.34180209048599985
-1.7090104524299992
0.6347753109025711
0.43945983062485694
-1.6113527122911422
-0.24414435034714274
0.7324330510414282
-1.1230640115968566
-0.9277485313191425
0.6347753109025711
-0.43945983062485694
-1.2207217517357138
0.24414435034714274
0.04882887006942855
-1.1230640115968566
-0.24414435034714274
0.34180209048599985
-0.8300907911802854
-0.7324330510414282
0.24414435034714274
-0.43945983062485694
-0.8300907911802854
0.04882887006942855
-0.04882887006942855
-0.8300907911802854
-0.24414435034714274
0.04882887006942855
-0.6347753109025711
-0.537117570763714
0.04882887006942855
-0.34180209048599985
-0.7324330510414282
-0.14648661020828566
-0.14648661020828566
-0.6347753109025711
-0.24414435034714274
-0.04882887006942855
-0.537117570763714
-0.43945983062485694
-0.04882887006942855
-0.34180209048599985
-0.537117570763714
-9.033340962844282
-90.18692301823454
-303.2761120012207
-531.404592965591
-590.9758144502937
-478.96238651102465
-321.9287403677424
-211.47783627069504
-151.5159838254368
-108.74189364461738
-77.68673228046082
-61.37788967727169
-45.45967803463798
-28.95551995117113
-22.60776684214542
-18.89677271686885
-10.498207064927138
-6.884870679789426
-7.763790341039139
-4.052796215762569
-0.8300907911802854
-3.076218814373999
-2.490272373540856
0.8300907911802854
-0.14648661020828566
-1.513694972152285
1.0254062714579995
1.2207217517357138
-0.9277485313191425
0.14648661020828566
1.416037232013428
-0.24414435034714274
-0.24414435034714274
1.6113527122911422
0.8300907911802854
-0.04882887006942855
1.1230640115968566
0.9277485313191425
-0.34180209048599985
0.34180209048599985
1.2207217517357138
0.14648661020828566
0.34180209048599985
1.513694972152285
0.6347753109025711
-0.04882887006942855
3.2715342946517127
51.709773403524835
180.9109636072328
297.12367437247275
327.69054703593497
356.9878690775921
398.6877241168841
373.49202716105896
292.143129625391
212.7473868925002
161.67238879987792
127.98046845197223
88.03845273517967
57.27626459143969
48.584725719081405
36.475165941863125
19.287403677424276
17.236591134508277
17.13893339436942
6.6895551995117115
3.8574807354848555
8.44739452201114
3.36919203479057
-1.2207217517357138
3.36919203479057
3.076218814373999
-2.2949568932631417
0.24414435034714274
2.8809033340962844
-1.416037232013428
-1.6113527122911422
2.197299153124285
-0.04882887006942855
-2.392614633401999
0.8300907911802854
0.8300907911802854
-2.197299153124285
-0.34180209048599985
1.3183794918745708
-1.2207217517357138
-1.3183794918745708
1.1230640115968566
-0.24414435034714274
-1.7090104524299992
0.34180209048599985
0.43945983062485694
-1.513694972152285
-0.43945983062485694
0.6347753109025711
-0.9277485313191425
-0.9277485313191425
0.537117570763714
-0.24414435034714274
-1.1230640115968566
0.04882887006942855
0.14648661020828566
-1.0254062714579995
-0.34180209048599985
0.24414435034714274
-0.7324330510414282
-0.7324330510414282
0.04882887006942855
-0.34180209048599985
-0.8300907911802854
-0.04882887006942855
-0.04882887006942855
-0.7324330510414282
-0.34180209048599985
-2.490272373540856
-63.03807125963226
-255.61913481345846
-494.0993362325475
-590.5851834897383
-506.4042114900435
-352.0073243305104
-231.49767299916076
-163.62554360265506
-117.14045929655909
-83.35088120851454
-65.57717250324254
-49.26832990005341
-31.396963454642556
-23.682001983672848
-20.068665598535134
-11.377126726176853
-6.982528419928283
-8.252079041733426
-5.0293736171511405
-1.1230640115968566
-2.9785610742351416
-2.783245593957427
0.7324330510414282
0.04882887006942855
-1.513694972152285
0.6347753109025711
1.1230640115968566
-1.0254062714579995
0.04882887006942855
1.7090104524299992
0.04882887006942855
-0.04882887006942855
1.7090104524299992
0.7324330510414282
-0.6347753109025711
0.7324330510414282
1.1230640115968566
-0.04882887006942855
0.537117570763714
1.7090104524299992
0.6347753109025711
0.24414435034714274
1.1230640115968566
0.537117570763714
-0.04882887006942855
0.8300907911802854
1.0254062714579995
0.34180209048599985
0.7324330510414282
1.1230640115968566
0.24414435034714274
0.04882887006942855
43.50652323186084
189.40718699931335
365.972381170367
452.49713893339435
455.62218661783777
401.32448310063324
298.88151369497217
209.62233920805676
161.86770428015564
135.59777218280308
112.35523002975509
78.17502098115511
49.26832990005341
40.67444876783398
31.201647974364842
16.55298695353628
14.11154345006485
14.697489890897993
6.103608758678568
2.8809033340962844
6.884870679789426
3.2715342946517127
-1.1230640115968566
2.5879301136797133
2.783245593957427
-1.9043259327077133
-0.14648661020828566
2.490272373540856
-1.0254062714579995
-1.6113527122911422
1.7090104524299992
0.04882887006942855
-2.0996414129854277
0.537117570763714
0.9277485313191425
-1.8066681925688564
-0.6347753109025711
1.1230640115968566
-1.0254062714579995
-1.3183794918745708
0.8300907911802854
-0.04882887006942855
-1.513694972152285
0.14648661020828566
0.43945983062485694
-1.2207217517357138
-0.43945983062485694
0.537117570763714
-0.7324330510414282
-1.0254062714579995
0.34180209048599985
-0.14648661020828566
-1.0254062714579995
0.04882887006942855
0.04882887006942855
-0.8300907911802854
-0.43945983062485694
0.14648661020828566
-0.537117570763714
-0.6347753109025711
0.04882887006942855
-0.24414435034714274
-0.8300907911802854
-0.14648661020828566
-23.389028763256274
-147.51201647974364
-385.40627145799954
-572.8114747844663
-567.9285877775235
-426.81315327687497
-279.25230792706185
-188.33295185778593
-137.1602960250248
-97.12062256809338
-71.53429465171283
-56.88563363088426
-39.20958266575113
-25.146868085755703
-21.533531700617992
-16.357671473258563
-8.252079041733426
-7.373159380483711
-7.470817120622568
-2.2949568932631417
-0.7324330510414282
-3.2715342946517127
-1.3183794918745708
0.8300907911802854
-1.3183794918745708
-1.0254062714579995
1.6113527122911422
0.537117570763714
-0.8300907911802854
1.1230640115968566
1.1230640115968566
-0.7324330510414282
0.24414435034714274
1.513694972152285
0.04882887006942855
-0.04882887006942855
1.416037232013428
0.43945983062485694
-0.34180209048599985
0.9277485313191425
1.0254062714579995
-0.04882887006942855
0.537117570763714
1.3183794918745708
0.34180209048599985
0.14648661020828566
1.0254062714579995
0.537117570763714
0.04882887006942855
36.86579690241855
164.60212100404365
309.13557640955213
343.9993896391241
326.81162737468526
347.7103837644007
352.983901731899
305.03395132372015
235.8922713054093
178.27420462348363
141.65255207141223
103.37071793698024
64.9912260624094
50.44022278171969
42.43228809033341
24.17029068436713
16.357671473258563
18.60379949645228
10.498207064927138
2.9785610742351416
7.470817120622568
6.298924238956283
-0.8300907911802854
1.513694972152285
4.541084916456855
-0.9277485313191425
-1.513694972152285
3.076218814373999
0.24414435034714274
-2.68558785381857
1.2207217517357138
1.3183794918745708
-2.392614633401999
-0.34180209048599985
1.8066681925688564
-1.416037232013428
-1.513694972152285
1.416037232013428
-0.14648661020828566
-1.9043259327077133
0.43945983062485694
0.537117570763714
-1.7090104524299992
-0.43945983062485694
0.9277485313191425
-1.0254062714579995
-1.1230640115968566
0.7324330510414282
-0.24414435034714274
-1.3183794918745708
0.14648661020828566
0.24414435034714274
-1.1230640115968566
-0.34180209048599985
0.34180209048599985
-0.8300907911802854
-0.8300907911802854
0.24414435034714274
-0.24414435034714274
-0.9277485313191425
0.04882887006942855
0.04882887006942855
-0.8300907911802854
-0.34180209048599985
0.14648661020828566
-0.537117570763714
-0.6347753109025711
0.04882887006942855
-0.34180209048599985
-0.7324330510414282
-0.04882887006942855
-16.943617914091707
-123.97650110627909
-354.5464255741207
-560.0183108262761
-578.8662546730754
-446.44235904478523
-294.09628442816813
-196.3408865491722
-142.53147173266194
-101.31990539406424
-73.78042267490653
-58.8387884336614
-41.5533684290837
-26.416418707560844
-22.21713588158999
-17.52956435492485
-8.935683222705425
-7.177843900205997
-7.763790341039139
-2.8809033340962844
-0.7324330510414282
-3.36919203479057
-1.7090104524299992
1.0254062714579995
-0.9277485313191425
-1.3183794918745708
1.513694972152285
0.8300907911802854
-0.9277485313191425
0.8300907911802854
1.3183794918745708
-0.6347753109025711
0.04882887006942855
1.6113527122911422
0.14648661020828566
-0.04882887006942855
1.513694972152285
0.8300907911802854
-0.34180209048599985
0.6347753109025711
1.0254062714579995
-0.04882887006942855
0.537117570763714
1.513694972152285
0.43945983062485694
0.04882887006942855
1.0254062714579995
0.6347753109025711
-0.04882887006942855
18.310826276035705
104.54261081864652
250.44327458609902
364.70283054856185
421.4419775692378
441.65712977798125
406.1097123674372
320.95216296635385
223.1967650873579
148.00030518043792
108.2536049439231
81.39772640573739
55.420767528801406
41.358052948805984
33.93606469825284
21.63118944075685
13.81857022964828
13.623254749370565
9.228656443121995
3.662165255207141
4.834058136873426
4.834058136873426
0.43945983062485694
0.6347753109025711
2.68558785381857
0.04882887006942855
-1.0254062714579995
1.3183794918745708
0.537117570763714
-1.513694972152285
0.14648661020828566
0.8300907911802854
-1.2207217517357138
-0.7324330510414282
0.7324330510414282
-0.6347753109025711
-1.2207217517357138
0.43945983062485694
0.04882887006942855
-1.2207217517357138
-0.04882887006942855
0.34180209048599985
-0.9277485313191425
-0.537117570763714
0.34180209048599985
-0.43945983062485694
-0.8300907911802854
0.04882887006942855
-0.14648661020828566
-0.9277485313191425
-0.14648661020828566
0.04882887006942855
-0.6347753109025711
-0.43945983062485694
0.04882887006942855
-0.43945983062485694
-0.6347753109025711
0.04882887006942855
-0.14648661020828566
-0.6347753109025711
-0.24414435034714274
-0.14648661020828566
-0.537117570763714
-0.43945983062485694
-0.04882887006942855
-0.43945983062485694
-0.537117570763714
-0.04882887006942855
-0.24414435034714274
-0.537117570763714
-0.24414435034714274
-0.14648661020828566
-10.205233844510566
-64.20996414129854
-185.69619287403677
-348.29633020523386
-487.1656366826886
-521.8341344319829
-436.77424277103836
-308.549629968719
-204.93476768139163
-141.45723659113452
-104.24963759822995
-76.31952391851682
-55.51842526894026
-41.943999389639124
-30.420386053253985
-20.55695429922942
-15.47875181200885
-11.767757686732281
-7.080186160067139
-4.931715877012284
-4.541084916456855
-2.68558785381857
-1.3183794918745708
-1.7090104524299992
-1.0254062714579995
0.24414435034714274
0.04882887006942855
-0.34180209048599985
0.43945983062485694
0.43945983062485694
-0.04882887006942855
0.537117570763714
0.9277485313191425
0.24414435034714274
0.43945983062485694
1.0254062714579995
0.6347753109025711
0.24414435034714274
0.6347753109025711
0.537117570763714
0.14648661020828566
0.6347753109025711
1.0254062714579995
0.537117570763714
0.43945983062485694
0.6347753109025711
0.43945983062485694
0.34180209048599985
0.6347753109025711
0.537117570763714
0.43945983062485694
0.7324330510414282
25.830472266727703
94.87449454489968
157.76607919432365
205.61837186236363
287.26024261844816
338.04226749065384
306.3035019455253
281.0101472495613
284.52582589456017
254.6425574120699
201.90737773708705
159.0356298161288
132.08209353780424
110.9880216678111
75.2452887769894
44.873731593804834
39.893186846723125
31.396963454642556
14.209201190203707
13.330281528953995
15.771725032425422
5.0293736171511405
1.6113527122911422
7.959105821316854
3.36919203479057
-2.392614633401999
3.076218814373999
3.5645075150682843
-2.8809033340962844
-0.34180209048599985
3.36919203479057
-1.416037232013428
-2.2949568932631417
2.392614633401999
0.24414435034714274
-2.8809033340962844
0.8300907911802854
1.416037232013428
-2.2949568932631417
-0.6347753109025711
1.7090104524299992
-1.2207217517357138
-1.7090104524299992
1.2207217517357138
-0.04882887006942855
-2.0019836728465705
0.34180209048599985
0.7324330510414282
-1.6113527122911422
-0.537117570763714
0.9277485313191425
-0.9277485313191425
-1.2207217517357138
0.537117570763714
-0.14648661020828566
-1.416037232013428
0.04882887006942855
0.24414435034714274
-1.1230640115968566
-0.43945983062485694
0.43945983062485694
-0.6347753109025711
-0.8300907911802854
0.24414435034714274
-0.14648661020828566
-0.9277485313191425
-0.04882887006942855
0.04882887006942855
-0.8300907911802854
-0.43945983062485694
0.04882887006942855
-34.81498435950255
-176.5163653009842
-402.69169146257724
-558.1628137636377
-542.7328908216983
-412.45746547646297
-277.787441824979
-190.28610666056306
-135.40245670252537
-96.24170290684367
-72.70618753337911
-55.81139848935683
-38.03768978408484
-26.709391927977418
-21.826504921034562
-14.599832150759136
-8.545052262149996
-8.154421301594567
-6.39658197909514
-2.392614633401999
-2.2949568932631417
-2.9785610742351416
-0.34180209048599985
0.34180209048599985
-1.2207217517357138
-0.14648661020828566
1.1230640115968566
-0.14648661020828566
-0.24414435034714274
1.416037232013428
0.7324330510414282
-0.14648661020828566
0.9277485313191425
1.1230640115968566
-0.04882887006942855
0.34180209048599985
1.0254062714579995
0.04882887006942855
0.04882887006942855
1.1230640115968566
0.7324330510414282
0.14648661020828566
0.8300907911802854
0.9277485313191425
0.04882887006942855
0.24414435034714274
0.7324330510414282
0.34180209048599985
0.43945983062485694
19.18974593728542
81.49538414587624
179.73907072556648
311.1863889524681
457.18471046005953
520.3692683299
452.49713893339435
322.80766002899213
210.79423208972304
145.65651941710536
108.74189364461738
77.4914168001831
56.20202944991226
44.77607385366598
31.2993057145037
19.87335011825742
16.943617914091707
13.13496604867628
6.494239719233997
5.517662317845426
6.005951018539712
2.2949568932631417
0.8300907911802854
2.783245593957427
1.2207217517357138
-0.8300907911802854
0.8300907911802854
1.1230640115968566
-1.0254062714579995
-0.24414435034714274
0.9277485313191425
-0.6347753109025711
-1.0254062714579995
0.43945983062485694
-0.04882887006942855
-1.2207217517357138
0.04882887006942855
0.24414435034714274
-0.9277485313191425
-0.43945983062485694
0.34180209048599985
-0.537117570763714
-0.7324330510414282
0.14648661020828566
-0.24414435034714274
-0.9277485313191425
-0.14648661020828566
0.04882887006942855
-0.7324330510414282
-0.43945983062485694
0.04882887006942855
-0.43945983062485694
-0.6347753109025711
0.04882887006942855
-0.24414435034714274
-0.6347753109025711
-0.14648661020828566
-0.14648661020828566
-0.6347753109025711
-0.43945983062485694
-0.04882887006942855
-0.43945983062485694
-0.43945983062485694
-0.04882887006942855
-0.24414435034714274
-0.537117570763714
-0.24414435034714274
-0.14648661020828566
-0.43945983062485694
-0.34180209048599985
-0.24414435034714274
-0.43945983062485694
-3.1738765545128556
-37.15877012283513
-165.8716716258488
-384.23437857633326
-551.6197451743343
-550.6431677729457
-423.3951323720149
-283.25627527275503
-190.57907988097963
-136.4766918440528
-98.09719996948196
-72.5108720531014
-55.90905622949569
-39.40489814602884
-26.318760967421987
-20.84992751964599
-15.576409552147707
-9.228656443121995
-7.470817120622568
-6.787212939650568
-3.2715342946517127
-1.8066681925688564
-2.5879301136797133
-1.1230640115968566
0.24414435034714274
-0.9277485313191425
-0.9277485313191425
0.7324330510414282
0.34180209048599985
-0.34180209048599985
0.8300907911802854
0.9277485313191425
-0.04882887006942855
0.34180209048599985
1.0254062714579995
0.14648661020828566
0.04882887006942855
1.0254062714579995
0.6347753109025711
0.14648661020828566
0.9277485313191425
0.9277485313191425
0.04882887006942855
0.34180209048599985
0.8300907911802854
0.34180209048599985
0.43945983062485694
1.0254062714579995
14.306858930342566
54.346532387273975
103.56603341725796
176.90699626153963
308.9402609292744
413.0434119172961
404.44953078507666
351.616693369955
312.5535973144122
267.24040588998247
204.15350576028078
136.4766918440528
92.72602426184481
73.3897917143511
51.80743114366369
32.95948729686427
28.760204470893417
22.803082322423133
10.986495765621424
9.326314183260854
10.79118028534371
4.052796215762569
1.3183794918745708
5.0293736171511405
2.392614633401999
-1.513694972152285
1.7090104524299992
2.2949568932631417
-1.7090104524299992
-0.34180209048599985
2.0996414129854277
-0.8300907911802854
-1.6113527122911422
1.3183794918745708
0.14648661020828566
-1.9043259327077133
0.24414435034714274
0.7324330510414282
-1.6113527122911422
-0.6347753109025711
0.9277485313191425
-0.8300907911802854
-1.2207217517357138
0.6347753109025711
-0.04882887006942855
-1.3183794918745708
0.04882887006942855
0.24414435034714274
-1.1230640115968566
-0.537117570763714
0.43945983062485694
-0.6347753109025711
-0.9277485313191425
0.24414435034714274
-0.14648661020828566
-0.9277485313191425
-0.04882887006942855
0.04882887006942855
-0.7324330510414282
-0.43945983062485694
0.14648661020828566
-0.537117570763714
-0.7324330510414282
0.04882887006942855
-0.24414435034714274
-0.7324330510414282
-0.14648661020828566
-0.04882887006942855
-0.6347753109025711
-33.3501182574197
-160.30518043793393
-363.921568627451
-525.3498130769817
-544.6860456244755
-437.65316243228807
-301.90890363927673
-202.4933241779202
-141.2619211108568
-102.49179827573053
-76.22186617837797
-56.88563363088426
-40.96742198825055
-29.346150911726557
-21.63118944075685
-15.381094071869994
-10.498207064927138
-7.763790341039139
-5.71297779812314
-3.662165255207141
-2.5879301136797133
-2.0996414129854277
-1.1230640115968566
-0.43945983062485694
-0.43945983062485694
-0.04882887006942855
0.34180209048599985
0.14648661020828566
0.14648661020828566
0.43945983062485694
0.43945983062485694
0.24414435034714274
0.537117570763714
0.7324330510414282
0.537117570763714
0.43945983062485694
0.537117570763714
0.43945983062485694
0.34180209048599985
0.6347753109025711
0.7324330510414282
0.6347753109025711
0.6347753109025711
0.6347753109025711
0.43945983062485694
0.537117570763714
0.6347753109025711
0.537117570763714
0.537117570763714
0.7324330510414282
28.564888990615703
156.78950179293508
366.46066987106127
489.9977111467155
460.8957045853361
380.7186999313344
314.40909437705045
253.56832227054247
186.2821393148699
124.95307850766766
90.2845807583734
70.06942854962998
46.92454413672083
32.6665140764477
28.760204470893417
19.385061417563133
10.302891584649425
10.888838025482567
9.130998702983138
2.5879301136797133
2.8809033340962844
4.931715877012284
0.7324330510414282
-0.537117570763714
2.490272373540856
0.8300907911802854
-1.7090104524299992
0.7324330510414282
-50.44022278171969
-243.70489051651788
-495.75951781490807
-602.5970855268178
-517.3418783855955
-341.7532616159304
-112.84351873044938
188.72358281834136
446.63767452506295
502.0096131837949
384.1367208361944
242.92362859540702
163.62554360265506
119.97253376058595
80.32349126420996
60.59662775616083
52.6863508049134
33.44777599755856
19.58037689784085
20.947585259784848
15.088120851453422
4.638742656595713
7.080186160067139
8.44739452201114
0.6347753109025711
0.43945983062485694
5.127031357289998
0.6347753109025711
-2.197299153124285
2.490272373540856
1.6113527122911422
-2.783245593957427
0.14648661020828566
2.0996414129854277
-1.8066681925688564
-1.3183794918745708
1.9043259327077133
-0.43945983062485694
-2.0996414129854277
0.9277485313191425
0.537117570763714
-2.0019836728465705
-0.04882887006942855
1.1230640115968566
-1.3183794918745708
-1.0254062714579995
0.9277485313191425
-0.537117570763714
-1.513694972152285
-14.404516670481422
-93.50728618295567
-276.7132066834516
-487.26329442282747
-574.6669718471046
-494.9782558937972
-345.464255741207
-225.14991989013504
-157.1801327534905
-114.99198901350424
-81.98367284657053
-61.96383611810483
-47.80346379797055
-31.885252155336843
-22.21713588158999
-18.89677271686885
-12.549019607843137
-6.884870679789426
-6.884870679789426
-5.517662317845426
-1.513694972152285
-1.7090104524299992
-2.68558785381857
-0.14648661020828566
0.43945983062485694
-1.2207217517357138
-0.04882887006942855
1.3183794918745708
-0.24414435034714274
-0.43945983062485694
1.2207217517357138
0.537117570763714
-0.34180209048599985
0.9277485313191425
1.2207217517357138
0.04882887006942855
0.43945983062485694
1.2207217517357138
0.14648661020828566
0.04882887006942855
1.1230640115968566
0.7324330510414282
0.24414435034714274
1.0254062714579995
0.9277485313191425
0.04882887006942855
0.43945983062485694
3.7598229953459983
21.826504921034562
49.26832990005341
72.80384527351796
142.04318303196766
249.3690394445716
279.838254367895
253.66598001068132
269.4865339131762
286.86961165789273
264.7013046463722
242.92362859540702
230.81406881818876
208.25513084611276
159.81689173723964
99.85503929198138
68.89753566796368
58.54581521324483
37.35408560311284
22.412451361867703
24.4632639047837
17.627222095063708
5.322346837567712
8.252079041733426
9.912260624093996
0.7324330510414282
0.537117570763714
6.005951018539712
0.8300907911802854
-2.5879301136797133
2.9785610742351416
1.9043259327077133
-3.1738765545128556
0.24414435034714274
2.5879301136797133
-2.0996414129854277
-1.513694972152285
2.2949568932631417
-0.537117570763714
-2.392614633401999
1.2207217517357138
0.6347753109025711
-2.392614633401999
-0.14648661020828566
1.2207217517357138
-1.6113527122911422
-1.1230640115968566
1.2207217517357138
-0.537117570763714
-1.6113527122911422
0.537117570763714
0.24414435034714274
-1.513694972152285
-0.14648661020828566
0.6347753109025711
-1.1230640115968566
-0.9277485313191425
0.537117570763714
-0.43945983062485694
-1.1230640115968566
0.14648661020828566
0.04882887006942855
-1.0254062714579995
-0.24414435034714274
0.24414435034714274
-0.7324330510414282
-0.6347753109025711
0.24414435034714274
-13.623254749370565
-87.35484855420768
-229.25154497596705
-357.1831845578698
-422.41855497062636
-442.34073395895325
-410.9925993743801
-330.424963759823
-233.84145876249332
-155.22697795071335
-111.08567940794995
-84.22980086976425
-58.350499732967116
-41.943999389639124
-34.131380178530556
-22.90074006256199
-13.81857022964828
-12.939650568398566
-10.009918364232853
-4.052796215762569
-4.052796215762569
-4.736400396734569
-0.9277485313191425
0.04882887006942855
-2.197299153124285
-0.43945983062485694
1.3183794918745708
-0.7324330510414282
-0.7324330510414282
1.416037232013428
0.43945983062485694
-0.6347753109025711
1.1230640115968566
1.2207217517357138
-0.537117570763714
0.24414435034714274
1.2207217517357138
0.04882887006942855
0.04882887006942855
1.3183794918745708
0.6347753109025711
-0.04882887006942855
0.9277485313191425
1.0254062714579995
0.04882887006942855
0.537117570763714
1.1230640115968566
0.24414435034714274
0.24414435034714274
1.0254062714579995
0.6347753109025711
0.04882887006942855
0.7324330510414282
0.8300907911802854
0.14648661020828566
22.803082322423133
121.33974212252994
265.48256656748305
333.06172274357215
334.7219043259327
365.7770656900893
385.60158693827725
332.9640650034333
245.36507209887847
176.71168078126192
140.18768596932938
109.23018234531166
71.24132143129626
50.44022278171969
43.70183871213855
27.97894254978256
15.771725032425422
17.52956435492485
13.13496604867628
3.662165255207141
5.517662317845426
7.470817120622568
0.537117570763714
-0.04882887006942855
4.443427176317998
0.7324330510414282
-2.2949568932631417
1.9043259327077133
1.6113527122911422
-2.490272373540856
-0.04882887006942855
2.0019836728465705
-1.513694972152285
-1.416037232013428
1.6113527122911422
-0.24414435034714274
-2.0019836728465705
0.6347753109025711
0.537117570763714
-1.9043259327077133
-0.24414435034714274
1.0254062714579995
-1.1230640115968566
-1.0254062714579995
0.8300907911802854
-0.34180209048599985
-1.416037232013428
0.24414435034714274
0.14648661020828566
-1.3183794918745708
-0.34180209048599985
0.34180209048599985
-0.8300907911802854
-0.7324330510414282
0.34180209048599985
-0.34180209048599985
-0.9277485313191425
0.04882887006942855
0.04882887006942855
-0.9277485313191425
-0.24414435034714274
0.14648661020828566
-0.6347753109025711
-0.6347753109025711
0.04882887006942855
-0.34180209048599985
-0.7324330510414282
-0.04882887006942855
-0.04882887006942855
-0.6347753109025711
-0.34180209048599985
0.04882887006942855
-0.537117570763714
-0.43945983062485694
-0.04882887006942855
-0.34180209048599985
-0.6347753109025711
-0.24414435034714274
-0.24414435034714274
-56.59266041046769
-255.91210803387503
-508.74799725337607
-605.9174486915389
-509.1386282139315
-345.56191348134587
-224.66163118944075
-160.1098649576562
-115.18730449378195
-81.49538414587624
-64.60059510185397
-48.68238345922026
-30.322728313115128
-23.096055542839704
-20.16632333867399
-11.279468986037996
-6.884870679789426
-8.642710002288853
-5.0293736171511405
-0.537117570763714
-2.68558785381857
-2.783245593957427
0.9277485313191425
0.04882887006942855
-2.0019836728465705
0.7324330510414282
1.416037232013428
-1.0254062714579995
0.04882887006942855
1.9043259327077133
0.04882887006942855
-0.43945983062485694
1.6113527122911422
0.8300907911802854
-0.43945983062485694
1.0254062714579995
1.3183794918745708
-0.34180209048599985
0.24414435034714274
1.416037232013428
0.14648661020828566
2.9785610742351416
38.72129396505684
106.49576562142367
136.08606088349737
139.79705500877392
187.35637445639733
213.52864881361106
181.00862134737164
185.20790417334248
220.16937514305334
202.0050354772259
175.6374456397345
186.9657434958419
176.71168078126192
140.48065918974595
128.85938811322194
138.82047760738536
134.2305638208591
98.39017318989853
63.819333180743115
63.42870222018769
60.79194323643854
30.518043793392845
17.82253757534142
26.123445487144274
13.916227969787137
0.7324330510414282
10.595864805065995
10.10757610437171
-3.466849774929427
1.3183794918745708
8.252079041733426
-2.0019836728465705
-3.5645075150682843
5.71297779812314
0.8300907911802854
-5.224689097428855
2.392614633401999
3.1738765545128556
-4.443427176317998
-0.8300907911802854
3.8574807354848555
-2.2949568932631417
-2.8809033340962844
2.9785610742351416
0.04882887006942855
-3.5645075150682843
1.2207217517357138
1.7090104524299992
-2.9785610742351416
-0.6347753109025711
2.197299153124285
-1.6113527122911422
-2.0019836728465705
1.6113527122911422
-0.04882887006942855
-2.392614633401999
0.537117570763714
0.9277485313191425
-1.9043259327077133
-0.537117570763714
1.2207217517357138
-1.0254062714579995
-1.3183794918745708
0.9277485313191425
-0.24414435034714274
-1.6113527122911422
0.14648661020828566
0.34180209048599985
-1.3183794918745708
-0.43945983062485694
0.6347753109025711
-6.494239719233997
-53.66292820630198
-173.29365987640193
-334.62424658579386
-468.8059815365835
-510.9941252765698
-444.0985732814527
-326.7139696345464
-220.9506370641642
-149.6604867627985
-109.42549782558937
-81.39772640573739
-57.95986877241169
-43.11589227130541
-32.764171816586554
-22.021820401312276
-15.381094071869994
-12.646677347981994
-8.44739452201114
-4.736400396734569
-4.541084916456855
-3.466849774929427
-1.0254062714579995
-1.1230640115968566
-1.6113527122911422
0.04882887006942855
0.43945983062485694
-0.537117570763714
0.04882887006942855
0.9277485313191425
0.04882887006942855
0.04882887006942855
1.0254062714579995
0.537117570763714
-0.04882887006942855
0.6347753109025711
0.8300907911802854
0.14648661020828566
0.43945983062485694
0.9277485313191425
0.34180209048599985
0.24414435034714274
0.8300907911802854
0.6347753109025711
0.34180209048599985
0.8300907911802854
0.8300907911802854
0.24414435034714274
0.537117570763714
0.8300907911802854
0.43945983062485694
0.34180209048599985
0.7324330510414282
0.6347753109025711
0.34180209048599985
27.392996108949415
123.4882124055848
228.76325627527277
245.56038757915618
238.2360570687419
272.02563515678645
263.72472724498357
219.58342870222017
230.91172655832762
257.0840009155413
227.10307469291217
169.87563897154192
132.27740901808195
118.80064087891967
99.46440833142596
62.745098039215684
44.580758373388264
44.38544289311055
27.295338368810558
11.572442206454566
17.334248874647134
14.50217441062028
1.1230640115968566
4.443427176317998
9.42397192339971
-0.24414435034714274
-1.9043259327077133
5.810635538261997
1.2207217517357138
-4.150453955901427
2.392614633401999
2.8809033340962844
-3.7598229953459983
-0.43945983062485694
3.36919203479057
-1.9043259327077133
-2.490272373540856
2.5879301136797133
0.04882887006942855
-3.1738765545128556
0.9277485313191425
1.3183794918745708
-2.5879301136797133
-0.537117570763714
1.8066681925688564
-1.416037232013428
-1.7090104524299992
1.416037232013428
-0.14648661020828566
-2.0996414129854277
0.43945983062485694
0.6347753109025711
-1.8066681925688564
-0.43945983062485694
1.0254062714579995
-1.0254062714579995
-1.1230640115968566
0.7324330510414282
-0.14648661020828566
-1.416037232013428
0.14648661020828566
0.34180209048599985
-1.2207217517357138
-0.43945983062485694
0.43945983062485694
-0.8300907911802854
-0.8300907911802854
0.34180209048599985
-0.24414435034714274
-1.0254062714579995
0.04882887006942855
0.04882887006942855
-0.8300907911802854
-0.34180209048599985
0.14648661020828566
-0.537117570763714
-0.6347753109025711
0.04882887006942855
-0.34180209048599985
-0.8300907911802854
-0.14648661020828566
-0.04882887006942855
-48.19409475852598
-208.35278858625162
-414.4106202792401
-530.2327000839247
-510.7011520561532
-401.51979858091096
-283.0609597924773
-196.1455710688945
-135.20714122224766
-97.02296482795452
-74.85465781643397
-54.54184786755169
-37.256427862973986
-28.760204470893417
-21.826504921034562
-13.13496604867628
-9.71694514381628
-8.838025482566568
-4.736400396734569
-2.392614633401999
-3.36919203479057
-2.0019836728465705
0.14648661020828566
-0.8300907911802854
-1.1230640115968566
0.6347753109025711
0.24414435034714274
-0.7324330510414282
0.537117570763714
1.1230640115968566
-0.04882887006942855
0.34180209048599985
1.416037232013428
0.34180209048599985
-0.04882887006942855
0.9277485313191425
0.6347753109025711
-0.14648661020828566
0.537117570763714
0.9277485313191425
0.14648661020828566
0.43945983062485694
1.0254062714579995
0.43945983062485694
0.14648661020828566
0.7324330510414282
0.537117570763714
0.24414435034714274
1.3183794918745708
17.43190661478599
47.705806057831694
67.92095826657511
118.70298313878081
213.6263065537499
249.27138170443274
231.00938429846647
256.4003967345693
282.76798657206075
259.1348134584573
244.09552147707333
248.97840848401617
231.49767299916076
181.7898832684825
119.67956054016938
84.52277409018082
73.19447623407339
48.877698939497975
27.49065384908827
28.66254673075456
22.90074006256199
7.275501640344854
8.642710002288853
12.549019607843137
2.0996414129854277
-0.14648661020828566
7.080186160067139
2.197299153124285
-3.466849774929427
2.783245593957427
3.1738765545128556
-3.466849774929427
-0.34180209048599985
3.466849774929427
-1.8066681925688564
-2.392614633401999
2.5879301136797133
0.04882887006942855
-3.076218814373999
1.0254062714579995
1.416037232013428
-2.5879301136797133
-0.6347753109025711
1.8066681925688564
-1.416037232013428
-1.7090104524299992
1.416037232013428
-0.04882887006942855
-2.0996414129854277
0.43945983062485694
0.7324330510414282
-1.7090104524299992
-0.43945983062485694
1.0254062714579995
-1.0254062714579995
-1.2207217517357138
0.6347753109025711
-0.24414435034714274
-1.416037232013428
0.14648661020828566
0.24414435034714274
-1.2207217517357138
-0.34180209048599985
0.43945983062485694
-0.7324330510414282
-0.8300907911802854
-18.701457236591136
-119.87487602044709
-329.057755397879
-527.888914320592
-570.955977721828
-462.16525520714123
-313.53017471580074
-207.37621118486305
-147.6096742198825
-106.59342336156253
-77.10078583962768
-59.91302357518883
-43.99481193255512
-28.760204470893417
-21.92416266117342
-17.627222095063708
-10.400549324788281
-6.982528419928283
-7.177843900205997
-4.150453955901427
-1.3183794918745708
-2.5879301136797133
-2.0019836728465705
0.43945983062485694
-0.24414435034714274
-1.2207217517357138
0.6347753109025711
0.8300907911802854
-0.43945983062485694
0.43945983062485694
1.3183794918745708
0.04882887006942855
0.04882887006942855
1.2207217517357138
0.537117570763714
-0.04882887006942855
1.0254062714579995
1.0254062714579995
0.04882887006942855
0.537117570763714
1.0254062714579995
0.14648661020828566
0.04882887006942855
1.0254062714579995
0.6347753109025711
0.14648661020828566
0.8300907911802854
37.74471656366827
139.6017395284962
229.05622949568934
277.20149538414586
348.198672465095
387.7500572213321
340.48371099412526
281.3031204699779
249.66201266498817
219.58342870222017
172.9030289158465
114.50370031280995
77.68673228046082
65.18654154268711
45.069047074082555
25.92813000686656
25.342183566033416
20.947585259784848
7.763790341039139
7.470817120622568
10.79118028534371
2.68558785381857
-0.04882887006942855
5.615320057984283
2.392614633401999
-2.5879301136797133
1.9043259327077133
2.8809033340962844
-2.490272373540856
-0.6347753109025711
2.783245593957427
-1.2207217517357138
-2.197299153124285
1.8066681925688564
0.24414435034714274
-2.5879301136797133
0.43945983062485694
1.2207217517357138
-2.0019836728465705
-0.7324330510414282
1.416037232013428
-0.9277485313191425
-1.513694972152285
0.9277485313191425
-0.04882887006942855
-1.8066681925688564
0.04882887006942855
0.537117570763714
-1.3183794918745708
-0.6347753109025711
0.7324330510414282
-0.7324330510414282
-1.0254062714579995
0.43945983062485694
-0.04882887006942855
-1.1230640115968566
0.04882887006942855
0.14648661020828566
-1.0254062714579995
-0.537117570763714
0.24414435034714274
-0.537117570763714
-0.7324330510414282
0.14648661020828566
-0.14648661020828566
-0.8300907911802854
-0.04882887006942855
0.04882887006942855
-0.7324330510414282
-0.43945983062485694
0.04882887006942855
-0.537117570763714
-0.6347753109025711
0.04882887006942855
-0.24414435034714274
-0.6347753109025711
-0.14648661020828566
-0.04882887006942855
-0.537117570763714
-8.642710002288853
-62.745098039215684
-222.22018768596934
-451.9111924925612
-583.3585107194629
-527.5959411001754
-375.73815518425266
-243.4119172961013
-167.14122224765393
-122.51163500419624
-87.45250629434653
-65.28419928282597
-51.02616922255284
-34.717326619363696
-23.19371328297856
-19.678034637979707
-14.013885709925994
-7.373159380483711
-6.884870679789426
-6.201266498817426
-2.0019836728465705
-1.416037232013428
-2.8809033340962844
-0.537117570763714
0.7324330510414282
-1.2207217517357138
-0.6347753109025711
1.416037232013428
0.14648661020828566
-0.537117570763714
1.2207217517357138
0.9277485313191425
-0.43945983062485694
0.537117570763714
1.2207217517357138
0.04882887006942855
0.14648661020828566
1.2207217517357138
0.537117570763714
0.14648661020828566
1.1230640115968566
0.8300907911802854
0.04882887006942855
0.6347753109025711
1.0254062714579995
0.14648661020828566
0.34180209048599985
1.0254062714579995
7.568474860761425
22.119478141451133
35.20561532005799
80.12817578393225
166.0669871061265
200.73548485542076
179.73907072556648
194.38773174639505
206.00900282291906
164.11383230334937
149.07454032196537
169.4850080109865
146.63309681849393
118.60532539864195
138.9181353475242
149.56282902265966
132.08209353780424
130.22659647516593
151.22301060502022
163.03959716182192
127.00389105058366
69.67879758907453
51.61211566338598
48.68238345922026
23.974975204089418
13.81857022964828
23.19371328297856
12.74433508812085
-0.34180209048599985
8.838025482566568
9.42397192339971
-3.466849774929427
0.537117570763714
7.763790341039139
-1.7090104524299992
-3.7598229953459983
5.224689097428855
1.1230640115968566
-5.0293736171511405
1.9043259327077133
3.2715342946517127
-4.052796215762569
-1.0254062714579995
3.662165255207141
-1.9043259327077133
-2.9785610742351416
2.68558785381857
0.24414435034714274
-3.466849774929427
0.9277485313191425
1.7090104524299992
-2.68558785381857
-0.8300907911802854
2.0996414129854277
-1.3183794918745708
-2.0019836728465705
1.416037232013428
0.04882887006942855
-2.2949568932631417
0.43945983062485694
0.9277485313191425
-1.8066681925688564
-0.6347753109025711
1.2207217517357138
-0.9277485313191425
-1.3183794918745708
0.8300907911802854
-0.04882887006942855
-1.513694972152285
-10.693522545204852
-67.7256427862974
-217.53261615930418
-425.25062943465326
-553.9635309376669
-520.7598992904555
-388.6289768825818
-259.1348134584573
-177.49294270237277
-128.76173037308308
-91.65178912031739
-67.7256427862974
-52.97932402532997
-36.67048142214084
-24.365606164644845
-20.16632333867399
-14.795147631036851
-7.959105821316854
-6.884870679789426
-6.591897459372854
-2.5879301136797133
-1.513694972152285
-2.8809033340962844
-0.8300907911802854
0.7324330510414282
-0.9277485313191425
-0.537117570763714
1.3183794918745708
0.34180209048599985
-0.537117570763714
1.0254062714579995
1.0254062714579995
-0.24414435034714274
0.537117570763714
1.3183794918745708
0.04882887006942855
0.04882887006942855
1.1230640115968566
0.43945983062485694
-0.04882887006942855
0.9277485313191425
1.0254062714579995
0.14648661020828566
0.537117570763714
0.9277485313191425
0.14648661020828566
0.24414435034714274
1.0254062714579995
0.537117570763714
0.24414435034714274
0.8300907911802854
8.74036774242771
25.049210345616846
53.27229724574655
153.56679636835278
321.538109407187
417.92629892423895
406.50034332799265
373.8826581216144
341.36263065537497
286.38132295719845
208.74341954680705
136.57434958419165
98.19485770962082
76.51483939879454
50.53788052185855
35.596246280613414
32.08056763561456
20.947585259784848
10.79118028534371
12.256046387426567
10.10757610437171
2.392614633401999
3.36919203479057
5.71297779812314
0.537117570763714
-0.6347753109025711
3.1738765545128556
0.8300907911802854
-2.0996414129854277
1.1230640115968566
1.416037232013428
-2.0019836728465705
-0.43945983062485694
1.6113527122911422
-1.0254062714579995
-1.416037232013428
1.1230640115968566
-0.04882887006942855
-1.7090104524299992
0.24414435034714274
0.537117570763714
-1.513694972152285
-0.537117570763714
0.7324330510414282
-0.8300907911802854
-1.0254062714579995
0.537117570763714
-0.14648661020828566
-1.2207217517357138
0.04882887006942855
0.14648661020828566
-1.0254062714579995
-0.34180209048599985
0.34180209048599985
-0.7324330510414282
-0.8300907911802854
0.14648661020828566
-0.24414435034714274
-0.9277485313191425
-0.04882887006942855
0.04882887006942855
-0.7324330510414282
-0.34180209048599985
0.04882887006942855
-0.537117570763714
-0.6347753109025711
0.04882887006942855
-0.34180209048599985
-0.7324330510414282
-0.14648661020828566
-0.04882887006942855
-0.6347753109025711
-0.34180209048599985
-0.04882887006942855
-0.43945983062485694
-0.43945983062485694
-0.04882887006942855
-13.232623788815136
-91.94476234073396
-253.66598001068132
-407.2816052491035
-476.91157396810866
-463.92309452964065
-388.6289768825818
-290.2876325627527
-201.90737773708705
-136.57434958419165
-99.46440833142596
-75.63591973754482
-52.881666285191116
-37.84237430380713
-30.22507057297627
-20.654612039368278
-12.939650568398566
-11.47478446631571
-8.74036774242771
-3.9551384756237127
-3.5645075150682843
-3.9551384756237127
-0.9277485313191425
-0.14648661020828566
-1.7090104524299992
-0.24414435034714274
1.1230640115968566
-0.24414435034714274
-0.43945983062485694
1.1230640115968566
0.537117570763714
-0.34180209048599985
0.9277485313191425
1.0254062714579995
-0.14648661020828566
0.43945983062485694
1.1230640115968566
0.14648661020828566
0.04882887006942855
1.1230640115968566
0.7324330510414282
0.14648661020828566
0.9277485313191425
0.9277485313191425
0.04882887006942855
0.43945983062485694
0.9277485313191425
0.34180209048599985
0.24414435034714274
13.81857022964828
52.49103532463569
81.69069962615396
90.67521171892882
151.32066834515908
240.4821850919356
250.44327458609902
227.59136339360646
246.24399176012818
240.9704737926299
204.05584802014192
209.71999694819561
238.2360570687419
224.85694666971847
167.23887998779279
111.57396810864424
91.8471046005951
79.73754482337682
47.60814831769284
29.834439612420844
32.86182955672541
20.752269779507134
6.39658197909514
12.549019607843137
12.256046387426567
-0.24414435034714274
2.0996414129854277
8.252079041733426
-0.34180209048599985
-2.8809033340962844
4.931715877012284
1.513694972152285
-4.248111696040284
1.7090104524299992
3.076218814373999
-3.36919203479057
-1.0254062714579995
3.2715342946517127
-1.513694972152285
-2.68558785381857
2.2949568932631417
0.24414435034714274
-3.1738765545128556
0.6347753109025711
1.513694972152285
-2.392614633401999
-0.8300907911802854
1.8066681925688564
-1.1230640115968566
-1.8066681925688564
1.3183794918745708
0.04882887006942855
-2.0996414129854277
0.14648661020828566
0.7324330510414282
-1.6113527122911422
-0.6347753109025711
1.0254062714579995
-0.8300907911802854
-1.2207217517357138
0.6347753109025711
-0.04882887006942855
-1.416037232013428
0.04882887006942855
-1.0254062714579995
-64.69825284199283
-258.2558937972076
-477.0092317082475
-553.5728999771114
-482.8686961165789
-357.57381551842525
-252.7870603494316
-181.9851987487602
-125.63668268863965
-88.81971465629053
-70.94834821087969
-51.22148470283055
-32.37354085603113
-26.807049668116274
-21.63118944075685
-11.181811245899137
-8.44739452201114
-9.71694514381628
-4.150453955901427
-1.0254062714579995
-4.052796215762569
-2.490272373540856
1.2207217517357138
-0.9277485313191425
-1.8066681925688564
1.416037232013428
0.8300907911802854
-1.416037232013428
0.7324330510414282
1.7090104524299992
-0.7324330510414282
-0.04882887006942855
1.9043259327077133
0.24414435034714274
-0.43945983062485694
1.416037232013428
0.9277485313191425
-0.537117570763714
0.7324330510414282
1.513694972152285
-0.04882887006942855
0.24414435034714274
1.416037232013428
0.43945983062485694
0.04882887006942855
1.1230640115968566
0.8300907911802854
0.04882887006942855
0.7324330510414282
21.533531700617992
74.85465781643397
137.06263828488594
228.95857175555048
347.22209506370643
382.47653925383383
335.210193026627
309.4285496299687
305.52224002441443
273.4905012588693
204.73945220111392
131.78912031738764
92.62836652170596
73.3897917143511
48.09643701838712
32.56885633630884
30.811017013809415
20.84992751964599
9.521629663538567
11.377126726176853
10.498207064927138
2.0019836728465705
2.490272373540856
6.103608758678568
0.6347753109025711
-1.416037232013428
3.1738765545128556
1.2207217517357138
-2.490272373540856
0.8300907911802854
2.0019836728465705
-2.0019836728465705
-0.8300907911802854
1.9043259327077133
-0.8300907911802854
-1.8066681925688564
1.2207217517357138
0.14648661020828566
-2.0996414129854277
0.04882887006942855
0.8300907911802854
-1.513694972152285
-0.7324330510414282
0.9277485313191425
-0.7324330510414282
-1.3183794918745708
0.537117570763714
0.04882887006942855
-1.416037232013428
-0.04882887006942855
0.34180209048599985
-1.1230640115968566
-0.537117570763714
0.43945983062485694
-0.537117570763714
-0.9277485313191425
0.24414435034714274
-0.04882887006942855
-0.9277485313191425
-0.04882887006942855
0.14648661020828566
-0.8300907911802854
-0.537117570763714
0.04882887006942855
-0.537117570763714
-0.7324330510414282
0.04882887006942855
-0.14648661020828566
-0.7324330510414282
-0.14648661020828566
0.04882887006942855
-34.22903791866941
-148.7815671015488
-295.0728618295567
-397.51583123521783
-455.03624017700463
-453.7666895551995
-380.5233844510567
-275.5413138017853
-182.57114518959335
-125.44136720836194
-95.75341420614939
-68.79987792782482
-47.31517509727627
-38.23300526436255
-28.467231250476843
-16.650644693675137
-13.427939269092851
-12.158388647287708
-5.71297779812314
-3.2715342946517127
-5.322346837567712
-2.490272373540856
0.34180209048599985
-1.8066681925688564
-1.7090104524299992
1.1230640115968566
0.04882887006942855
-1.3183794918745708
1.0254062714579995
1.3183794918745708
-0.6347753109025711
0.43945983062485694
1.7090104524299992
-0.04882887006942855
-0.24414435034714274
1.416037232013428
0.537117570763714
-0.43945983062485694
0.9277485313191425
1.1230640115968566
-0.04882887006942855
0.537117570763714
1.3183794918745708
0.24414435034714274
0.14648661020828566
1.1230640115968566
0.6347753109025711
0.14648661020828566
1.0254062714579995
0.9277485313191425
0.04882887006942855
6.787212939650568
52.002746623941405
130.03128099488822
157.96139467460137
148.39093614099338
196.53620202944992
246.53696498054475
227.4937056534676
217.43495841916533
233.74380102235446
207.18089570458534
171.7311360341802
183.74303807125963
211.28252079041732
203.66521705958647
148.0979629205768
93.2143129625391
75.44060425726711
57.471580071717405
29.736781872281988
25.732814526588847
27.588311589227132
11.279468986037996
5.224689097428855
13.232623788815136
6.494239719233997
-2.197299153124285
5.0293736171511405
5.810635538261997
-3.36919203479057
-0.14648661020828566
5.224689097428855
-1.6113527122911422
-2.9785610742351416
3.5645075150682843
0.537117570763714
-3.8574807354848555
1.3183794918745708
2.197299153124285
-3.076218814373999
-0.8300907911802854
2.490272373540856
-1.6113527122911422
-2.2949568932631417
1.9043259327077133
0.04882887006942855
-2.68558785381857
0.537117570763714
1.2207217517357138
-2.0996414129854277
-0.6347753109025711
1.416037232013428
-1.1230640115968566
-1.6113527122911422
0.9277485313191425
-0.04882887006942855
-1.8066681925688564
0.14648661020828566
0.537117570763714
-1.416037232013428
-0.537117570763714
0.7324330510414282
-0.7324330510414282
-1.0254062714579995
0.43945983062485694
-0.14648661020828566
-1.2207217517357138
0.04882887006942855
0.14648661020828566
-1.0254062714579995
-0.43945983062485694
0.34180209048599985
-0.6347753109025711
-0.7324330510414282
0.14648661020828566
-0.14648661020828566
-11.865415426871138
-63.33104448004883
-180.12970168612193
-349.17524986648357
-497.0290684367132
-528.4748607614252
-436.38361181048293
-304.448004882887
-201.3214312962539
-140.5783169298848
-103.66369115739681
-75.14763103685054
-55.51842526894026
-42.13931486991684
-29.2484931715877
-19.971007858396277
-15.771725032425422
-11.181811245899137
-6.6895551995117115
-5.71297779812314
-4.638742656595713
-1.9043259327077133
-1.2207217517357138
-1.8066681925688564
-0.43945983062485694
0.34180209048599985
-0.537117570763714
-0.24414435034714274
0.7324330510414282
0.24414435034714274
-0.04882887006942855
0.8300907911802854
0.8300907911802854
0.04882887006942855
0.537117570763714
0.8300907911802854
0.04882887006942855
0.24414435034714274
0.8300907911802854
0.43945983062485694
0.14648661020828566
0.7324330510414282
0.537117570763714
0.14648661020828566
0.6347753109025711
0.9277485313191425
0.43945983062485694
0.537117570763714
0.8300907911802854
0.537117570763714
0.34180209048599985
36.96345464255741
174.9538414587625
355.13237201495383
439.8992904554818
435.5046921492332
404.3518730449378
346.05020218204015
265.48256656748305
181.7898832684825
121.63271534294651
92.72602426184481
68.79987792782482
44.873731593804834
35.49858854047456
29.443808651865414
16.650644693675137
11.377126726176853
12.646677347981994
6.982528419928283
2.0996414129854277
5.0293736171511405
4.052796215762569
-0.6347753109025711
1.0254062714579995
2.9785610742351416
-0.7324330510414282
-1.0254062714579995
1.9043259327077133
0.04882887006942855
-1.9043259327077133
0.7324330510414282
0.7324330510414282
-1.7090104524299992
-0.34180209048599985
1.0254062714579995
-1.0254062714579995
-1.0254062714579995
0.8300907911802854
-0.24414435034714274
-1.416037232013428
0.14648661020828566
0.14648661020828566
-1.2207217517357138
-0.34180209048599985
0.43945983062485694
-0.7324330510414282
-0.7324330510414282
0.34180209048599985
-0.24414435034714274
-0.9277485313191425
0.04882887006942855
0.04882887006942855
-0.9277485313191425
-0.34180209048599985
0.04882887006942855
-0.6347753109025711
-1.2207217517357138
-1.8066681925688564
-2.197299153124285
-6.787212939650568
-17.236591134508277
-16.943617914091707
-1.6113527122911422
10.986495765621424
12.353704127565424
6.787212939650568
2.8809033340962844
3.076218814373999
1.8066681925688564
0.14648661020828566
1.0254062714579995
1.1230640115968566
-0.34180209048599985
-0.14648661020828566
0.6347753109025711
-0.24414435034714274
-0.6347753109025711
0.24414435034714274
-0.04882887006942855
-0.8300907911802854
-0.04882887006942855
0.04882887006942855
-0.7324330510414282
-9.81460288395514
-66.65140764476998
-228.56794079499505
-456.3057907988098
-582.6749065384909
-523.6896314946212
-371.92950331883725
-240.87281605249103
-165.3833829251545
-121.53505760280765
-86.8665598535134
-64.79591058213168
-50.73319600213626
-34.61966887922484
-22.998397802700847
-19.385061417563133
-13.81857022964828
-7.373159380483711
-6.787212939650568
-6.103608758678568
-1.9043259327077133
-1.3183794918745708
-2.9785610742351416
-0.6347753109025711
0.7324330510414282
-1.0254062714579995
-0.537117570763714
1.3183794918745708
0.04882887006942855
-0.537117570763714
1.2207217517357138
1.0254062714579995
-0.34180209048599985
0.537117570763714
1.2207217517357138
0.04882887006942855
0.14648661020828566
1.2207217517357138
0.537117570763714
0.04882887006942855
1.1230640115968566
0.9277485313191425
0.04882887006942855
0.537117570763714
0.9277485313191425
0.14648661020828566
0.34180209048599985
5.71297779812314
29.346150911726557
58.8387884336614
60.79194323643854
79.24925612268254
144.97291523613336
171.2428473334859
158.25436789501794
189.60250247959107
214.60288395513848
183.93835355153735
176.41870756084535
199.2706187533379
184.7196154726482
163.91851682307163
176.90699626153963
192.4345769436179
182.6688029297322
140.3830014496071
99.07377737087053
85.49935149156939
63.03807125963226
31.396963454642556
28.467231250476843
29.443808651865414
10.888838025482567
6.103608758678568
14.990463111314565
6.201266498817426
-2.490272373540856
6.298924238956283
5.908293278400855
-4.150453955901427
0.43945983062485694
5.615320057984283
-2.490272373540856
-2.9785610742351416
4.248111696040284
0.14648661020828566
-4.248111696040284
1.9043259327077133
2.197299153124285
-3.662165255207141
-0.43945983062485694
2.8809033340962844
-2.0019836728465705
-2.2949568932631417
2.197299153124285
-0.14648661020828566
-2.8809033340962844
0.9277485313191425
1.1230640115968566
-2.392614633401999
-0.43945983062485694
1.6113527122911422
-1.416037232013428
-1.513694972152285
1.3183794918745708
-0.24414435034714274
-1.9043259327077133
0.34180209048599985
0.43945983062485694
-1.7090104524299992
-0.34180209048599985
0.8300907911802854
-1.0254062714579995
-1.0254062714579995
0.6347753109025711
-0.24414435034714274
-1.3183794918745708
0.14648661020828566
0.14648661020828566
-35.20561532005799
-151.61364156557565
-305.4245822842756
-417.5356679636835
-469.58724345769434
-451.0322728313115
-367.9255359731441
-264.0177004654002
-175.34447241931792
-121.53505760280765
-92.92133974212253
-66.65140764476998
-45.947966735332265
-37.06111238269627
-27.49065384908827
-16.064698252841993
-12.939650568398566
-11.670099946593423
-5.517662317845426
-3.2715342946517127
-5.224689097428855
-2.490272373540856
0.14648661020828566
-1.8066681925688564
-1.6113527122911422
1.1230640115968566
0.04882887006942855
-1.1230640115968566
1.0254062714579995
1.2207217517357138
-0.6347753109025711
0.34180209048599985
1.6113527122911422
0.04882887006942855
0.04882887006942855
1.513694972152285
0.6347753109025711
-0.34180209048599985
0.9277485313191425
1.1230640115968566
-0.04882887006942855
0.43945983062485694
1.1230640115968566
0.14648661020828566
0.14648661020828566
1.1230640115968566
0.6347753109025711
0.04882887006942855
0.9277485313191425
1.0254062714579995
0.24414435034714274
0.6347753109025711
19.287403677424276
66.3584344243534
111.37865262836652
175.8327611200122
294.77988860914013
370.2693217364767
349.66353856717785
326.5186541542687
326.42099641412983
296.92835889219504
227.59136339360646
148.68390936140995
101.51522087434195
81.39772640573739
55.81139848935683
35.49858854047456
32.86182955672541
24.756237125200276
10.986495765621424
10.986495765621424
12.353704127565424
3.36919203479057
1.6113527122911422
6.494239719233997
2.0996414129854277
-1.9043259327077133
2.783245593957427
2.490272373540856
-2.5879301136797133
0.04882887006942855
2.5879301136797133
-1.513694972152285
-1.7090104524299992
2.0019836728465705
-0.14648661020828566
-2.2949568932631417
0.8300907911802854
0.8300907911802854
-2.0019836728465705
-0.34180209048599985
1.2207217517357138
-1.3183794918745708
-1.3183794918745708
0.9277485313191425
-0.24414435034714274
-1.6113527122911422
0.34180209048599985
0.34180209048599985
-1.416037232013428
-0.34180209048599985
0.6347753109025711
-0.9277485313191425
-0.9277485313191425
0.43945983062485694
-0.34180209048599985
-1.1230640115968566
0.04882887006942855
0.04882887006942855
-2.8809033340962844
-8.05676356145571
-11.47478446631571
-32.08056763561456
-90.96818493934539
-119.19127183947509
-51.61211566338598
43.99481193255512
83.25322346837568
64.9912260624094
34.52201113908598
22.803082322423133
18.21316853589685
9.130998702983138
7.177843900205997
9.42397192339971
4.248111696040284
0.7324330510414282
3.9551384756237127
2.68558785381857
-1.2207217517357138
0.8300907911802854
2.2949568932631417
-1.1230640115968566
-0.9277485313191425
1.7090104524299992
-0.24414435034714274
-1.7090104524299992
-6.201266498817426
-55.51842526894026
-203.17692835889218
-415.7778286411841
-550.8384832532234
-524.2755779354543
-396.4415960936904
-267.72869459067675
-185.30556191348134
-133.64461738002595
-93.80025940337224
-70.06942854962998
-55.03013656824598
-37.256427862973986
-25.146868085755703
-21.533531700617992
-14.990463111314565
-7.763790341039139
-7.568474860761425
-6.787212939650568
-2.0996414129854277
-1.6113527122911422
-3.2715342946517127
-0.7324330510414282
0.6347753109025711
-1.416037232013428
-0.43945983062485694
1.6113527122911422
0.04882887006942855
-0.6347753109025711
1.3183794918745708
0.8300907911802854
-0.537117570763714
0.8300907911802854
1.513694972152285
-0.04882887006942855
0.14648661020828566
1.3183794918745708
0.34180209048599985
-0.04882887006942855
1.0254062714579995
0.8300907911802854
0.04882887006942855
0.7324330510414282
1.1230640115968566
0.14648661020828566
0.34180209048599985
1.0254062714579995
0.43945983062485694
0.24414435034714274
0.9277485313191425
14.795147631036851
45.947966735332265
76.71015487907225
137.45326924544136
219.58342870222017
224.36865796902418
186.86808575570305
211.18486305027847
238.82200350957504
219.9740596627756
227.78667887388417
256.8886854352636
238.4313725490196
186.37979705500877
142.43381399252308
122.6092927443351
107.76531624322881
69.77645532921339
39.99084458686198
39.69787136644541
29.9320973525597
10.79118028534371
13.330281528953995
16.45532921339742
2.783245593957427
1.1230640115968566
9.42397192339971
2.392614633401999
-3.662165255207141
4.345769436179141
3.662165255207141
-4.150453955901427
0.24414435034714274
4.248111696040284
-2.5879301136797133
-2.490272373540856
3.36919203479057
-0.24414435034714274
-3.5645075150682843
1.6113527122911422
1.513694972152285
-3.1738765545128556
-0.24414435034714274
2.197299153124285
-1.9043259327077133
-1.7090104524299992
1.9043259327077133
-0.34180209048599985
-2.392614633401999
0.8300907911802854
0.7324330510414282
-2.0996414129854277
-0.24414435034714274
1.2207217517357138
-1.3183794918745708
-1.2207217517357138
1.0254062714579995
-0.34180209048599985
-1.6113527122911422
0.34180209048599985
0.24414435034714274
-1.513694972152285
-0.34180209048599985
0.6347753109025711
-0.9277485313191425
-0.8300907911802854
0.537117570763714
-0.34180209048599985
-1.1230640115968566
0.04882887006942855
0.04882887006942855
-41.26039520866713
-172.80537117570765
-333.4523537041276
-433.16090638590066
-466.16922255283436
-435.3093766689555
-351.616693369955
-252.68940260929276
-168.02014190890364
-116.94514381628137
-89.99160753795681
-64.20996414129854
-43.99481193255512
-35.98687724116884
-26.61173418783856
-15.088120851453422
-12.45136186770428
-11.47478446631571
-5.127031357289998
-2.9785610742351416
-5.127031357289998
-2.197299153124285
0.43945983062485694
-2.0019836728465705
-1.6113527122911422
1.416037232013428
0.14648661020828566
-1.2207217517357138
1.1230640115968566
1.2207217517357138
-0.7324330510414282
0.43945983062485694
1.7090104524299992
-0.04882887006942855
-0.04882887006942855
1.6113527122911422
0.537117570763714
-0.34180209048599985
0.9277485313191425
1.0254062714579995
-0.14648661020828566
0.537117570763714
1.416037232013428
0.14648661020828566
0.14648661020828566
1.2207217517357138
0.537117570763714
0.04882887006942855
0.8300907911802854
0.7324330510414282
0.04882887006942855
32.178225375753414
159.0356298161288
327.69054703593497
391.07042038605323
363.0426489662013
357.2808422980087
363.0426489662013
320.170901045243
232.57190814068818
151.22301060502022
109.23018234531166
83.15556572823682
54.346532387273975
40.186160067139696
35.596246280613414
22.021820401312276
12.256046387426567
14.306858930342566
10.205233844510566
2.392614633401999
4.638742656595713
6.005951018539712
0.04882887006942855
0.04882887006942855
3.7598229953459983
0.24414435034714274
-2.0019836728465705
1.7090104524299992
1.1230640115968566
-2.2949568932631417
0.04882887006942855
1.6113527122911422
-1.513694972152285
-1.1230640115968566
1.416037232013428
-0.43945983062485694
-1.7090104524299992
0.6347753109025711
0.34180209048599985
-1.7090104524299992
-0.24414435034714274
0.7324330510414282
-1.1230640115968566
-0.8300907911802854
0.6347753109025711
-0.43945983062485694
-1.2207217517357138
0.24414435034714274
0.04882887006942855
-1.1230640115968566
-0.14648661020828566
0.34180209048599985
-0.8300907911802854
-0.7324330510414282
0.24414435034714274
-0.43945983062485694
-0.9277485313191425
0.04882887006942855
-0.04882887006942855
-0.8300907911802854
-0.24414435034714274
0.04882887006942855
-0.6347753109025711
-0.537117570763714
0.04882887006942855
-0.34180209048599985
-0.6347753109025711
-0.04882887006942855
-0.14648661020828566
-0.7324330510414282
-0.34180209048599985
-0.04882887006942855
-8.349736781872283
-53.85824368657969
-154.25040054932478
-284.623483634699
-413.62935835812925
-491.5602349889372
-466.65751125352864
-363.14030670634014
-248.88075074387731
-166.65293354695964
-119.87487602044709
-88.33142595559625
-62.9404135194934
-47.21751735713741
-35.98687724116884
-24.072632944228275
-16.943617914091707
-14.013885709925994
-9.228656443121995
-5.224689097428855
-5.127031357289998
-3.8574807354848555
-1.1230640115968566
-1.3183794918745708
-1.8066681925688564
0.04882887006942855
0.34180209048599985
-0.7324330510414282
0.04882887006942855
1.0254062714579995
0.04882887006942855
0.04882887006942855
1.0254062714579995
0.537117570763714
-0.04882887006942855
0.7324330510414282
0.9277485313191425
0.14648661020828566
0.6347753109025711
1.0254062714579995
0.34180209048599985
0.24414435034714274
0.8300907911802854
0.537117570763714
0.34180209048599985
0.9277485313191425
0.9277485313191425
0.34180209048599985
0.6347753109025711
0.9277485313191425
0.43945983062485694
0.43945983062485694
17.236591134508277
58.25284199282826
78.95628290226597
89.21034561684596
172.51239795529108
287.55321583886473
338.3352407110704
358.1597619592584
359.5269703212024
287.74853131914244
187.94232089723047
145.65651941710536
155.42229343099106
157.57076371404594
119.48424505989166
74.07339589532312
58.54581521324483
47.60814831769284
25.24452582589456
18.701457236591136
22.021820401312276
10.79118028534371
3.076218814373999
9.521629663538567
6.591897459372854
-1.8066681925688564
2.5879301136797133
5.420004577706569
-1.9043259327077133
-1.3183794918745708
4.052796215762569
-0.24414435034714274
-3.076218814373999
2.197299153124285
1.2207217517357138
-3.2715342946517127
0.04882887006942855
2.0996414129854277
-2.0996414129854277
-1.416037232013428
2.0019836728465705
-0.6347753109025711
-2.2949568932631417
1.0254062714579995
0.537117570763714
-2.197299153124285
-0.04882887006942855
1.1230640115968566
-1.513694972152285
-1.1230640115968566
1.0254062714579995
-0.537117570763714
-1.513694972152285
0.537117570763714
0.24414435034714274
-1.416037232013428
-0.14648661020828566
0.537117570763714
-1.0254062714579995
-0.7324330510414282
0.43945983062485694
-0.537117570763714
-1.1230640115968566
0.14648661020828566
0.04882887006942855
-1.0254062714579995
-0.24414435034714274
0.14648661020828566
-0.7324330510414282
-4.345769436179141
-37.06111238269627
-154.54337376974135
-358.1597619592584
-530.8186465247578
-552.1080338750286
-439.31334401464864
-297.9049362935836
-198.48935683222706
-141.2619211108568
-102.00350957503625
-74.36636911573969
-57.178606851300835
-41.74868390936141
-27.881284809643702
-21.14290074006256
-16.357671473258563
-9.81460288395514
-6.884870679789426
-6.494239719233997
-3.662165255207141
-1.6113527122911422
-2.490272373540856
-1.6113527122911422
0.34180209048599985
-0.24414435034714274
-0.8300907911802854
0.7324330510414282
0.6347753109025711
-0.43945983062485694
0.24414435034714274
0.9277485313191425
0.04882887006942855
0.04882887006942855
0.9277485313191425
0.43945983062485694
0.04882887006942855
0.8300907911802854
0.7324330510414282
0.04882887006942855
0.6347753109025711
1.0254062714579995
0.34180209048599985
0.34180209048599985
0.9277485313191425
0.537117570763714
0.24414435034714274
0.8300907911802854
0.7324330510414282
0.14648661020828566
7.373159380483711
71.53429465171283
220.16937514305334
349.3705653467613
391.26573586633094
409.33241779201956
410.6019684138247
356.4995803768978
262.9434653238727
172.31708247501336
119.09361409933624
92.23773556115053
64.11230640115969
43.79949645227741
37.64705882352941
27.100022888532845
14.50217441062028
13.525597009231708
12.45136186770428
4.443427176317998
3.2715342946517127
6.298924238956283
2.0019836728465705
-0.7324330510414282
2.8809033340962844
1.8066681925688564
-1.8066681925688564
0.43945983062485694
1.9043259327077133
-1.416037232013428
-1.0254062714579995
1.513694972152285
-0.43945983062485694
-1.7090104524299992
0.7324330510414282
0.34180209048599985
-1.7090104524299992
-0.04882887006942855
0.8300907911802854
-1.1230640115968566
-0.8300907911802854
0.7324330510414282
-0.537117570763714
-1.3183794918745708
0.24414435034714274
0.04882887006942855
-3.36919203479057
-6.884870679789426
-6.201266498817426
-2.0019836728465705
1.513694972152285
2.9785610742351416
1.9043259327077133
0.6347753109025711
0.14648661020828566
-0.7324330510414282
-3.8574807354848555
-8.935683222705425
-8.545052262149996
-0.7324330510414282
6.494239719233997
7.959105821316854
4.052796215762569
1.3183794918745708
2.0996414129854277
1.2207217517357138
-0.34180209048599985
0.537117570763714
0.9277485313191425
-0.537117570763714
-0.34180209048599985
0.537117570763714
-0.34180209048599985
-0.8300907911802854
0.14648661020828566
0.04882887006942855
-0.8300907911802854
-0.14648661020828566
0.14648661020828566
-20.068665598535134
-106.69108110170139
-262.3575188830396
-416.75440604257267
-500.34943160143433
-481.40383001449607
-383.062485694667
-269.97482261387046
-181.88754100862135
-126.12497138933395
-93.99557488364995
-69.58113984893568
-49.26832990005341
-36.96345464255741
-27.68596932936599
-18.310826276035705
-13.13496604867628
-10.888838025482567
-6.6895551995117115
-3.8574807354848555
-4.052796215762569
-2.68558785381857
-0.6347753109025711
-0.9277485313191425
-1.2207217517357138
0.14648661020828566
0.24414435034714274
-0.43945983062485694
0.34180209048599985
0.9277485313191425
0.04882887006942855
0.14648661020828566
0.9277485313191425
0.43945983062485694
0.14648661020828566
0.8300907911802854
0.7324330510414282
0.24414435034714274
0.6347753109025711
0.9277485313191425
0.24414435034714274
0.24414435034714274
0.8300907911802854
0.43945983062485694
0.24414435034714274
0.8300907911802854
0.7324330510414282
0.24414435034714274
0.537117570763714
7.470817120622568
21.24055848020142
31.9829098954757
74.17105363546197
163.3325703822385
212.45441367208363
213.2356755931945
259.330128938735
312.16296635385675
298.1979095140002
274.1741054398413
270.46311131456474
248.0018310826276
197.90341039139392
137.25795376516365
98.19485770962082
82.7649347676814
57.27626459143969
32.764171816586554
31.103990234225986
26.025787747005417
10.10757610437171
9.326314183260854
13.427939269092851
3.8574807354848555
0.04882887006942855
6.6895551995117115
3.1738765545128556
-2.9785610742351416
2.197299153124285
3.662165255207141
-2.783245593957427
-0.8300907911802854
3.36919203479057
-1.1230640115968566
-2.5879301136797133
2.197299153124285
0.43945983062485694
-2.9785610742351416
0.43945983062485694
1.513694972152285
-2.2949568932631417
-0.9277485313191425
1.7090104524299992
-1.0254062714579995
-1.8066681925688564
1.1230640115968566
0.04882887006942855
-2.0019836728465705
0.14648661020828566
0.8300907911802854
-1.513694972152285
-0.7324330510414282
0.8300907911802854
-0.8300907911802854
-1.3183794918745708
0.537117570763714
-0.04882887006942855
-1.3183794918745708
0.04882887006942855
0.34180209048599985
-1.0254062714579995
-0.537117570763714
0.43945983062485694
-0.6347753109025711
-0.9277485313191425
0.14648661020828566
-0.14648661020828566
-0.9277485313191425
-0.04882887006942855
0.04882887006942855
-34.131380178530556
-145.3635461966888
-279.6429388876173
-367.7302204928664
-427.98504615854125
-449.2744335088121
-396.83222705424583
-296.63538567177847
-197.12214847028307
-133.7422751201648
-101.51522087434195
-72.80384527351796
-49.658960860608836
-40.479133287556266
-30.420386053253985
-17.236591134508277
-14.013885709925994
-13.232623788815136
-6.103608758678568
-3.36919203479057
-6.005951018539712
-2.8809033340962844
0.537117570763714
-2.0019836728465705
-2.0019836728465705
1.416037232013428
0.14648661020828566
-1.6113527122911422
1.0254062714579995
1.513694972152285
-0.9277485313191425
0.24414435034714274
1.9043259327077133
-0.04882887006942855
-0.34180209048599985
1.6113527122911422
0.6347753109025711
-0.537117570763714
0.9277485313191425
1.2207217517357138
-0.14648661020828566
0.537117570763714
1.513694972152285
0.14648661020828566
0.04882887006942855
1.2207217517357138
0.6347753109025711
0.04882887006942855
1.0254062714579995
1.1230640115968566
0.14648661020828566
0.537117570763714
13.81857022964828
46.240939955748836
77.97970550087739
135.40245670252537
254.25192645151446
343.21812771801325
339.311818112459
329.64370183871216
343.1204699778744
319.2919813839933
250.7362478065156
174.2702372777905
125.24605172808423
99.85503929198138
69.0928511482414
43.89715419241627
38.72129396505684
29.834439612420844
14.404516670481422
13.13496604867628
14.306858930342566
4.931715877012284
2.0996414129854277
7.080186160067139
2.9785610742351416
-1.7090104524299992
2.783245593957427
2.9785610742351416
-2.2949568932631417
-0.04882887006942855
2.783245593957427
-1.3183794918745708
-1.8066681925688564
2.0019836728465705
0.04882887006942855
-2.490272373540856
0.6347753109025711
1.0254062714579995
-2.0019836728465705
-0.537117570763714
1.3183794918745708
-1.1230640115968566
-1.416037232013428
1.0254062714579995
-0.14648661020828566
-1.7090104524299992
0.14648661020828566
0.43945983062485694
-1.416037232013428
-0.43945983062485694
0.6347753109025711
-0.8300907911802854
-1.0254062714579995
0.43945983062485694
-0.14648661020828566
-1.1230640115968566
0.04882887006942855
0.14648661020828566
-0.9277485313191425
-0.43945983062485694
0.24414435034714274
-0.7324330510414282
-0.7324330510414282
0.14648661020828566
-0.24414435034714274
-0.8300907911802854
-0.04882887006942855
0.04882887006942855
-0.7324330510414282
-0.34180209048599985
0.04882887006942855
-0.537117570763714
-0.6347753109025711
-0.04882887006942855
-0.34180209048599985
-0.6347753109025711
-0.14648661020828566
-0.14648661020828566
-3.36919203479057
-26.318760967421987
-93.80025940337224
-218.89982452124818
-386.5781643396658
-513.7285420004578
-511.5800717174029
-401.9104295414664
-273.4905012588693
-182.4734874494545
-130.5195696955825
-95.2651255054551
-68.70222018768597
-52.10040436408026
-38.62363622491798
-25.830472266727703
-18.994430457007706
-15.283436331731137
-9.71694514381628
-6.298924238956283
-5.908293278400855
-3.7598229953459983
-1.2207217517357138
-1.7090104524299992
-1.6113527122911422
0.14648661020828566
-0.04882887006942855
-0.8300907911802854
0.24414435034714274
0.8300907911802854
-0.04882887006942855
0.24414435034714274
1.0254062714579995
0.14648661020828566
-0.04882887006942855
0.8300907911802854
0.7324330510414282
0.14648661020828566
0.7324330510414282
0.9277485313191425
0.24414435034714274
0.34180209048599985
0.8300907911802854
0.24414435034714274
0.14648661020828566
0.8300907911802854
0.7324330510414282
0.34180209048599985
0.7324330510414282
0.9277485313191425
0.34180209048599985
7.080186160067139
49.85427634088655
121.14442664225223
145.3635461966888
138.13687342641336
181.69222552834364
220.16937514305334
199.7589074540322
202.10269321736476
236.47821774624248
230.5210955977722
209.23170824750133
212.5520714122225
213.91927977416648
192.2392614633402
145.3635461966888
102.29648279545282
85.20637827115281
62.54978255893797
33.545433737697415
29.2484931715877
28.564888990615703
11.963073167009995
7.080186160067139
13.916227969787137
6.103608758678568
-1.3183794918745708
5.810635538261997
5.224689097428855
-3.1738765545128556
0.6347753109025711
4.834058136873426
-2.0019836728465705
-2.392614633401999
3.662165255207141
0.04882887006942855
-3.5645075150682843
1.513694972152285
1.7090104524299992
-3.1738765545128556
-0.43945983062485694
2.2949568932631417
-1.7090104524299992
-1.9043259327077133
1.9043259327077133
-0.14648661020828566
-2.392614633401999
0.7324330510414282
0.8300907911802854
-2.0996414129854277
-0.43945983062485694
1.2207217517357138
-1.2207217517357138
-1.3183794918745708
1.0254062714579995
-0.24414435034714274
-1.6113527122911422
0.34180209048599985
0.34180209048599985
-1.416037232013428
-0.34180209048599985
0.6347753109025711
-0.9277485313191425
-0.9277485313191425
0.43945983062485694
-0.34180209048599985
-1.1230640115968566
0.04882887006942855
-16.45532921339742
-113.03883421072709
-304.0573739223316
-465.8762493324178
-496.8337529564355
-434.33279926756694
-344.5853360799573
-260.59967956054015
-187.94232089723047
-127.5898374914168
-91.45647364003968
-71.43663691157397
-49.658960860608836
-33.64309147783627
-28.27191577019913
-20.361638818951704
-10.888838025482567
-9.81460288395514
-9.130998702983138
-3.36919203479057
-2.197299153124285
-4.248111696040284
-1.3183794918745708
0.7324330510414282
-1.8066681925688564
-1.1230640115968566
1.513694972152285
0.04882887006942855
-1.0254062714579995
1.2207217517357138
1.0254062714579995
-0.7324330510414282
0.537117570763714
1.6113527122911422
-0.14648661020828566
0.04882887006942855
1.513694972152285
0.43945983062485694
-0.14648661020828566
1.1230640115968566
0.9277485313191425
-0.14648661020828566
0.7324330510414282
1.2207217517357138
0.04882887006942855
0.14648661020828566
1.2207217517357138
0.537117570763714
0.04882887006942855
0.9277485313191425
0.8300907911802854
0.04882887006942855
25.049210345616846
128.2734416723888
272.318608377203
331.5968566414893
322.6123445487144
349.66353856717785
369.9763485160601
318.803692683299
239.7985809109636
183.54772259098192
152.88319218738079
119.67956054016938
76.8078126192111
53.85824368657969
46.72922865644312
29.736781872281988
16.84596017395285
18.994430457007706
14.11154345006485
3.8574807354848555
6.103608758678568
8.05676356145571
0.43945983062485694
0.04882887006942855
4.834058136873426
0.6347753109025711
-2.490272373540856
2.197299153124285
1.7090104524299992
-2.68558785381857
0.04882887006942855
2.197299153124285
-1.7090104524299992
-1.513694972152285
1.9043259327077133
-0.34180209048599985
-2.197299153124285
0.8300907911802854
0.6347753109025711
-2.0019836728465705
-0.24414435034714274
1.1230640115968566
-1.2207217517357138
-1.1230640115968566
0.9277485313191425
-0.34180209048599985
-1.513694972152285
0.34180209048599985
0.24414435034714274
-1.416037232013428
-0.34180209048599985
0.537117570763714
-0.9277485313191425
-0.8300907911802854
0.43945983062485694
-0.34180209048599985
-1.0254062714579995
0.04882887006942855
0.04882887006942855
-0.9277485313191425
-0.24414435034714274
0.14648661020828566
-0.7324330510414282
-0.6347753109025711
0.04882887006942855
-0.34180209048599985
-0.7324330510414282
-0.04882887006942855
-0.04882887006942855
-0.7324330510414282
-0.24414435034714274
0.04882887006942855
-0.537117570763714
-0.537117570763714
0.04882887006942855
-0.34180209048599985
-0.6347753109025711
-0.14648661020828566
-0.24414435034714274
-2.9785610742351416
-26.514076447699704
-104.93324177920195
-258.4512092774853
-445.46578164339667
-547.71343556878
-497.81033035782406
-364.01922636758985
-241.1657892729076
-164.21149004348823
-119.58190280003052
-86.67124437323568
-63.526359960326545
-48.68238345922026
-34.52201113908598
-23.096055542839704
-18.11551079575799
-13.623254749370565
-8.05676356145571
-6.201266498817426
-5.615320057984283
-2.783245593957427
-1.416037232013428
-2.197299153124285
-1.0254062714579995
0.34180209048599985
-0.43945983062485694
-0.43945983062485694
0.8300907911802854
0.43945983062485694
-0.24414435034714274
0.7324330510414282
0.9277485313191425
-0.04882887006942855
0.24414435034714274
1.1230640115968566
0.43945983062485694
0.24414435034714274
0.9277485313191425
0.537117570763714
0.04882887006942855
0.7324330510414282
0.9277485313191425
0.34180209048599985
0.6347753109025711
1.0254062714579995
0.6347753109025711
0.43945983062485694
13.81857022964828
55.22545204852369
84.71808957045853
66.55374990463112
67.92095826657511
111.6716258487831
113.03883421072709
93.60494392309452
130.91020065613793
166.26230258640422
153.85976958876935
155.61760891126877
168.8014038300145
152.00427252613107
158.64499885557336
217.0443274586099
260.9903105210956
245.7557030594339
177.78591592278934
92.72602426184481
34.131380178530556
21.63118944075685
48.97535667963683
82.7649347676814
77.10078583962768
38.91660944533455
25.537499046311133
30.811017013809415
14.50217441062028
3.2715342946517127
14.013885709925994
10.10757610437171
-3.1738765545128556
3.662165255207141
8.44739452201114
-3.076218814373999
-2.2949568932631417
6.494239719233997
-0.24414435034714274
-4.834058136873426
3.466849774929427
2.392614633401999
-4.834058136873426
0.24414435034714274
3.662165255207141
-2.9785610742351416
-2.2949568932631417
3.2715342946517127
-0.7324330510414282
-3.466849774929427
1.8066681925688564
1.1230640115968566
-3.2715342946517127
0.04882887006942855
2.0996414129854277
-2.0019836728465705
-1.513694972152285
1.9043259327077133
-0.537117570763714
-2.2949568932631417
0.9277485313191425
0.537117570763714
-2.197299153124285
-0.14648661020828566
1.1230640115968566
-1.416037232013428
-1.0254062714579995
1.0254062714579995
-0.43945983062485694
-1.513694972152285
-5.615320057984283
-47.80346379797055
-171.63347829404134
-342.53452353704125
-445.27046616311895
-442.6337071793698
-393.41420614938585
-331.5968566414893
-261.28328374151215
-187.74700541695276
-126.22262912947281
-91.45647364003968
-69.9717708094911
-47.51049057755398
-33.64309147783627
-28.467231250476843
-18.994430457007706
-10.79118028534371
-10.693522545204852
-8.44739452201114
-2.783245593957427
-2.8809033340962844
-4.052796215762569
-0.43945983062485694
0.43945983062485694
-1.9043259327077133
-0.34180209048599985
1.513694972152285
-0.43945983062485694
-0.7324330510414282
1.513694972152285
0.6347753109025711
-0.6347753109025711
1.0254062714579995
1.2207217517357138
-0.43945983062485694
0.34180209048599985
1.513694972152285
0.04882887006942855
-0.04882887006942855
1.3183794918745708
0.7324330510414282
-0.14648661020828566
0.8300907911802854
0.9277485313191425
-0.04882887006942855
0.43945983062485694
1.1230640115968566
0.24414435034714274
0.14648661020828566
0.9277485313191425
0.537117570763714
0.04882887006942855
17.82253757534142
96.04638742656596
213.33333333333334
271.14671549553674
281.4984359502556
315.77630273899445
325.05378805218584
284.33051041428246
256.10742351415274
247.8065156023499
224.36865796902418
171.0475318532082
108.74189364461738
75.53826199740597
61.86617837796597
40.08850232700084
25.537499046311133
25.830472266727703
18.11551079575799
6.884870679789426
9.033340962844282
9.619287403677424
1.2207217517357138
1.2207217517357138
5.615320057984283
0.6347753109025711
-2.0019836728465705
2.8809033340962844
1.6113527122911422
-2.68558785381857
0.43945983062485694
2.197299153124285
-1.9043259327077133
-1.2207217517357138
2.0019836728465705
-0.7324330510414282
-2.197299153124285
1.0254062714579995
0.43945983062485694
-2.0996414129854277
0.04882887006942855
1.0254062714579995
-1.416037232013428
-0.9277485313191425
1.0254062714579995
-0.537117570763714
-1.416037232013428
0.537117570763714
0.04882887006942855
-32.08056763561456
-118.5076676585031
-193.99710078583962
-223.58739604791333
-260.79499504081787
-272.318608377203
-211.7708094911116
-147.21904325932707
-86.1829556725414
48.19409475852598
224.17334248874647
320.75684748607614
288.43213550011444
193.02052338445105
127.68749523155566
97.80422674906538
64.20996414129854
41.5533684290837
40.38147554741741
29.443808651865414
12.646677347981994
14.11154345006485
14.990463111314565
3.36919203479057
2.2949568932631417
8.349736781872283
1.9043259327077133
-2.392614633401999
3.9551384756237127
2.783245593957427
-3.36919203479057
0.537117570763714
-9.326314183260854
-92.14007782101167
-262.9434653238727
-442.4383916990921
-531.1116197451744
-491.26726176852065
-370.07400625619897
-255.42381933318075
-178.37186236362248
-122.90226596475166
-88.23376821545739
-69.58113984893568
-50.24490730144198
-32.95948729686427
-26.514076447699704
-20.654612039368278
-11.377126726176853
-8.642710002288853
-8.838025482566568
-4.052796215762569
-1.7090104524299992
-3.8574807354848555
-2.197299153124285
0.7324330510414282
-0.8300907911802854
-1.3183794918745708
1.1230640115968566
0.537117570763714
-1.1230640115968566
0.7324330510414282
1.416037232013428
-0.43945983062485694
0.04882887006942855
1.513694972152285
0.24414435034714274
-0.14648661020828566
1.3183794918745708
0.8300907911802854
-0.14648661020828566
0.8300907911802854
1.2207217517357138
0.04882887006942855
0.34180209048599985
3.8574807354848555
8.349736781872283
7.959105821316854
26.123445487144274
95.36278324559396
156.1058976119631
151.12535286488136
153.17616540779736
184.13366903181506
169.87563897154192
144.6799420157168
167.92248416876478
179.64141298542762
162.6489662012665
176.02807660028992
194.58304722667276
176.41870756084535
159.62157625696193
158.84031433585108
151.80895704585336
126.9062333104448
85.59700923170824
63.526359960326545
62.84275577935454
41.065079728389414
17.627222095063708
22.998397802700847
20.84992751964599
3.076218814373999
5.420004577706569
12.84199282825971
0.9277485313191425
-2.5879301136797133
7.470817120622568
2.68558785381857
-5.127031357289998
2.68558785381857
4.345769436179141
-4.345769436179141
-1.2207217517357138
4.541084916456855
-1.9043259327077133
-3.466849774929427
3.1738765545128556
0.537117570763714
-3.9551384756237127
1.0254062714579995
2.197299153124285
-3.076218814373999
-1.0254062714579995
2.490272373540856
-1.416037232013428
-2.392614633401999
1.7090104524299992
0.14648661020828566
-2.5879301136797133
0.43945983062485694
1.2207217517357138
-2.0019836728465705
-0.7324330510414282
1.416037232013428
-0.9277485313191425
-1.513694972152285
0.9277485313191425
-0.04882887006942855
-1.8066681925688564
0.04882887006942855
0.537117570763714
-1.416037232013428
-0.537117570763714
0.7324330510414282
-0.7324330510414282
-23.096055542839704
-97.90188448920424
-217.63027389944304
-355.9136339360647
-475.6420233463035
-503.27916380560004
-421.4419775692378
-296.8307011520562
-194.87602044708933
-136.6720073243305
-102.00350957503625
-72.21789883268482
-52.881666285191116
-41.84634164950027
-28.66254673075456
-18.40848401617456
-15.869382772564279
-11.767757686732281
-5.810635538261997
-5.322346837567712
-5.420004577706569
-1.6113527122911422
-0.7324330510414282
-2.392614633401999
-0.537117570763714
1.0254062714579995
-0.6347753109025711
-0.537117570763714
1.3183794918745708
0.34180209048599985
-0.537117570763714
1.1230640115968566
1.1230640115968566
-0.24414435034714274
0.43945983062485694
1.3183794918745708
0.04882887006942855
0.04882887006942855
1.3183794918745708
0.6347753109025711
0.04882887006942855
0.8300907911802854
0.8300907911802854
0.04882887006942855
0.43945983062485694
1.0254062714579995
0.24414435034714274
0.34180209048599985
1.0254062714579995
0.6347753109025711
0.14648661020828566
0.8300907911802854
0.8300907911802854
0.14648661020828566
29.834439612420844
136.57434958419165
258.646524757763
285.1117723353933
266.84977492942704
281.9867246509499
271.2443732356756
228.76325627527277
228.37262531471734
250.15030136568245
230.81406881818876
170.75455863279163
114.50370031280995
91.65178912031739
77.00312809948882
47.412832837415124
30.811017013809415
31.68993667505913
20.16632333867399
7.666132600900283
12.158388647287708
11.08415350576028
0.43945983062485694
2.392614633401999
7.177843900205997
-0.04882887006942855
-2.0019836728465705
4.248111696040284
1.3183794918745708
-3.466849774929427
1.416037232013428
2.392614633401999
-2.9785610742351416
-0.8300907911802854
2.5879301136797133
-1.3183794918745708
-2.2949568932631417
1.8066681925688564
0.14648661020828566
-2.5879301136797133
0.537117570763714
1.2207217517357138
-2.0996414129854277
-0.7324330510414282
1.3183794918745708
-1.0254062714579995
-1.513694972152285
0.9277485313191425
-0.04882887006942855
-1.7090104524299992
0.14648661020828566
0.537117570763714
-1.416037232013428
-0.537117570763714
0.7324330510414282
-0.7324330510414282
-1.1230640115968566
0.43945983062485694
-0.14648661020828566
-1.2207217517357138
0.04882887006942855
0.24414435034714274
-1.0254062714579995
-0.43945983062485694
0.34180209048599985
-0.537117570763714
-0.7324330510414282
0.14648661020828566
-0.24414435034714274
-8.252079041733426
-35.4009308003357
-93.11665522240024
-203.66521705958647
-352.4956130312047
-445.75875486381324
-436.9695582513161
-376.910048065919
-306.498817425803
-236.77119096665905
-171.63347829404134
-116.84748607614252
-83.4485389486534
-64.20996414129854
-44.67841611352712
-30.71335927367056
-25.439841306172273
-18.310826276035705
-10.302891584649425
-9.130998702983138
-7.861448081177996
-2.9785610742351416
-2.197299153124285
-3.7598229953459983
-1.1230640115968566
0.537117570763714
-1.416037232013428
-0.7324330510414282
1.416037232013428
0.14648661020828566
-0.7324330510414282
1.0254062714579995
0.9277485313191425
-0.43945983062485694
0.6347753109025711
1.3183794918745708
0.04882887006942855
0.34180209048599985
1.416037232013428
0.43945983062485694
-0.04882887006942855
1.0254062714579995
0.9277485313191425
0.04882887006942855
0.7324330510414282
1.1230640115968566
0.14648661020828566
0.24414435034714274
1.0254062714579995
0.537117570763714
0.04882887006942855
6.39658197909514
34.0337224383917
66.3584344243534
70.65537499046312
97.51125352864881
173.3913176165408
205.9113450827802
189.11421377889678
199.66124971389334
201.90737773708705
163.62554360265506
154.05508506904707
173.00068665598536
161.08644235904478
149.17219806210423
166.35996032654307
174.2702372777905
155.42229343099106
122.70695048447395
102.1011673151751
98.48783093003739
74.07339589532312
38.1353475242237
32.37354085603113
31.9829098954757
12.74433508812085
7.666132600900283
16.16235599298085
6.884870679789426
-1.9043259327077133
6.787212939650568
6.103608758678568
-3.9551384756237127
0.7324330510414282
5.810635538261997
-2.392614633401999
-2.8809033340962844
4.345769436179141
0.14648661020828566
-4.150453955901427
2.0019836728465705
2.0996414129854277
-3.7598229953459983
-0.43945983062485694
2.783245593957427
-2.0019836728465705
-2.197299153124285
2.2949568932631417
-0.14648661020828566
-2.783245593957427
1.0254062714579995
1.1230640115968566
-2.392614633401999
-0.34180209048599985
1.6113527122911422
-1.416037232013428
-1.513694972152285
1.2207217517357138
-0.24414435034714274
-1.9043259327077133
0.43945983062485694
0.537117570763714
-1.6113527122911422
-0.34180209048599985
0.8300907911802854
-1.0254062714579995
-1.1230640115968566
0.537117570763714
-0.34180209048599985
-1.3183794918745708
0.14648661020828566
0.14648661020828566
-39.014267185473415
-161.08644235904478
-307.5730525673304
-403.6682688639658
-453.7666895551995
-446.5400167849241
-372.7107652399481
-269.77950713359274
-177.78591592278934
-122.8046082246128
-94.48386358434425
-67.23735408560312
-46.14328221560998
-38.03768978408484
-27.97894254978256
-15.674067292286564
-13.330281528953995
-12.158388647287708
-5.127031357289998
-3.2715342946517127
-5.71297779812314
-2.2949568932631417
0.6347753109025711
-2.0996414129854277
-1.7090104524299992
1.6113527122911422
0.04882887006942855
-1.416037232013428
1.2207217517357138
1.3183794918745708
-1.0254062714579995
0.34180209048599985
1.7090104524299992
-0.14648661020828566
-0.04882887006942855
1.6113527122911422
0.43945983062485694
-0.537117570763714
1.1230640115968566
1.2207217517357138
-0.24414435034714274
0.537117570763714
1.416037232013428
0.04882887006942855
0.04882887006942855
1.3183794918745708
0.6347753109025711
0.04882887006942855
0.9277485313191425
0.9277485313191425
0.04882887006942855
19.48271915770199
104.93324177920195
231.4000152590219
290.3852903028916
288.62745098039215
309.72152285038527
312.4559395742733
263.8223849851224
234.23208972304874
233.06019684138246
211.28252079041732
162.1606775005722
110.89036392767224
85.10872053101396
73.09681849393453
47.31517509727627
27.97894254978256
28.564888990615703
20.947585259784848
7.373159380483711
9.619287403677424
11.47478446631571
1.6113527122911422
0.8300907911802854
6.6895551995117115
1.2207217517357138
-2.68558785381857
3.076218814373999
2.2949568932631417
-3.1738765545128556
0.24414435034714274
2.8809033340962844
-2.0996414129854277
-1.7090104524299992
2.490272373540856
-0.43945983062485694
-2.68558785381857
1.1230640115968566
0.8300907911802854
-2.490272373540856
-0.14648661020828566
1.513694972152285
-1.513694972152285
-1.3183794918745708
1.3183794918745708
-0.43945983062485694
-1.8066681925688564
0.537117570763714
0.34180209048599985
-1.7090104524299992
-0.24414435034714274
0.7324330510414282
-1.1230640115968566
-0.9277485313191425
0.6347753109025711
-0.34180209048599985
-1.2207217517357138
0.24414435034714274
0.04882887006942855
-1.1230640115968566
-0.34180209048599985
0.24414435034714274
-0.8300907911802854
-0.6347753109025711
0.24414435034714274
-0.34180209048599985
-0.8300907911802854
0.04882887006942855
-0.04882887006942855
-0.8300907911802854
-0.24414435034714274
0.04882887006942855
-0.6347753109025711
-0.6347753109025711
0.04882887006942855
-0.43945983062485694
-0.7324330510414282
-6.6895551995117115
-56.1043717097734
-204.3488212405585
-417.6333257038224
-550.1548790722514
-521.2481879911497
-395.17204547188527
-269.1935606927596
-185.89150835431448
-132.96101319905395
-94.28854810406654
-70.65537499046312
-54.24887464713512
-37.256427862973986
-25.830472266727703
-21.14290074006256
-14.599832150759136
-8.44739452201114
-7.666132600900283
-6.201266498817426
-2.392614633401999
-2.0019836728465705
-2.8809033340962844
-0.537117570763714
0.24414435034714274
-1.1230640115968566
-0.24414435034714274
1.2207217517357138
0.04882887006942855
-0.24414435034714274
1.0254062714579995
0.6347753109025711
-0.24414435034714274
0.8300907911802854
1.1230640115968566
0.04882887006942855
0.24414435034714274
1.0254062714579995
0.24414435034714274
0.14648661020828566
1.1230640115968566
0.7324330510414282
0.14648661020828566
0.7324330510414282
12.646677347981994
36.67048142214084
47.0222018768597
72.41321431296254
147.31670099946592
190.6767376211185
171.34050507362477
176.90699626153963
200.24719615472648
181.49691004806593
173.29365987640193
201.51674677653162
195.8525978484779
164.89509422446022
161.57473105973907
151.32066834515908
113.82009613183794
96.24170290684367
96.82764934767681
80.2258335240711
60.59662775616083
51.61211566338598
52.881666285191116
57.27626459143969
43.40886549172198
34.52201113908598
44.09246967269398
29.541466392004274
6.005951018539712
13.427939269092851
16.943617914091707
-0.537117570763714
0.6347753109025711
11.47478446631571
0.6347753109025711
-5.224689097428855
6.201266498817426
3.466849774929427
-6.201266498817426
1.2207217517357138
5.224689097428855
-4.248111696040284
-2.392614633401999
4.931715877012284
-1.1230640115968566
-4.345769436179141
2.9785610742351416
1.416037232013428
-4.443427176317998
0.34180209048599985
2.8809033340962844
-2.8809033340962844
-1.7090104524299992
2.8809033340962844
-0.9277485313191425
-2.8809033340962844
1.7090104524299992
0.7324330510414282
-2.8809033340962844
0.04882887006942855
1.6113527122911422
-2.0019836728465705
-1.2207217517357138
1.6113527122911422
-0.7324330510414282
-1.9043259327077133
0.9277485313191425
0.34180209048599985
-1.9043259327077133
-0.04882887006942855
0.8300907911802854
-1.416037232013428
-0.9277485313191425
0.8300907911802854
-0.537117570763714
-1.3183794918745708
0.34180209048599985
-0.04882887006942855
-42.236972610055695
-170.75455863279163
-324.37018387121384
-422.5162127107652
-462.6535439078355
-439.6063172350652
-358.6480506599527
-257.5722896162356
-170.26626993209734
-118.70298313878081
-91.35881589990082
-64.60059510185397
-44.48310063324941
-36.768139162279695
-26.709391927977418
-14.892805371175708
-12.939650568398566
-11.767757686732281
-4.931715877012284
-3.36919203479057
-5.517662317845426
-2.0019836728465705
0.537117570763714
-2.0996414129854277
-1.513694972152285
1.6113527122911422
0.04882887006942855
-1.3183794918745708
1.2207217517357138
1.1230640115968566
-0.8300907911802854
0.6347753109025711
1.9043259327077133
-0.04882887006942855
0.04882887006942855
1.6113527122911422
0.34180209048599985
-0.34180209048599985
1.2207217517357138
1.1230640115968566
-0.14648661020828566
0.537117570763714
1.2207217517357138
0.04882887006942855
0.04882887006942855
1.2207217517357138
0.537117570763714
0.04882887006942855
35.49858854047456
144.48462653543908
236.6735332265202
208.35278858625162
145.94949263752193
138.0392156862745
142.72678721293966
170.07095445181963
244.77912565804533
289.11573968108644
266.65445944914933
227.4937056534676
202.10269321736476
182.96177615014878
142.23849851224537
86.57358663309682
60.79194323643854
54.15121690699626
32.471198596169984
18.40848401617456
23.19371328297856
15.967040512703136
3.076218814373999
7.763790341039139
9.912260624093996
-0.537117570763714
0.04882887006942855
6.494239719233997
0.14648661020828566
-3.2715342946517127
3.466849774929427
2.0019836728465705
-3.7598229953459983
0.537117570763714
2.9785610742351416
-2.5879301136797133
-1.6113527122911422
2.68558785381857
-0.8300907911802854
-2.783245593957427
1.513694972152285
0.7324330510414282
-2.68558785381857
0.04882887006942855
1.513694972152285
-1.8066681925688564
-1.1230640115968566
1.513694972152285
-0.7324330510414282
-1.9043259327077133
0.7324330510414282
0.24414435034714274
-1.8066681925688564
-0.04882887006942855
0.8300907911802854
-1.3183794918745708
-0.8300907911802854
0.8300907911802854
-0.537117570763714
-1.2207217517357138
0.34180209048599985
0.04882887006942855
-1.3183794918745708
-0.14648661020828566
0.34180209048599985
-0.9277485313191425
-0.6347753109025711
0.34180209048599985
-0.43945983062485694
-0.9277485313191425
0.04882887006942855
-4.248111696040284
-53.56527046616312
-176.71168078126192
-307.3777370870527
-391.07042038605323
-443.8056000610361
-443.21965362020296
-371.8318455786984
-267.53337911039904
-175.8327611200122
-122.70695048447395
-93.80025940337224
-65.8701457236591
-46.04562447547112
-38.03768978408484
-26.807049668116274
-15.283436331731137
-13.720912489509422
-11.767757686732281
-4.931715877012284
-3.9551384756237127
-5.810635538261997
-1.9043259327077133
0.14648661020828566
-2.392614633401999
-1.1230640115968566
1.6113527122911422
-0.43945983062485694
-1.3183794918745708
1.416037232013428
0.9277485313191425
-0.8300907911802854
0.8300907911802854
1.6113527122911422
-0.43945983062485694
0.04882887006942855
1.6113527122911422
0.24414435034714274
-0.34180209048599985
1.2207217517357138
0.9277485313191425
-0.14648661020828566
0.7324330510414282
1.2207217517357138
-0.04882887006942855
0.24414435034714274
1.3183794918745708
0.537117570763714
0.14648661020828566
10.693522545204852
42.04165712977798
66.84672312504769
70.36240177004655
113.82009613183794
189.01655603875793
202.39566643778133
185.50087739375905
206.7902647440299
212.35675593194478
189.21187151903564
201.22377355611505
218.80216678110932
194.38773174639505
171.2428473334859
164.0161745632105
145.65651941710536
118.70298313878081
89.89394979781795
76.12420843823911
73.78042267490653
48.19409475852598
22.510109102006563
25.92813000686656
22.60776684214542
4.834058136873426
6.884870679789426
13.525597009231708
1.6113527122911422
-1.9043259327077133
7.666132600900283
2.783245593957427
-4.736400396734569
2.783245593957427
4.248111696040284
-4.150453955901427
-1.0254062714579995
4.345769436179141
-1.9043259327077133
-3.2715342946517127
3.1738765545128556
0.537117570763714
-3.8574807354848555
1.0254062714579995
2.0996414129854277
-2.9785610742351416
-1.0254062714579995
2.392614633401999
-1.416037232013428
-2.2949568932631417
1.7090104524299992
0.14648661020828566
-2.490272373540856
0.43945983062485694
1.1230640115968566
-2.0019836728465705
-0.7324330510414282
1.3183794918745708
-1.0254062714579995
-1.6113527122911422
0.8300907911802854
-0.04882887006942855
-1.7090104524299992
0.14648661020828566
0.537117570763714
-1.3183794918745708
-0.537117570763714
0.7324330510414282
-6.005951018539712
-44.67841611352712
-137.3556115053025
-274.5647364003967
-424.078736552987
-511.8730449378195
-478.5717555504692
-364.605172808423
-246.14633401998933
-164.6997787441825
-119.87487602044709
-88.33142595559625
-62.64744029907683
-47.60814831769284
-36.0845349813077
-23.58434424353399
-16.943617914091707
-14.50217441062028
-9.033340962844282
-5.0293736171511405
-5.517662317845426
-3.8574807354848555
-0.8300907911802854
-1.416037232013428
-1.8066681925688564
0.24414435034714274
0.34180209048599985
-0.9277485313191425
0.24414435034714274
1.1230640115968566
-0.14648661020828566
0.04882887006942855
1.3183794918745708
0.43945983062485694
-0.04882887006942855
1.0254062714579995
0.9277485313191425
-0.04882887006942855
0.537117570763714
0.9277485313191425
0.04882887006942855
0.24414435034714274
1.0254062714579995
0.43945983062485694
0.04882887006942855
0.8300907911802854
0.8300907911802854
0.24414435034714274
0.6347753109025711
0.9277485313191425
0.34180209048599985
0.43945983062485694
35.49858854047456
144.6799420157168
254.44724193179218
289.7016861219196
320.46387426565957
367.339589532311
357.4761577782864
305.131609063859
254.8378728923476
209.3293659876402
164.79743648432137
112.84351873044938
72.31555657282368
58.8387884336614
45.16670481422141
25.439841306172273
21.045242999923705
20.654612039368278
9.42397192339971
5.0293736171511405
9.619287403677424
4.834058136873426
-0.7324330510414282
3.662165255207141
3.8574807354848555
-2.0019836728465705
0.04882887006942855
3.1738765545128556
-1.1230640115968566
-1.9043259327077133
2.197299153124285
0.24414435034714274
-2.490272373540856
0.7324330510414282
1.2207217517357138
-2.0996414129854277
-0.6347753109025711
1.416037232013428
-1.1230640115968566
-1.513694972152285
1.0254062714579995
-0.04882887006942855
-1.7090104524299992
0.24414435034714274
-1.8066681925688564
-59.22941939421683
-215.97009231708248
-359.62462806134124
-364.50751506828414
-281.6937514305333
-148.7815671015488
58.44815747310597
253.37300679026475
319.58495460440986
256.595712214847
156.9848172732128
102.29648279545282
80.03051804379339
51.51445792324712
34.91264209964141
35.303273060196844
23.682001983672848
9.521629663538567
12.84199282825971
12.353704127565424
1.513694972152285
2.490272373540856
7.568474860761425
0.6347753109025711
-15.674067292286564
-55.127794308384836
-137.8439002059968
-272.318608377203
-420.9536888685435
-494.88059815365835
-458.1612878614481
-353.5698481727321
-246.53696498054475
-176.80933852140078
-128.17578393224994
-86.47592889295797
-64.9912260624094
-52.881666285191116
-34.0337224383917
-22.314793621728846
-21.24055848020142
-14.209201190203707
-5.908293278400855
-7.568474860761425
-7.177843900205997
-0.9277485313191425
-1.416037232013428
-4.052796215762569
-0.04882887006942855
1.513694972152285
-1.9043259327077133
-0.537117570763714
2.2949568932631417
-0.24414435034714274
-1.1230640115968566
1.8066681925688564
0.9277485313191425
-1.1230640115968566
0.9277485313191425
1.7090104524299992
-0.537117570763714
0.14648661020828566
1.9043259327077133
0.14648661020828566
-0.24414435034714274
1.416037232013428
0.8300907911802854
-0.34180209048599985
0.9277485313191425
14.599832150759136
43.89715419241627
74.85465781643397
137.3556115053025
228.95857175555048
254.6425574120699
223.97802700846876
227.88433661402303
231.20469977874419
192.2392614633402
175.24681467917907
181.69222552834364
153.85976958876935
122.90226596475166
128.9570458533608
146.82841229877164
146.04715037766078
112.5505455100328
76.90547035934996
67.0420386053254
49.85427634088655
23.389028763256274
21.728847180895706
24.072632944228275
8.252079041733426
3.8574807354848555
12.256046387426567
4.931715877012284
-2.8809033340962844
5.0293736171511405
5.127031357289998
-3.8574807354848555
0.04882887006942855
5.0293736171511405
-2.0996414129854277
-2.8809033340962844
3.662165255207141
0.14648661020828566
-3.9551384756237127
1.513694972152285
2.0019836728465705
-3.2715342946517127
-0.537117570763714
2.5879301136797133
-1.7090104524299992
-2.0996414129854277
2.0019836728465705
-0.04882887006942855
-2.68558785381857
0.6347753109025711
1.0254062714579995
-2.197299153124285
-0.43945983062485694
1.416037232013428
-1.2207217517357138
-1.416037232013428
1.1230640115968566
-0.14648661020828566
-1.7090104524299992
0.24414435034714274
0.43945983062485694
-1.513694972152285
-0.43945983062485694
0.7324330510414282
-0.9277485313191425
-1.0254062714579995
0.537117570763714
-0.24414435034714274
-24.267948424505988
-94.97215228503853
-185.50087739375905
-281.20546272983904
-386.1875333791104
-439.2156862745098
-407.4769207293812
-333.55001144426643
-255.3261615930419
-192.14160372320134
-141.45723659113452
-96.24170290684367
-68.11627374685283
-54.24887464713512
-37.64705882352941
-24.17029068436713
-21.045242999923705
-15.967040512703136
-7.861448081177996
-7.080186160067139
-7.470817120622568
-2.2949568932631417
-0.8300907911802854
-3.36919203479057
-1.1230640115968566
1.2207217517357138
-1.1230640115968566
-1.1230640115968566
1.7090104524299992
0.537117570763714
-1.0254062714579995
1.1230640115968566
1.3183794918745708
-0.537117570763714
0.43945983062485694
1.6113527122911422
0.04882887006942855
-0.04882887006942855
1.416037232013428
0.6347753109025711
-0.24414435034714274
1.0254062714579995
1.2207217517357138
-0.04882887006942855
0.43945983062485694
1.2207217517357138
0.14648661020828566
0.04882887006942855
1.0254062714579995
0.537117570763714
0.04882887006942855
0.7324330510414282
0.8300907911802854
0.04882887006942855
11.279468986037996
71.72961013199054
172.31708247501336
223.97802700846876
230.5210955977722
270.951400015259
301.61593041886016
283.3539330128939
279.3499656672007
286.2836652170596
253.4706645304036
191.06736858167392
132.57038223849852
101.80819409475852
85.98764019226367
57.27626459143969
34.717326619363696
33.252460517280845
24.853894865339132
10.009918364232853
11.181811245899137
13.037308308537423
2.783245593957427
1.3183794918745708
7.177843900205997
2.0019836728465705
-2.490272373540856
3.1738765545128556
2.68558785381857
-3.076218814373999
0.04882887006942855
2.9785610742351416
-1.9043259327077133
-1.8066681925688564
2.392614633401999
-0.24414435034714274
-2.68558785381857
1.1230640115968566
0.9277485313191425
-2.490272373540856
-0.34180209048599985
1.513694972152285
-1.416037232013428
-1.3183794918745708
1.3183794918745708
-0.34180209048599985
-1.8066681925688564
0.537117570763714
0.43945983062485694
-1.6113527122911422
-0.34180209048599985
0.7324330510414282
-1.1230640115968566
-1.0254062714579995
0.6347753109025711
-0.34180209048599985
-1.2207217517357138
0.14648661020828566
0.14648661020828566
-1.1230640115968566
-0.24414435034714274
0.34180209048599985
-0.8300907911802854
-0.8300907911802854
0.24414435034714274
-0.34180209048599985
-0.9277485313191425
0.04882887006942855
0.04882887006942855
-0.8300907911802854
-0.24414435034714274
0.04882887006942855
-9.521629663538567
-56.59266041046769
-150.3440909437705
-264.0177004654002
-383.35545891508355
-474.66544594491495
-473.49355306324867
-381.4023041123064
-263.9200427252613
-174.9538414587625
-125.05073624780651
-92.33539330128939
-65.28419928282597
-49.17067215991455
-38.1353475242237
-25.146868085755703
-17.334248874647134
-14.990463111314565
-9.912260624093996
-5.127031357289998
-5.322346837567712
-4.345769436179141
-1.0254062714579995
-1.2207217517357138
-2.197299153124285
0.04882887006942855
0.537117570763714
-0.9277485313191425
-0.04882887006942855
1.2207217517357138
-0.04882887006942855
-0.14648661020828566
1.3183794918745708
0.7324330510414282
-0.14648661020828566
0.8300907911802854
1.0254062714579995
0.04882887006942855
0.43945983062485694
1.2207217517357138
0.14648661020828566
0.04882887006942855
0.9277485313191425
0.6347753109025711
0.04882887006942855
0.7324330510414282
0.8300907911802854
0.14648661020828566
8.935683222705425
50.24490730144198
102.68711375600824
101.12458991378652
82.7649347676814
118.41000991836424
138.7228198672465
105.7145037003128
103.4683756771191
128.07812619211109
115.28496223392081
108.54657816433966
134.62119478141452
127.68749523155566
95.16746776531625
91.74944686045625
87.7454795147631
67.23735408560312
78.85862516212711
111.08567940794995
116.6521705958648
116.35919737544823
128.56641489280537
130.12893873502708
115.18730449378195
95.36278324559396
95.2651255054551
106.59342336156253
78.27267872129397
35.79156176089113
34.32669565880827
34.32669565880827
9.81460288395514
7.275501640344854
19.18974593728542
5.615320057984283
-3.662165255207141
9.228656443121995
6.494239719233997
-6.201266498817426
1.8066681925688564
7.275501640344854
-4.248111696040284
-3.076218814373999
6.201266498817426
-0.6347753109025711
-5.322346837567712
3.466849774929427
2.392614633401999
-5.127031357289998
0.14648661020828566
3.7598229953459983
-3.2715342946517127
-2.392614633401999
3.466849774929427
-0.7324330510414282
-3.5645075150682843
1.9043259327077133
1.2207217517357138
-3.2715342946517127
0.04882887006942855
2.197299153124285
-2.0996414129854277
-1.6113527122911422
1.9043259327077133
-0.6347753109025711
-2.2949568932631417
1.0254062714579995
0.537117570763714
-2.197299153124285
-0.04882887006942855
1.2207217517357138
-22.314793621728846
-100.14801251239795
-209.23170824750133
-304.35034714274815
-389.89852750438695
-451.81353475242236
-439.1180285343709
-351.4213778896773
-240.4821850919356
-159.42626077668422
-117.14045929655909
-85.49935149156939
-58.350499732967116
-45.85030899519341
-36.0845349813077
-21.728847180895706
-15.576409552147707
-14.990463111314565
-8.545052262149996
-3.8574807354848555
-6.005951018539712
-4.248111696040284
0.04882887006942855
-1.6113527122911422
-2.68558785381857
0.8300907911802854
0.7324330510414282
-1.6113527122911422
0.34180209048599985
1.7090104524299992
-0.6347753109025711
-0.24414435034714274
1.7090104524299992
0.34180209048599985
-0.43945983062485694
1.416037232013428
1.1230640115968566
-0.537117570763714
0.6347753109025711
1.416037232013428
-0.04882887006942855
0.14648661020828566
1.513694972152285
0.537117570763714
-0.04882887006942855
0.9277485313191425
0.9277485313191425
0.04882887006942855
9.42397192339971
59.71770809491112
143.60570687418937
192.53223468375677
221.04829480430305
283.0609597924773
317.33882658121615
299.4674601358053
296.7330434119173
304.9362935835813
277.787441824979
210.2082856488899
134.52353704127566
92.33539330128939
74.17105363546197
49.56130312046998
32.178225375753414
30.71335927367056
21.92416266117342
9.42397192339971
10.79118028534371
11.181811245899137
2.392614633401999
1.8066681925688564
6.298924238956283
1.3183794918745708
-1.8066681925688564
2.9785610742351416
1.8066681925688564
-2.68558785381857
0.43945983062485694
2.2949568932631417
-1.8066681925688564
-1.3183794918745708
2.0019836728465705
-0.537117570763714
-2.197299153124285
0.9277485313191425
0.537117570763714
-2.0996414129854277
-0.04882887006942855
1.1230640115968566
-1.416037232013428
-1.0254062714579995
1.0254062714579995
-0.537117570763714
-1.513694972152285
0.43945983062485694
0.04882887006942855
-1.513694972152285
-0.14648661020828566
0.537117570763714
-1.0254062714579995
-0.7324330510414282
0.537117570763714
-0.43945983062485694
-1.0254062714579995
0.14648661020828566
-0.04882887006942855
-1.1230640115968566
-0.24414435034714274
0.14648661020828566
-0.7324330510414282
-0.6347753109025711
0.14648661020828566
-0.34180209048599985
-0.7324330510414282
0.04882887006942855
-17.334248874647134
-100.24567025253681
-237.94308384832533
-328.76478217746245
-354.7417410543984
-388.72663462272067
-411.18791485465783
-364.50751506828414
-266.84977492942704
-173.97726405737393
-121.33974212252994
-92.43305104142824
-63.233386739909974
-44.77607385366598
-38.23300526436255
-26.123445487144274
-14.697489890897993
-14.404516670481422
-11.767757686732281
-3.9551384756237127
-3.9551384756237127
-6.005951018539712
-1.1230640115968566
0.43945983062485694
-2.8809033340962844
-0.9277485313191425
1.9043259327077133
-0.8300907911802854
-1.3183794918745708
1.9043259327077133
0.8300907911802854
-1.1230640115968566
1.1230640115968566
1.6113527122911422
-0.7324330510414282
0.14648661020828566
1.9043259327077133
0.04882887006942855
-0.24414435034714274
1.6113527122911422
0.8300907911802854
-0.43945983062485694
0.9277485313191425
1.2207217517357138
-0.14648661020828566
0.43945983062485694
1.6113527122911422
0.537117570763714
0.14648661020828566
3.2715342946517127
8.545052262149996
10.79118028534371
17.920195315480278
57.37392233157855
101.12458991378652
86.96421759365225
71.04600595101854
125.63668268863965
180.32501716639965
204.64179446097506
259.330128938735
298.00259403372246
241.36110475318532
143.3127336537728
65.08888380254825
3.2715342946517127
-0.6347753109025711
71.43663691157397
135.01182574196994
145.5588616769665
143.41039139391165
145.5588616769665
133.25398641947052
99.95269703212024
69.77645532921339
70.75303273060197
71.1436636911574
38.525978484779124
19.287403677424276
28.369573510337986
18.017853055619135
0.9277485313191425
10.10757610437171
12.74433508812085
-2.5879301136797133
0.04882887006942855
9.42397192339971
-0.6347753109025711
-4.834058136873426
5.615320057984283
2.392614633401999
-5.810635538261997
1.513694972152285
4.345769436179141
-4.248111696040284
-1.9043259327077133
4.345769436179141
-1.513694972152285
-3.7598229953459983
2.8809033340962844
0.9277485313191425
-3.9551384756237127
0.6347753109025711
2.392614633401999
-2.8809033340962844
-1.416037232013428
2.490272373540856
-1.1230640115968566
-2.490272373540856
1.6113527122911422
0.43945983062485694
-2.5879301136797133
0.14648661020828566
1.2207217517357138
-2.0019836728465705
-1.0254062714579995
1.416037232013428
-0.8300907911802854
-1.7090104524299992
0.8300907911802854
0.14648661020828566
-1.7090104524299992
0.04882887006942855
-15.185778591592278
-101.71053635461966
-264.11535820553905
-395.2697032120241
-427.8873884184024
-412.26214999618526
-377.9842832074464
-314.5067521171893
-231.20469977874419
-153.46913862821393
-106.8863965819791
-82.96025024795911
-57.86221103227283
-39.014267185473415
-33.252460517280845
-24.17029068436713
-12.84199282825971
-11.670099946593423
-10.986495765621424
-3.9551384756237127
-2.490272373540856
-5.224689097428855
-1.7090104524299992
0.8300907911802854
-2.197299153124285
-1.513694972152285
1.9043259327077133
0.04882887006942855
-1.416037232013428
1.416037232013428
1.2207217517357138
-1.0254062714579995
0.537117570763714
1.8066681925688564
-0.43945983062485694
-0.24414435034714274
1.7090104524299992
0.43945983062485694
-0.537117570763714
1.2207217517357138
1.1230640115968566
-0.24414435034714274
0.7324330510414282
1.513694972152285
0.14648661020828566
0.14648661020828566
1.2207217517357138
0.34180209048599985
-0.14648661020828566
0.9277485313191425
0.8300907911802854
0.04882887006942855
6.787212939650568
52.881666285191116
140.18768596932938
189.60250247959107
194.4853894865339
235.50164034485388
274.95536736095215
260.40436408026244
