ecg
1.0254062714579995
-2.490272373540856
1.2207217517357138
2.490272373540856
-1.416037232013428
-0.04882887006942855
2.68558785381857
-0.04882887006942855
-0.9277485313191425
2.197299153124285
1.1230640115968566
-1.1230640115968566
1.1230640115968566
1.8066681925688564
-0.6347753109025711
0.14648661020828566
2.0019836728465705
0.14648661020828566
-0.34180209048599985
15.47875181200885
58.350499732967116
91.06584267948425
90.18692301823454
116.94514381628137
174.9538414587625
186.2821393148699
176.61402304112306
199.7589074540322
201.22377355611505
169.28969253070878
166.0669871061265
171.43816281376363
147.1213855191882
138.7228198672465
156.39887083237966
151.22301060502022
124.75776302738994
106.2027924010071
107.76531624322881
108.83955138475623
75.04997329671168
38.62363622491798
36.768139162279695
31.494621194781413
10.498207064927138
10.693522545204852
17.52956435492485
4.248111696040284
-0.9277485313191425
9.130998702983138
4.150453955901427
-4.736400396734569
3.076218814373999
5.224689097428855
-4.052796215762569
-1.2207217517357138
5.0293736171511405
-1.6113527122911422
-3.662165255207141
3.2715342946517127
0.8300907911802854
-4.248111696040284
0.9277485313191425
2.490272373540856
-3.076218814373999
-1.2207217517357138
2.68558785381857
-1.3183794918745708
-2.5879301136797133
1.8066681925688564
0.34180209048599985
-2.783245593957427
0.43945983062485694
1.3183794918745708
-2.0996414129854277
-0.9277485313191425
1.416037232013428
-1.0254062714579995
-1.7090104524299992
1.0254062714579995
0.04882887006942855
-1.8066681925688564
0.14648661020828566
0.6347753109025711
-1.416037232013428
-0.7324330510414282
0.7324330510414282
-7.763790341039139
-37.64705882352941
-68.60456244754711
-70.94834821087969
-90.18692301823454
-160.01220721751736
-212.5520714122225
-233.35317006179903
-273.2951857785916
-299.85809109636074
-281.7914091706722
-264.7013046463722
-258.9394979781796
-235.6969558251316
-183.25474937056535
-117.23811703669794
-77.97970550087739
-64.9912260624094
-44.19012741283284
-25.92813000686656
-25.830472266727703
-20.45929655909056
-7.373159380483711
-7.959105821316854
-10.693522545204852
-2.0019836728465705
0.04882887006942855
-5.615320057984283
-1.7090104524299992
2.8809033340962844
-2.0996414129854277
-2.490272373540856
2.8809033340962844
0.537117570763714
-2.5879301136797133
1.7090104524299992
2.197299153124285
-1.8066681925688564
0.14648661020828566
2.783245593957427
-0.43945983062485694
-0.8300907911802854
2.392614633401999
0.8300907911802854
-1.1230640115968566
1.416037232013428
7.275501640344854
16.357671473258563
23.682001983672848
47.90112153810941
97.02296482795452
113.82009613183794
103.07774471656367
129.25001907377737
151.80895704585336
127.68749523155566
119.19127183947509
135.1094834821088
120.65613794155794
102.88242923628596
114.21072709239338
109.23018234531166
89.30800335698481
100.34332799267567
114.89433127336538
103.85900663767453
104.8355840390631
122.41397726405738
121.14442664225223
108.54657816433966
99.07377737087053
81.5930418860151
60.2059967956054
51.02616922255284
54.24887464713512
54.346532387273975
42.92057679102769
30.22507057297627
31.201647974364842
35.10795757991913
24.560921644922562
21.728847180895706
28.95551995117113
15.283436331731137
6.005951018539712
21.826504921034562
19.775692378118563
0.9277485313191425
7.275501640344854
15.869382772564279
-15.576409552147707
-68.70222018768597
-89.7962920576791
-51.709773403524835
11.670099946593423
44.873731593804834
35.69390402075227
21.24055848020142
30.127412832837415
34.131380178530556
13.720912489509422
5.908293278400855
14.990463111314565
6.884870679789426
-2.783245593957427
6.005951018539712
6.591897459372854
-4.052796215762569
0.04882887006942855
6.103608758678568
-2.0019836728465705
-3.466849774929427
4.248111696040284
0.537117570763714
-4.541084916456855
1.6113527122911422
2.490272373540856
-3.662165255207141
-0.8300907911802854
-0.04882887006942855
-43.99481193255512
-152.00427252613107
-255.22850385290303
-284.13519493400474
-289.6040283817807
-317.82711528191044
-327.8858625162127
-304.2526894026093
-265.67788204776076
-224.0756847486076
-183.1570916304265
-130.71488517586022
-81.98367284657053
-63.03807125963226
-51.02616922255284
-29.834439612420844
-21.533531700617992
-22.60776684214542
-12.256046387426567
-4.638742656595713
-9.326314183260854
-6.787212939650568
0.7324330510414282
-2.392614633401999
-4.834058136873426
1.3183794918745708
1.3183794918745708
-3.1738765545128556
0.34180209048599985
2.9785610742351416
-1.416037232013428
-1.0254062714579995
2.68558785381857
0.14648661020828566
-1.6113527122911422
2.0019836728465705
1.7090104524299992
-1.2207217517357138
0.7324330510414282
2.197299153124285
-0.537117570763714
-0.24414435034714274
2.0019836728465705
0.43945983062485694
-0.6347753109025711
1.416037232013428
1.2207217517357138
-0.537117570763714
0.6347753109025711
20.947585259784848
65.57717250324254
92.04242008087282
111.47631036850538
176.90699626153963
240.38452735179675
266.4591439688716
303.5690852216373
320.6591897459373
253.4706645304036
162.06301976043335
114.11306935225453
83.74151216906996
72.02258335240711
104.64026855878538
149.75814450293737
157.8637369344625
116.94514381628137
69.58113984893568
57.56923781185626
51.51445792324712
26.709391927977418
17.334248874647134
23.48668650339513
12.256046387426567
1.6113527122911422
9.619287403677424
8.44739452201114
-2.490272373540856
1.7090104524299992
6.787212939650568
-1.8066681925688564
-2.5879301136797133
4.638742656595713
0.34180209048599985
-4.150453955901427
2.0996414129854277
2.2949568932631417
-3.662165255207141
-0.537117570763714
2.8809033340962844
-2.0019836728465705
-2.2949568932631417
2.392614633401999
-0.14648661020828566
-2.8809033340962844
1.0254062714579995
1.1230640115968566
-2.5879301136797133
-0.537117570763714
1.6113527122911422
-1.416037232013428
-1.513694972152285
1.3183794918745708
-0.24414435034714274
-1.9043259327077133
0.43945983062485694
0.537117570763714
-1.7090104524299992
-0.43945983062485694
0.8300907911802854
-1.0254062714579995
-1.1230640115968566
0.6347753109025711
-0.24414435034714274
-1.3183794918745708
0.04882887006942855
0.14648661020828566
-12.74433508812085
-50.34256504158083
-102.98008697642481
-174.2702372777905
-278.76401922636757
-357.6714732585641
-363.53093766689557
-348.97993438620585
-337.261005569543
-297.9049362935836
-228.95857175555048
-153.9574273289082
-103.37071793698024
-79.54222934309911
-57.178606851300835
-37.35408560311284
-31.103990234225986
-24.560921644922562
-13.037308308537423
-10.205233844510566
-11.08415350576028
-4.834058136873426
-1.6113527122911422
-4.736400396734569
-2.490272373540856
1.3183794918745708
-1.2207217517357138
-2.0019836728465705
1.416037232013428
0.6347753109025711
-1.6113527122911422
0.7324330510414282
1.7090104524299992
-0.8300907911802854
-0.04882887006942855
1.9043259327077133
0.04882887006942855
-0.537117570763714
1.513694972152285
0.8300907911802854
-0.537117570763714
0.9277485313191425
1.416037232013428
-0.24414435034714274
0.14648661020828566
13.330281528953995
40.08850232700084
46.533913176165406
41.16273746852827
83.35088120851454
137.06263828488594
137.1602960250248
134.2305638208591
158.05905241474022
151.7112993057145
130.42191195544365
143.01976043335623
147.41435873960478
124.46478980697337
125.24605172808423
140.87129015030138
132.08209353780424
125.83199816891737
135.1094834821088
123.68352788586252
99.75738155184253
96.04638742656596
103.95666437781338
99.85503929198138
79.54222934309911
63.91699092088197
64.20996414129854
54.346532387273975
31.68993667505913
31.9829098954757
39.014267185473415
18.60379949645228
5.322346837567712
16.064698252841993
10.79118028534371
-3.076218814373999
4.834058136873426
9.228656443121995
-3.2715342946517127
-1.9043259327077133
7.080186160067139
-0.537117570763714
-5.0293736171511405
4.052796215762569
2.2949568932631417
-5.127031357289998
0.537117570763714
3.8574807354848555
-3.36919203479057
-2.197299153124285
3.5645075150682843
-0.9277485313191425
-3.5645075150682843
2.0996414129854277
1.1230640115968566
-3.466849774929427
0.04882887006942855
2.0996414129854277
-2.2949568932631417
-1.513694972152285
2.0996414129854277
-0.7324330510414282
-2.2949568932631417
1.1230640115968566
0.43945983062485694
-2.2949568932631417
-0.04882887006942855
1.1230640115968566
-10.595864805065995
-46.533913176165406
-97.70656900892652
-152.98084992751964
-233.74380102235446
-317.53414206149387
-339.11650263218127
-320.95216296635385
-308.2566567483024
-274.76005188067444
-218.89982452124818
-174.0749217975128
-147.51201647974364
-128.56641489280537
-97.90188448920424
-60.694285496299685
-43.99481193255512
-37.64705882352941
-22.21713588158999
-13.525597009231708
-15.967040512703136
-10.10757610437171
-2.392614633401999
-5.71297779812314
-6.103608758678568
0.537117570763714
-0.34180209048599985
-3.8574807354848555
0.537117570763714
2.0996414129854277
-2.0996414129854277
-0.537117570763714
2.783245593957427
-0.34180209048599985
-1.3183794918745708
2.197299153124285
1.0254062714579995
-1.416037232013428
1.1230640115968566
2.0996414129854277
-0.6347753109025711
0.04882887006942855
1.9043259327077133
0.04882887006942855
-0.537117570763714
1.513694972152285
0.8300907911802854
-0.537117570763714
1.0254062714579995
1.513694972152285
-0.14648661020828566
0.24414435034714274
18.701457236591136
59.71770809491112
80.32349126420996
84.52277409018082
130.22659647516593
177.8835736629282
172.80537117570765
168.21545738918135
184.62195773250934
175.1491569390402
167.14122224765393
194.58304722667276
202.10269321736476
178.66483558403905
179.83672846570533
196.43854428931107
181.49691004806593
135.3047989623865
93.70260166323338
82.66727702754254
75.2452887769894
44.28778515297169
25.732814526588847
30.029755092698558
19.58037689784085
4.736400396734569
11.08415350576028
12.060730907148852
-0.6347753109025711
1.1230640115968566
8.154421301594567
-0.04882887006942855
-3.36919203479057
4.736400396734569
2.0019836728465705
-4.541084916456855
1.3183794918745708
3.36919203479057
-3.466849774929427
-1.416037232013428
3.466849774929427
-1.3183794918745708
-3.076218814373999
2.197299153124285
0.537117570763714
-3.2715342946517127
0.43945983062485694
1.8066681925688564
-2.2949568932631417
-1.1230640115968566
1.9043259327077133
-23.58434424353399
-105.12855725947966
-186.47745479514762
-179.34843976501105
-118.11703669794767
-69.48348210879682
-3.5645075150682843
82.37430380712597
129.05470359349965
121.33974212252994
89.01503013656824
66.94438086518655
58.25284199282826
38.42832074464027
20.068665598535134
21.14290074006256
17.920195315480278
3.076218814373999
-1.0254062714579995
2.783245593957427
-13.037308308537423
-62.745098039215684
-114.21072709239338
-130.12893873502708
-143.60570687418937
-181.9851987487602
-198.00106813153278
-187.35637445639733
-198.09872587167163
-212.64972915236135
-204.15350576028078
-206.10666056305791
-221.73189898527505
-215.09117265583276
-183.1570916304265
-143.11741817349508
-118.11703669794767
-102.7847714961471
-67.33501182574197
-37.256427862973986
-37.06111238269627
-29.541466392004274
-10.302891584649425
-11.670099946593423
-16.064698252841993
-3.1738765545128556
0.04882887006942855
-8.642710002288853
-2.783245593957427
4.150453955901427
-3.36919203479057
-3.9551384756237127
4.150453955901427
0.43945983062485694
-4.052796215762569
2.392614633401999
3.1738765545128556
-2.9785610742351416
0.04882887006942855
3.8574807354848555
-1.0254062714579995
-1.513694972152285
3.36919203479057
0.9277485313191425
-2.0996414129854277
1.8066681925688564
5.908293278400855
9.81460288395514
23.48668650339513
72.70618753337911
150.05111772335394
183.1570916304265
168.1177996490425
167.92248416876478
159.32860303654536
115.38261997405966
94.38620584420539
100.7339589532311
80.12817578393225
56.1043717097734
63.233386739909974
61.182574196993976
47.21751735713741
60.8896009765774
75.34294651712825
61.768520637827116
59.522392614633404
86.37827115281911
118.21469443808652
147.41435873960478
168.21545738918135
167.53185320820936
137.8439002059968
82.0813305867094
22.998397802700847
-7.373159380483711
5.224689097428855
40.38147554741741
68.79987792782482
67.53032730601969
39.307240405889985
30.518043793392845
39.600213626306555
21.728847180895706
4.052796215762569
15.088120851453422
13.623254749370565
-2.8809033340962844
2.8809033340962844
10.693522545204852
-2.0019836728465705
-3.7598229953459983
7.275501640344854
1.1230640115968566
-6.103608758678568
3.076218814373999
3.8574807354848555
-7.763790341039139
-8.44739452201114
-2.8809033340962844
-6.005951018539712
-9.912260624093996
-9.033340962844282
-7.568474860761425
-7.959105821316854
-13.525597009231708
-14.795147631036851
-15.283436331731137
-34.424353398947126
-47.11985961699855
-37.06111238269627
-43.311207751583126
-55.420767528801406
-29.541466392004274
4.931715877012284
14.990463111314565
23.974975204089418
45.85030899519341
68.21393148699168
64.01464866102083
32.37354085603113
17.920195315480278
22.998397802700847
12.549019607843137
1.9043259327077133
9.71694514381628
8.838025482566568
-2.392614633401999
1.513694972152285
6.884870679789426
-8.252079041733426
-39.20958266575113
-72.90150301365682
-102.68711375600824
-151.61364156557565
-218.6068513008316
-251.32219424734873
-256.79102769512474
-279.3499656672007
-295.4634927901121
-278.37338826581214
-247.02525368123904
-217.0443274586099
-189.60250247959107
-147.8049897001602
-92.43305104142824
-62.45212481879911
-55.03013656824598
-35.49858854047456
-19.287403677424276
-22.119478141451133
-17.236591134508277
-4.248111696040284
-6.494239719233997
-9.81460288395514
-0.537117570763714
0.7324330510414282
-5.615320057984283
-1.1230640115968566
3.466849774929427
-2.2949568932631417
-2.392614633401999
3.36919203479057
0.34180209048599985
-2.68558785381857
2.0996414129854277
2.197299153124285
-2.2949568932631417
0.14648661020828566
2.9785610742351416
-0.7324330510414282
-0.9277485313191425
2.5879301136797133
0.6347753109025711
-1.2207217517357138
5.810635538261997
28.760204470893417
60.2059967956054
83.15556572823682
127.00389105058366
196.24322880903335
218.31387808041504
203.66521705958647
219.68108644235903
230.32578011749447
202.8839551384756
190.48142214084078
196.04791332875564
178.37186236362248
156.20355535210194
151.12535286488136
150.05111772335394
136.37903410391394
99.3667505912871
67.13969634546426
59.42473487449455
43.604180971999696
20.654612039368278
20.068665598535134
21.14290074006256
6.787212939650568
3.8574807354848555
11.08415350576028
3.7598229953459983
-2.392614633401999
4.834058136873426
4.150453955901427
-3.5645075150682843
0.43945983062485694
4.248111696040284
-2.2949568932631417
-2.2949568932631417
3.36919203479057
-0.14648661020828566
-3.36919203479057
1.6113527122911422
1.416037232013428
-3.076218814373999
-0.34180209048599985
2.0996414129854277
-1.8066681925688564
-1.7090104524299992
1.8066681925688564
-0.34180209048599985
-5.322346837567712
-8.545052262149996
-8.545052262149996
-23.58434424353399
-71.63195239185168
-105.22621499961852
-99.65972381170367
-110.20675974670024
-123.97650110627909
-86.8665598535134
-38.72129396505684
-6.298924238956283
50.928511482413974
119.48424505989166
147.8049897001602
120.94911116197451
68.79987792782482
42.92057679102769
39.79552910658427
24.267948424505988
12.158388647287708
17.334248874647134
13.13496604867628
1.416037232013428
5.0293736171511405
8.349736781872283
-0.537117570763714
-0.9277485313191425
5.420004577706569
0.537117570763714
-22.021820401312276
-70.26474402990769
-129.1523613336385
-186.9657434958419
-244.48615243762876
-268.1193255512322
-267.4357213702602
-300.6393530174716
-346.92912184328986
-341.36263065537497
-271.635004196231
-181.20393682764936
-123.97650110627909
-97.21828030823224
-66.55374990463112
-43.11589227130541
-39.014267185473415
-29.2484931715877
-13.720912489509422
-13.232623788815136
-14.11154345006485
-4.248111696040284
-2.197299153124285
-7.177843900205997
-2.2949568932631417
2.0996414129854277
-2.8809033340962844
-2.490272373540856
2.783245593957427
0.04882887006942855
-2.490272373540856
1.9043259327077133
1.9043259327077133
-2.0019836728465705
0.24414435034714274
2.5879301136797133
-0.7324330510414282
-0.6347753109025711
2.5879301136797133
0.7324330510414282
-1.1230640115968566
1.416037232013428
1.416037232013428
-0.9277485313191425
0.43945983062485694
1.8066681925688564
-0.14648661020828566
-0.04882887006942855
1.8066681925688564
0.6347753109025711
-0.43945983062485694
5.127031357289998
17.236591134508277
23.779659723811704
22.021820401312276
46.43625543602655
102.00350957503625
131.78912031738764
144.97291523613336
187.74700541695276
209.3293659876402
186.0868238345922
184.23132677195392
200.05188067444877
187.16105897611962
179.83672846570533
199.36827649347677
199.9542229343099
173.68429083695736
147.1213855191882
134.03524834058138
124.56244754711223
90.67521171892882
51.22148470283055
41.84634164950027
36.57282368200198
17.041275654230564
12.353704127565424
17.920195315480278
7.763790341039139
0.34180209048599985
7.763790341039139
5.71297779812314
-2.8809033340962844
1.8066681925688564
5.224689097428855
-2.2949568932631417
-1.8066681925688564
3.9551384756237127
-0.34180209048599985
-3.466849774929427
2.0019836728465705
1.416037232013428
-13.623254749370565
-31.885252155336843
-29.2484931715877
-10.400549324788281
-0.34180209048599985
1.8066681925688564
5.224689097428855
5.908293278400855
-1.3183794918745708
-7.275501640344854
2.0996414129854277
18.701457236591136
20.55695429922942
8.545052262149996
4.638742656595713
7.666132600900283
2.68558785381857
-0.8300907911802854
3.5645075150682843
2.5879301136797133
-2.0996414129854277
0.537117570763714
2.490272373540856
-1.6113527122911422
-1.2207217517357138
2.0019836728465705
-6.201266498817426
-39.40489814602884
-85.40169375143053
-108.83955138475623
-131.30083161669336
-185.5985351338979
-220.56000610360877
-219.58342870222017
-234.81803616388189
-248.78309300373846
-226.6147859922179
-212.64972915236135
-225.54055085069047
-225.54055085069047
-193.6064698252842
-141.65255207141223
-102.39414053559167
-84.71808957045853
-59.22941939421683
-33.545433737697415
-30.71335927367056
-26.514076447699704
-10.79118028534371
-8.74036774242771
-13.13496604867628
-4.345769436179141
0.24414435034714274
-6.298924238956283
-3.5645075150682843
3.076218814373999
-1.513694972152285
-3.5645075150682843
2.68558785381857
1.416037232013428
-3.1738765545128556
0.9277485313191425
2.8809033340962844
-1.7090104524299992
-0.43945983062485694
3.2715342946517127
0.04882887006942855
-1.513694972152285
2.197299153124285
1.3183794918745708
-1.513694972152285
1.0254062714579995
2.197299153124285
-0.6347753109025711
0.04882887006942855
2.197299153124285
0.24414435034714274
-0.537117570763714
6.298924238956283
22.90074006256199
37.35408560311284
44.48310063324941
82.0813305867094
141.84786755168994
156.3012130922408
159.13328755626765
217.33730067902647
279.93591210803385
299.85809109636074
294.877546349279
238.33371480888076
121.24208438239108
35.79156176089113
31.787594415197987
54.932478828107115
77.88204776073853
108.44892042420081
125.5390249485008
113.2341496910048
86.08529793240254
69.48348210879682
68.50690470740825
56.983291371023114
34.22903791866941
32.56885633630884
37.35408560311284
18.310826276035705
6.298924238956283
15.381094071869994
10.10757610437171
-2.197299153124285
4.736400396734569
8.252079041733426
-2.783245593957427
-1.416037232013428
6.39658197909514
-0.43945983062485694
-4.345769436179141
3.5645075150682843
1.9043259327077133
-4.638742656595713
0.537117570763714
3.2715342946517127
-3.076218814373999
-1.8066681925688564
3.1738765545128556
-0.9277485313191425
-5.322346837567712
-4.834058136873426
-7.177843900205997
-28.564888990615703
-72.60852979324025
-93.11665522240024
-83.4485389486534
-101.51522087434195
-127.98046845197223
-118.11703669794767
-112.94117647058823
-123.78118562600137
-106.49576562142367
-79.93286030365454
-73.48744945448996
-46.240939955748836
14.795147631036851
74.36636911573969
128.17578393224994
174.17257953765164
196.24322880903335
182.08285648889907
125.44136720836194
71.24132143129626
57.95986877241169
47.412832837415124
23.291371023117417
19.385061417563133
23.682001983672848
9.521629663538567
2.490272373540856
11.08415350576028
6.201266498817426
-3.076218814373999
3.5645075150682843
5.908293278400855
-15.576409552147707
-57.66689555199512
-106.2027924010071
-153.85976958876935
-218.21622034027618
-281.3031204699779
-302.397192339971
-308.84260318913556
-330.32730601968416
-335.6984817273213
-291.75249866483557
-205.9113450827802
-130.42191195544365
-97.41359578850995
-74.36636911573969
-45.85030899519341
-35.596246280613414
-33.05714503700313
-17.920195315480278
-9.81460288395514
-14.306858930342566
-8.838025482566568
-0.43945983062485694
-4.736400396734569
-5.810635538261997
1.513694972152285
0.04882887006942855
-4.248111696040284
0.6347753109025711
2.5879301136797133
-2.2949568932631417
-0.537117570763714
3.1738765545128556
-0.43945983062485694
-1.7090104524299992
2.490272373540856
1.3183794918745708
-1.6113527122911422
1.2207217517357138
2.197299153124285
-1.0254062714579995
-0.04882887006942855
19.287403677424276
58.350499732967116
74.95231555657283
72.41321431296254
108.83955138475623
150.05111772335394
144.1916533150225
145.46120393682764
172.2194247348745
167.14122224765393
149.95345998321508
163.03959716182192
161.77004654001678
130.42191195544365
116.84748607614252
111.28099488822767
85.79232471198596
71.63195239185168
76.12420843823911
62.64744029907683
45.947966735332265
54.83482108796826
62.2568093385214
57.37392233157855
68.21393148699168
90.38223849851225
94.97215228503853
74.75700007629511
54.7371633478294
63.33104448004883
67.82330052643626
34.717326619363696
15.381094071869994
26.709391927977418
16.748302433813993
-1.0254062714579995
9.521629663538567
12.939650568398566
-3.5645075150682843
-0.6347753109025711
9.81460288395514
-1.0254062714579995
-5.615320057984283
6.005951018539712
2.5879301136797133
-6.39658197909514
1.513694972152285
4.736400396734569
-4.638742656595713
-2.0996414129854277
4.834058136873426
-1.6113527122911422
-4.150453955901427
3.1738765545128556
1.1230640115968566
-4.345769436179141
0.6347753109025711
2.5879301136797133
-3.076218814373999
-1.513694972152285
2.783245593957427
-1.1230640115968566
-2.68558785381857
1.8066681925688564
0.537117570763714
-2.8809033340962844
0.14648661020828566
1.416037232013428
-2.0996414129854277
-1.0254062714579995
1.6113527122911422
-15.869382772564279
-76.90547035934996
-154.6410315098802
-197.0244907301442
-231.30235751888304
-288.725108720531
-314.21377889677274
-299.2721446555276
-296.44007019150075
-295.36583504997327
-257.962920576791
-189.21187151903564
-125.44136720836194
-94.19089036392768
-76.31952391851682
-49.26832990005341
-32.86182955672541
-31.201647974364842
-20.654612039368278
-9.228656443121995
-11.670099946593423
-10.498207064927138
-1.513694972152285
-2.490272373540856
-6.103608758678568
-0.24414435034714274
1.6113527122911422
-3.2715342946517127
-0.9277485313191425
3.076218814373999
-0.7324330510414282
-1.8066681925688564
2.392614633401999
1.0254062714579995
-1.8066681925688564
1.2207217517357138
2.0996414129854277
-1.1230640115968566
0.04882887006942855
2.392614633401999
0.04882887006942855
-0.6347753109025711
1.9043259327077133
0.9277485313191425
-0.8300907911802854
1.1230640115968566
1.7090104524299992
-0.34180209048599985
0.24414435034714274
1.7090104524299992
0.04882887006942855
-0.34180209048599985
16.943617914091707
63.526359960326545
97.21828030823224
94.48386358434425
119.58190280003052
173.48897535667965
179.05546654459448
166.16464484626536
191.06736858167392
202.59098191805904
188.8212405584802
205.13008316166935
226.02883955138475
208.74341954680705
184.13366903181506
164.11383230334937
135.3047989623865
106.69108110170139
81.88601510643167
69.38582436865796
62.64744029907683
38.33066300450141
19.58037689784085
24.267948424505988
20.55695429922942
7.080186160067139
12.256046387426567
18.310826276035705
4.541084916456855
0.04882887006942855
9.130998702983138
3.662165255207141
-4.150453955901427
3.36919203479057
4.638742656595713
-4.052796215762569
-0.7324330510414282
4.638742656595713
-1.8066681925688564
-4.834058136873426
-1.7090104524299992
-4.443427176317998
-15.381094071869994
-29.541466392004274
-27.97894254978256
-12.74433508812085
-5.71297779812314
-0.24414435034714274
9.71694514381628
19.971007858396277
25.049210345616846
14.50217441062028
3.8574807354848555
7.373159380483711
6.884870679789426
-0.537117570763714
1.3183794918745708
4.931715877012284
-0.537117570763714
-1.7090104524299992
2.9785610742351416
0.6347753109025711
-2.68558785381857
1.0254062714579995
1.513694972152285
-2.392614633401999
-0.6347753109025711
1.8066681925688564
-1.2207217517357138
-1.7090104524299992
1.3183794918745708
0.04882887006942855
-2.0019836728465705
0.24414435034714274
0.6347753109025711
-10.10757610437171
-33.64309147783627
-51.80743114366369
-71.63195239185168
-138.33218890669107
-223.1967650873579
-254.8378728923476
-266.16617074845504
-299.7604333562219
-310.01449607080184
-282.96330205233846
-252.68940260929276
-227.39604791332874
-194.77836270695047
-142.72678721293966
-89.89394979781795
-66.16311894407569
-53.66292820630198
-32.6665140764477
-22.412451361867703
-23.19371328297856
-13.916227969787137
-5.322346837567712
-8.935683222705425
-7.470817120622568
0.04882887006942855
-1.9043259327077133
-4.834058136873426
0.7324330510414282
1.513694972152285
-2.8809033340962844
-0.14648661020828566
2.783245593957427
-1.0254062714579995
-1.2207217517357138
2.5879301136797133
0.6347753109025711
-1.513694972152285
1.7090104524299992
1.9043259327077133
-1.1230640115968566
0.34180209048599985
2.197299153124285
-0.24414435034714274
-0.43945983062485694
1.9043259327077133
0.7324330510414282
-0.6347753109025711
21.63118944075685
95.16746776531625
170.26626993209734
161.2817578393225
101.31990539406424
55.32310978866255
0.8300907911802854
-36.67048142214084
5.0293736171511405
68.89753566796368
87.7454795147631
99.56206607156481
113.33180743114366
90.67521171892882
65.96780346379796
77.88204776073853
88.91737239642939
89.01503013656824
106.10513466086825
117.82406347753108
108.74189364461738
115.9685664148928
138.7228198672465
139.30876630807964
127.49217975127794
127.39452201113909
130.81254291599907
121.82803082322422
97.51125352864881
83.83916990920882
86.8665598535134
66.55374990463112
34.32669565880827
36.182192721446555
40.38147554741741
15.47875181200885
6.884870679789426
19.18974593728542
8.74036774242771
-3.7598229953459983
7.763790341039139
8.44739452201114
-5.322346837567712
0.04882887006942855
7.959105821316854
-2.68558785381857
-4.345769436179141
5.71297779812314
0.7324330510414282
-5.810635538261997
2.197299153124285
3.36919203479057
-4.638742656595713
-0.9277485313191425
4.052796215762569
-2.2949568932631417
-3.076218814373999
3.076218814373999
0.04882887006942855
-3.8574807354848555
1.1230640115968566
1.8066681925688564
-3.076218814373999
-0.7324330510414282
2.392614633401999
-29.443808651865414
-126.0273136491951
-232.0836194399939
-273.19752803845273
-287.06492713817045
-313.4325169756619
-311.1863889524681
-280.2288853284505
-258.9394979781796
-244.97444113832304
-215.18883039597162
-157.1801327534905
-98.39017318989853
-72.60852979324025
-58.25284199282826
-35.20561532005799
-24.95155260547799
-25.63515678644999
-14.892805371175708
-5.908293278400855
-10.10757610437171
-7.763790341039139
0.34180209048599985
-2.490272373540856
-5.322346837567712
0.9277485313191425
1.416037232013428
-3.36919203479057
0.04882887006942855
2.9785610742351416
-1.3183794918745708
-1.3183794918745708
2.68558785381857
0.24414435034714274
-1.9043259327077133
1.8066681925688564
1.8066681925688564
-1.3183794918745708
0.43945983062485694
2.2949568932631417
-0.43945983062485694
-0.34180209048599985
2.0996414129854277
0.6347753109025711
-0.8300907911802854
4.443427176317998
24.95155260547799
55.32310978866255
74.65934233615626
113.03883421072709
178.46952010376134
194.19241626611733
171.82879377431905
188.23529411764707
204.44647898069735
178.95780880445562
167.04356450751507
171.82879377431905
146.73075455863278
125.44136720836194
136.57434958419165
134.4258793011368
112.94117647058823
109.52315556572823
121.63271534294651
117.3357747768368
85.10872053101396
54.346532387273975
51.80743114366369
50.04959182116426
28.076600289921416
21.045242999923705
29.150835431448844
15.674067292286564
1.9043259327077133
11.08415350576028
10.400549324788281
-2.8809033340962844
1.7090104524299992
8.252079041733426
-1.9043259327077133
-3.36919203479057
5.615320057984283
0.8300907911802854
-5.0293736171511405
2.392614633401999
3.076218814373999
-4.345769436179141
-0.7324330510414282
3.662165255207141
-2.197299153124285
-2.783245593957427
2.8809033340962844
0.04882887006942855
-7.275501640344854
-10.595864805065995
-10.10757610437171
-5.615320057984283
1.416037232013428
4.931715877012284
-5.71297779812314
-32.56885633630884
-50.14724956130312
-41.065079728389414
-41.5533684290837
-58.936446173800256
-35.010299839780274
26.709391927977418
65.96780346379796
61.475547417410546
35.10795757991913
22.510109102006563
23.291371023117417
13.427939269092851
4.834058136873426
9.619287403677424
7.861448081177996
-0.43945983062485694
2.2949568932631417
5.420004577706569
-0.9277485313191425
-1.513694972152285
3.5645075150682843
0.34180209048599985
-2.8809033340962844
1.6113527122911422
1.513694972152285
-24.267948424505988
-89.89394979781795
-163.62554360265506
-225.9311818112459
-306.498817425803
-379.644464789807
-392.24231326771957
-356.9878690775921
-300.73701075761045
-239.40794995040818
-180.81330586709393
-121.92568856336308
-81.30006866559853
-65.57717250324254
-48.38941023880369
-29.053177691309987
-24.560921644922562
-21.338216220340275
-10.009918364232853
-6.884870679789426
-9.81460288395514
-4.248111696040284
-0.04882887006942855
-4.150453955901427
-2.9785610742351416
1.9043259327077133
-0.537117570763714
-2.490272373540856
1.6113527122911422
1.416037232013428
-1.8066681925688564
0.537117570763714
2.2949568932631417
-0.7324330510414282
-0.43945983062485694
2.197299153124285
0.34180209048599985
-0.9277485313191425
3.2715342946517127
12.74433508812085
22.803082322423133
30.029755092698558
59.522392614633404
109.42549782558937
120.7537956816968
112.15991454947738
142.92210269321737
164.11383230334937
144.48462653543908
144.38696879530022
156.1058976119631
128.85938811322194
102.19882505531396
106.00747692072939
94.87449454489968
73.09681849393453
78.46799420157168
82.17898832684826
68.21393148699168
76.71015487907225
101.90585183489738
109.1325246051728
110.49973296711681
118.31235217822538
124.66010528725108
118.11703669794767
88.91737239642939
68.70222018768597
71.1436636911574
51.416800183108265
21.14290074006256
23.096055542839704
25.049210345616846
5.517662317845426
3.7598229953459983
14.404516670481422
3.662165255207141
-4.052796215762569
6.884870679789426
5.0293736171511405
-5.615320057984283
1.0254062714579995
5.908293278400855
-3.662165255207141
-2.783245593957427
5.0293736171511405
-0.8300907911802854
-20.55695429922942
-44.580758373388264
-47.998779278248264
-42.43228809033341
-64.40527962157626
-80.61646448462653
-72.5108720531014
-80.61646448462653
-82.0813305867094
-33.252460517280845
29.443808651865414
64.79591058213168
76.41718165865568
81.69069962615396
88.4290836957351
74.17105363546197
38.525978484779124
24.853894865339132
28.467231250476843
14.892805371175708
-4.052796215762569
-14.209201190203707
-28.760204470893417
-74.5616845960174
-150.24643320363165
-200.34485389486534
-212.35675593194478
-229.64217593652248
-242.82597085526817
-229.8374914168002
-227.10307469291217
-245.56038757915618
-250.34561684596017
-227.78667887388417
-182.37582970931564
-141.2619211108568
-118.21469443808652
-81.88601510643167
-45.362020294499125
-40.86976424811169
-35.98687724116884
-14.892805371175708
-11.865415426871138
-18.11551079575799
-6.298924238956283
0.24414435034714274
-8.545052262149996
-5.127031357289998
3.9551384756237127
-2.197299153124285
-5.224689097428855
3.36919203479057
1.9043259327077133
-4.345769436179141
1.1230640115968566
3.9551384756237127
-2.490272373540856
-1.1230640115968566
3.9551384756237127
-0.14648661020828566
-2.2949568932631417
2.783245593957427
1.8066681925688564
-2.0996414129854277
1.0254062714579995
2.68558785381857
-1.2207217517357138
-0.24414435034714274
2.8809033340962844
0.34180209048599985
-0.9277485313191425
13.232623788815136
50.34256504158083
81.10475318532082
79.63988708323797
95.65575646601053
139.89471274891278
139.69939726863507
115.9685664148928
133.7422751201648
147.6096742198825
131.30083161669336
139.79705500877392
161.4770733196002
152.78553444724193
153.7621118486305
192.62989242389563
226.51712825207903
223.97802700846876
185.20790417334248
135.59777218280308
94.67917906462196
57.764553292133975
38.62363622491798
42.822919050888835
39.69787136644541
23.291371023117417
24.072632944228275
30.811017013809415
14.306858930342566
3.1738765545128556
12.549019607843137
8.642710002288853
-3.076218814373999
3.466849774929427
7.470817120622568
-2.8809033340962844
-1.9043259327077133
5.810635538261997
-0.43945983062485694
-4.443427176317998
3.1738765545128556
1.9043259327077133
-4.443427176317998
0.24414435034714274
3.2715342946517127
-2.783245593957427
-1.9043259327077133
2.9785610742351416
-0.8300907911802854
-3.1738765545128556
1.6113527122911422
0.9277485313191425
-4.736400396734569
-5.420004577706569
-3.5645075150682843
-13.232623788815136
-40.67444876783398
-56.49500267032883
-47.705806057831694
-65.77248798352025
-112.15991454947738
-121.73037308308537
-114.89433127336538
-139.6017395284962
-144.28931105516136
-105.7145037003128
-78.46799420157168
-45.26436255436027
42.43228809033341
147.02372777904935
204.15350576028078
188.72358281834136
138.82047760738536
107.5700007629511
79.63988708323797
44.28778515297169
33.64309147783627
34.52201113908598
18.11551079575799
8.545052262149996
15.283436331731137
9.81460288395514
-0.537117570763714
5.0293736171511405
7.177843900205997
-2.0996414129854277
-0.6347753109025711
5.420004577706569
-0.537117570763714
-8.935683222705425
-14.599832150759136
-35.49858854047456
-108.2536049439231
-222.90379186694133
-298.979171435111
-326.7139696345464
-367.63256275272755
-402.9846646829938
-374.4686045624475
-282.3773556115053
-181.69222552834364
-125.5390249485008
-98.09719996948196
-65.47951476310368
-44.67841611352712
-41.16273746852827
-28.27191577019913
-13.623254749370565
-14.990463111314565
-13.720912489509422
-3.1738765545128556
-3.2715342946517127
-7.470817120622568
-1.0254062714579995
1.6113527122911422
-3.8574807354848555
-1.8066681925688564
2.8809033340962844
-0.9277485313191425
-2.2949568932631417
2.68558785381857
1.3183794918745708
-2.0996414129854277
1.1230640115968566
2.392614633401999
-1.2207217517357138
-0.14648661020828566
2.5879301136797133
0.04882887006942855
-1.0254062714579995
13.037308308537423
47.31517509727627
69.19050888838025
59.13176165407798
73.29213397421225
116.74982833600366
115.57793545433738
95.85107194628824
118.89829861905852
134.52353704127566
119.19127183947509
128.66407263294423
146.53543907835507
127.10154879072252
108.54657816433966
111.96459906919966
97.41359578850995
77.78439002059967
87.45250629434653
94.97215228503853
84.03448538948653
83.4485389486534
81.5930418860151
59.22941939421683
49.17067215991455
63.03807125963226
68.50690470740825
62.061493858243686
63.33104448004883
74.26871137560083
79.44457160296025
65.38185702296482
58.74113069352254
76.22186617837797
67.7256427862974
28.369573510337986
20.55695429922942
29.63912413214313
10.595864805065995
0.34180209048599985
14.599832150759136
8.838025482566568
-5.71297779812314
4.345769436179141
8.935683222705425
-4.834058136873426
-2.197299153124285
7.666132600900283
-1.3183794918745708
-5.71297779812314
4.638742656595713
2.197299153124285
-5.908293278400855
0.9277485313191425
4.150453955901427
-4.052796215762569
-2.197299153124285
4.150453955901427
-1.3183794918745708
-3.8574807354848555
2.5879301136797133
1.0254062714579995
-3.8574807354848555
0.34180209048599985
2.392614633401999
-2.68558785381857
-1.513694972152285
2.392614633401999
-1.0254062714579995
-4.638742656595713
-5.0293736171511405
-23.19371328297856
-104.93324177920195
-246.6346227206836
-353.667505912871
-387.3594262607767
-397.6134889753567
-378.960860608835
-307.3777370870527
-222.22018768596934
-163.23491264209963
-133.7422751201648
-108.54657816433966
-71.63195239185168
-47.412832837415124
-41.84634164950027
-28.564888990615703
-14.599832150759136
-15.771725032425422
-13.916227969787137
-3.7598229953459983
-3.7598229953459983
-7.373159380483711
-1.0254062714579995
1.3183794918745708
-3.8574807354848555
-1.6113527122911422
2.783245593957427
-0.9277485313191425
-2.0996414129854277
2.490272373540856
1.1230640115968566
-2.0019836728465705
1.2207217517357138
2.197299153124285
-1.2207217517357138
-0.04882887006942855
2.490272373540856
0.04882887006942855
-0.8300907911802854
1.9043259327077133
0.9277485313191425
-1.0254062714579995
0.9277485313191425
1.6113527122911422
-0.34180209048599985
0.24414435034714274
1.8066681925688564
0.24414435034714274
-0.24414435034714274
1.3183794918745708
0.7324330510414282
-0.34180209048599985
4.736400396734569
31.885252155336843
73.87808041504539
90.57755397878996
113.13649195086595
180.4226749065385
216.65369649805447
201.90737773708705
209.91531242847333
219.68108644235903
189.40718699931335
179.73907072556648
206.30197604333563
206.20431830319677
178.86015106431677
160.30518043793393
156.00823987182423
144.8752574959945
102.1011673151751
58.643472953383686
49.073014419775696
40.479133287556266
18.799114976729992
15.771725032425422
20.263981078812847
7.666132600900283
1.416037232013428
9.521629663538567
5.322346837567712
-3.076218814373999
3.076218814373999
5.224689097428855
-3.076218814373999
-1.1230640115968566
4.443427176317998
-1.1230640115968566
-3.2715342946517127
2.783245593957427
1.0254062714579995
-3.662165255207141
0.537117570763714
2.197299153124285
-2.68558785381857
-1.3183794918745708
2.2949568932631417
-1.0254062714579995
-2.2949568932631417
1.416037232013428
0.24414435034714274
-2.490272373540856
0.14648661020828566
1.2207217517357138
-20.068665598535134
-72.21789883268482
-101.31990539406424
-72.70618753337911
-49.073014419775696
-45.654993514915695
-6.103608758678568
57.37392233157855
89.7962920576791
73.87808041504539
39.307240405889985
25.537499046311133
23.87731746395056
12.256046387426567
6.591897459372854
11.377126726176853
6.787212939650568
-0.24414435034714274
3.8574807354848555
4.834058136873426
-1.6113527122911422
-0.14648661020828566
3.7598229953459983
-0.6347753109025711
-6.005951018539712
-9.42397192339971
-29.2484931715877
-102.1011673151751
-212.16144045166706
-275.3459983215076
-291.6548409246967
-331.88982986190587
-373.98031586175324
-357.4761577782864
-289.79934386205844
-215.38414587624933
-165.3833829251545
-126.9062333104448
-83.6438544289311
-57.37392233157855
-49.56130312046998
-33.838406958113985
-18.60379949645228
-18.994430457007706
-15.771725032425422
-4.931715877012284
-5.127031357289998
-8.252079041733426
-1.513694972152285
0.537117570763714
-4.345769436179141
-1.513694972152285
2.68558785381857
-1.3183794918745708
-2.0019836728465705
2.490272373540856
0.7324330510414282
-2.0996414129854277
1.3183794918745708
2.197299153124285
-1.2207217517357138
0.04882887006942855
2.490272373540856
0.04882887006942855
-0.537117570763714
2.0996414129854277
0.9277485313191425
-0.9277485313191425
1.0254062714579995
1.6113527122911422
-0.537117570763714
0.34180209048599985
9.521629663538567
24.072632944228275
23.58434424353399
23.389028763256274
65.47951476310368
116.84748607614252
147.02372777904935
207.9621576256962
272.90455481803616
240.4821850919356
141.35957885099566
68.99519340810254
24.65857938506142
15.967040512703136
70.36240177004655
124.95307850766766
125.5390249485008
119.48424505989166
127.39452201113909
113.72243839169909
98.48783093003739
112.25757228961623
123.68352788586252
111.96459906919966
96.14404516670481
94.48386358434425
97.80422674906538
76.31952391851682
44.97138933394369
45.362020294499125
48.97535667963683
22.60776684214542
10.009918364232853
21.338216220340275
11.865415426871138
-2.2949568932631417
7.959105821316854
9.912260624093996
-4.248111696040284
-0.34180209048599985
8.252079041733426
-1.7090104524299992
-4.638742656595713
5.420004577706569
1.6113527122911422
-5.71297779812314
1.8066681925688564
3.7598229953459983
-4.443427176317998
-1.513694972152285
4.150453955901427
-1.8066681925688564
-3.466849774929427
2.8809033340962844
0.537117570763714
-3.8574807354848555
0.8300907911802854
2.0019836728465705
-2.9785610742351416
-1.1230640115968566
2.392614633401999
-1.3183794918745708
-2.2949568932631417
1.6113527122911422
0.24414435034714274
-2.490272373540856
0.34180209048599985
1.1230640115968566
-30.322728313115128
-122.12100404364081
-225.73586633096818
-288.13916227969787
-342.8274967574578
-387.5547417410544
-374.9568932631418
-321.2451361867704
-259.6231021591516
-204.15350576028078
-157.27779049362937
-107.96063172350652
-70.55771725032426
-56.983291371023114
-43.40886549172198
-25.049210345616846
-20.55695429922942
-19.385061417563133
-9.033340962844282
-5.0293736171511405
-8.642710002288853
-4.248111696040284
0.537117570763714
-3.1738765545128556
-3.1738765545128556
1.8066681925688564
0.04882887006942855
-2.392614633401999
1.416037232013428
1.9043259327077133
-1.7090104524299992
0.04882887006942855
2.392614633401999
-0.43945983062485694
-0.7324330510414282
2.0996414129854277
0.7324330510414282
-1.1230640115968566
1.2207217517357138
1.513694972152285
-0.7324330510414282
0.24414435034714274
1.8066681925688564
0.04882887006942855
-0.24414435034714274
1.416037232013428
0.7324330510414282
-0.24414435034714274
1.0254062714579995
10.009918364232853
26.90470740825513
43.018234531166556
90.67521171892882
175.44213015945678
212.0637827115282
200.05188067444877
220.75532158388648
242.33768215457388
219.58342870222017
209.13405050736247
217.33730067902647
190.48142214084078
154.25040054932478
149.17219806210423
154.6410315098802
143.21507591363394
108.83955138475623
79.63988708323797
73.29213397421225
56.59266041046769
28.564888990615703
23.87731746395056
25.439841306172273
10.205233844510566
4.834058136873426
12.45136186770428
6.005951018539712
-2.197299153124285
4.736400396734569
5.420004577706569
-3.2715342946517127
-0.04882887006942855
4.834058136873426
-1.6113527122911422
-2.8809033340962844
3.2715342946517127
0.43945983062485694
-3.662165255207141
1.2207217517357138
2.0019836728465705
-2.9785610742351416
-0.7324330510414282
2.392614633401999
-1.513694972152285
-2.197299153124285
1.7090104524299992
0.04882887006942855
-2.490272373540856
0.537117570763714
1.0254062714579995
-2.0996414129854277
-0.6347753109025711
1.3183794918745708
-1.1230640115968566
-1.416037232013428
0.9277485313191425
-0.04882887006942855
-1.7090104524299992
0.14648661020828566
0.43945983062485694
-1.416037232013428
-0.537117570763714
0.6347753109025711
-0.7324330510414282
-1.0254062714579995
0.43945983062485694
-0.14648661020828566
-1.1230640115968566
-0.04882887006942855
0.04882887006942855
-1.0254062714579995
-0.43945983062485694
0.24414435034714274
-0.6347753109025711
-0.7324330510414282
0.14648661020828566
-0.24414435034714274
-25.049210345616846
-88.91737239642939
-136.6720073243305
-150.53940642404822
-183.1570916304265
-210.98954757000075
-211.86846723125046
-242.43533989471274
-290.87357900358586
-298.3932249942779
-276.51789120317386
-244.29083695735105
-203.46990157930875
-159.0356298161288
-106.78873884184024
-67.92095826657511
-55.90905622949569
-42.43228809033341
-23.48668650339513
-20.068665598535134
-19.58037689784085
-8.252079041733426
-4.638742656595713
-9.130998702983138
-4.052796215762569
1.1230640115968566
-3.466849774929427
-3.36919203479057
2.2949568932631417
0.04882887006942855
-2.9785610742351416
1.513694972152285
1.9043259327077133
-2.0996414129854277
0.04882887006942855
2.68558785381857
-0.537117570763714
-0.7324330510414282
2.392614633401999
0.6347753109025711
-1.2207217517357138
1.513694972152285
1.7090104524299992
-0.8300907911802854
0.43945983062485694
2.0019836728465705
-0.04882887006942855
-0.24414435034714274
12.060730907148852
35.69390402075227
40.479133287556266
28.076600289921416
46.43625543602655
73.48744945448996
52.881666285191116
33.93606469825284
61.5732051575494
71.72961013199054
55.90905622949569
71.43663691157397
87.55016403448539
70.26474402990769
69.28816662851911
89.69863431754024
86.1829556725414
81.69069962615396
102.29648279545282
108.54657816433966
101.22224765392538
119.19127183947509
137.94155794613565
125.24605172808423
103.76134889753567
82.0813305867094
48.877698939497975
31.103990234225986
42.92057679102769
48.68238345922026
39.69787136644541
37.84237430380713
33.74074921797513
17.52956435492485
6.6895551995117115
-0.7324330510414282
-19.58037689784085
-31.00633249408713
-12.939650568398566
24.17029068436713
64.9912260624094
87.7454795147631
57.764553292133975
-23.291371023117417
-102.98008697642481
-137.94155794613565
-124.26947432669566
-76.51483939879454
-22.60776684214542
3.2715342946517127
-1.7090104524299992
-14.795147631036851
-22.998397802700847
-19.48271915770199
4.345769436179141
44.28778515297169
89.50331883726253
129.34767681391622
159.52391851682307
191.75097276264592
192.62989242389563
125.73434042877851
66.16311894407569
64.20996414129854
50.34256504158083
16.84596017395285
21.14290074006256
28.95551995117113
5.224689097428855
0.537117570763714
16.260013733119706
-3.5645075150682843
-60.01068131532769
-116.45685511558709
-150.44174868390937
-177.98123140306706
-221.1459525444419
-250.15030136568245
-251.71282520790416
-266.36148622873276
-293.41268024719614
-293.3150225070573
-251.12687876707102
-187.6493476768139
-147.70733196002135
-125.63668268863965
-81.30006866559853
-46.63157091630426
-47.0222018768597
-36.0845349813077
-12.84199282825971
-15.47875181200885
-19.678034637979707
-3.466849774929427
-0.9277485313191425
-11.08415350576028
-2.8809033340962844
4.736400396734569
-4.736400396734569
-4.443427176317998
5.127031357289998
0.04882887006942855
-5.224689097428855
2.9785610742351416
3.2715342946517127
-3.8574807354848555
0.34180209048599985
4.541084916456855
-1.7090104524299992
-1.8066681925688564
3.9551384756237127
0.6347753109025711
-2.5879301136797133
2.2949568932631417
2.8809033340962844
-0.537117570763714
13.232623788815136
69.48348210879682
144.8752574959945
162.55130846112763
136.96498054474708
146.2424658579385
157.6684214541848
135.89074540321965
140.77363241016252
168.89906157015335
159.2309452964065
141.65255207141223
153.56679636835278
151.61364156557565
135.69542992294194
155.42229343099106
200.24719615472648
213.6263065537499
162.74662394140535
87.64782177462425
51.123826962691695
42.236972610055695
29.346150911726557
29.9320973525597
38.23300526436255
21.63118944075685
5.908293278400855
14.404516670481422
12.256046387426567
-1.8066681925688564
3.1738765545128556
9.326314183260854
-1.6113527122911422
-2.783245593957427
6.298924238956283
0.7324330510414282
-5.0293736171511405
2.783245593957427
3.076218814373999
-4.443427176317998
-0.43945983062485694
3.8574807354848555
-2.392614633401999
-2.783245593957427
3.076218814373999
-0.04882887006942855
-3.5645075150682843
1.3183794918745708
1.6113527122911422
-3.076218814373999
-0.537117570763714
2.0996414129854277
-1.7090104524299992
-1.9043259327077133
1.7090104524299992
-0.14648661020828566
-2.2949568932631417
0.7324330510414282
0.8300907911802854
-2.0996414129854277
-0.43945983062485694
1.1230640115968566
-7.666132600900283
-30.71335927367056
-47.90112153810941
-39.600213626306555
-39.014267185473415
-57.56923781185626
-37.256427862973986
13.232623788815136
32.56885633630884
29.053177691309987
30.127412832837415
36.67048142214084
37.74471656366827
22.412451361867703
9.912260624093996
12.74433508812085
9.81460288395514
1.1230640115968566
3.7598229953459983
6.298924238956283
-0.34180209048599985
-0.7324330510414282
3.9551384756237127
0.43945983062485694
-2.5879301136797133
1.8066681925688564
1.513694972152285
-2.68558785381857
-0.14648661020828566
-3.7598229953459983
-57.764553292133975
-186.47745479514762
-315.1903562981613
-368.12085145342184
-385.8945601586938
-399.5666437781338
-374.17563134203095
-298.29556725413903
-202.6886396581979
-134.4258793011368
-102.00350957503625
-73.87808041504539
-48.19409475852598
-39.69787136644541
-31.9829098954757
-17.334248874647134
-12.939650568398566
-14.209201190203707
-6.787212939650568
-2.2949568932631417
-6.103608758678568
-3.9551384756237127
1.1230640115968566
-1.6113527122911422
-2.8809033340962844
1.6113527122911422
0.9277485313191425
-2.0996414129854277
0.7324330510414282
2.197299153124285
-1.0254062714579995
-0.43945983062485694
2.197299153124285
0.14648661020828566
-0.8300907911802854
1.8066681925688564
1.1230640115968566
-0.9277485313191425
5.0293736171511405
38.42832074464027
92.82368200198367
112.15991454947738
111.57396810864424
154.54337376974135
189.79781795986878
173.68429083695736
172.0241092545968
188.23529411764707
169.87563897154192
154.34805828946364
171.63347829404134
164.6997787441825
133.83993286030366
130.71488517586022
130.81254291599907
108.35126268406195
98.09719996948196
101.51522087434195
92.82368200198367
75.34294651712825
60.987258716716255
65.38185702296482
69.9717708094911
40.772106507972836
16.748302433813993
25.049210345616846
19.58037689784085
0.9277485313191425
7.275501640344854
13.525597009231708
-1.1230640115968566
-2.0019836728465705
8.838025482566568
1.1230640115968566
-5.71297779812314
4.248111696040284
3.8574807354848555
-5.517662317845426
0.04882887006942855
4.931715877012284
-3.2715342946517127
-3.076218814373999
4.150453955901427
-0.34180209048599985
-4.345769436179141
2.0996414129854277
1.9043259327077133
-10.009918364232853
-20.55695429922942
-19.58037689784085
-33.838406958113985
-100.7339589532311
-163.62554360265506
-146.04715037766078
-93.60494392309452
-49.26832990005341
23.291371023117417
107.86297398336767
145.5588616769665
119.67956054016938
66.3584344243534
41.26039520866713
38.72129396505684
22.803082322423133
11.181811245899137
17.236591134508277
12.549019607843137
-13.525597009231708
-42.92057679102769
-47.21751735713741
-47.0222018768597
-113.82009613183794
-235.0133516441596
-331.108567940795
-384.42969405661097
-398.6877241168841
-364.605172808423
-295.7564660105287
-214.3099107347219
-153.66445410849164
-124.07415884641794
-89.21034561684596
-53.36995498588541
-45.16670481422141
-38.72129396505684
-18.60379949645228
-13.720912489509422
-18.40848401617456
-7.861448081177996
-0.9277485313191425
-8.05676356145571
-5.420004577706569
2.8809033340962844
-1.9043259327077133
-4.931715877012284
2.490272373540856
1.8066681925688564
-3.662165255207141
0.6347753109025711
3.466849774929427
-1.9043259327077133
-1.0254062714579995
3.466849774929427
0.04882887006942855
-2.0996414129854277
2.2949568932631417
1.8066681925688564
-1.7090104524299992
0.9277485313191425
2.5879301136797133
-0.8300907911802854
-0.34180209048599985
2.392614633401999
0.24414435034714274
-1.0254062714579995
8.545052262149996
40.186160067139696
79.3469138628214
95.16746776531625
124.07415884641794
183.25474937056535
197.5127794308385
181.39925230792707
208.93873502708476
231.00938429846647
208.25513084611276
207.57152666514077
233.35317006179903
226.32181277180132
191.5556572823682
158.64499885557336
139.30876630807964
119.67956054016938
77.39375906004425
44.77607385366598
43.018234531166556
32.6665140764477
12.84199282825971
14.795147631036851
17.627222095063708
3.7598229953459983
1.513694972152285
9.71694514381628
2.68558785381857
-3.466849774929427
4.345769436179141
3.8574807354848555
-4.052796215762569
0.24414435034714274
4.345769436179141
-2.490272373540856
-2.490272373540856
3.36919203479057
-0.24414435034714274
-3.5645075150682843
1.6113527122911422
1.513694972152285
-3.1738765545128556
-0.24414435034714274
2.197299153124285
-1.9043259327077133
-1.8066681925688564
1.8066681925688564
-0.34180209048599985
-2.392614633401999
0.8300907911802854
0.7324330510414282
-2.197299153124285
-0.34180209048599985
1.2207217517357138
-1.3183794918745708
-1.2207217517357138
1.0254062714579995
-0.34180209048599985
-1.6113527122911422
0.34180209048599985
0.24414435034714274
-1.513694972152285
-0.34180209048599985
0.6347753109025711
-0.9277485313191425
-0.9277485313191425
0.43945983062485694
-0.24414435034714274
-1.1230640115968566
0.04882887006942855
0.04882887006942855
-1.0254062714579995
-0.34180209048599985
0.24414435034714274
-0.6347753109025711
-6.39658197909514
-20.16632333867399
-50.44022278171969
-130.3242542153048
-237.94308384832533
-287.1625848783093
-296.8307011520562
-336.18677042801556
-361.57778286411843
-324.07721065079727
-258.15823605706873
-201.90737773708705
-162.6489662012665
-123.58587014572366
-80.81177996490425
-56.983291371023114
-47.60814831769284
-31.201647974364842
-18.89677271686885
-19.092088197146563
-13.916227969787137
-4.736400396734569
-6.103608758678568
-7.275501640344854
-0.8300907911802854
-0.24414435034714274
-4.052796215762569
-0.537117570763714
2.0996414129854277
-1.7090104524299992
-1.2207217517357138
2.2949568932631417
0.04882887006942855
-1.513694972152285
1.6113527122911422
1.416037232013428
-1.2207217517357138
0.6347753109025711
2.0996414129854277
-0.34180209048599985
-0.24414435034714274
1.8066681925688564
0.34180209048599985
-0.6347753109025711
1.416037232013428
1.3183794918745708
-0.34180209048599985
0.6347753109025711
14.697489890897993
40.57679102769512
40.479133287556266
25.24452582589456
46.240939955748836
63.03807125963226
50.83085374227512
78.07736324101626
125.5390249485008
119.09361409933624
101.90585183489738
116.35919737544823
110.3044174868391
96.04638742656596
135.59777218280308
194.77836270695047
223.58739604791333
229.25154497596705
189.40718699931335
88.13611047531853
3.1738765545128556
-5.517662317845426
25.342183566033416
65.38185702296482
114.21072709239338
148.68390936140995
143.9963378347448
107.17936980239567
75.2452887769894
72.41321431296254
66.94438086518655
39.99084458686198
34.52201113908598
44.67841611352712
23.682001983672848
4.834058136873426
17.236591134508277
14.599832150759136
-3.36919203479057
3.7598229953459983
11.670099946593423
-2.68558785381857
-3.7598229953459983
8.154421301594567
0.8300907911802854
-6.494239719233997
3.8574807354848555
3.9551384756237127
-5.908293278400855
-0.43945983062485694
5.127031357289998
-3.1738765545128556
-3.36919203479057
4.248111696040284
-0.04882887006942855
-4.541084916456855
1.9043259327077133
2.0019836728465705
-3.9551384756237127
-0.43945983062485694
2.8809033340962844
-2.197299153124285
-2.2949568932631417
2.392614633401999
-0.24414435034714274
-2.9785610742351416
1.0254062714579995
-10.888838025482567
-82.66727702754254
-210.79423208972304
-303.9597161821927
-325.44441901274126
-346.24551766231787
-372.0271610589761
-347.90569924467843
-280.91248950942247
-211.47783627069504
-163.62554360265506
-128.37109941252766
-86.57358663309682
-56.690318150606544
-48.38941023880369
-35.303273060196844
-18.799114976729992
-17.52956435492485
-16.45532921339742
-5.810635538261997
-4.052796215762569
-8.252079041733426
-2.5879301136797133
1.2207217517357138
-3.5645075150682843
-2.392614633401999
2.68558785381857
-0.34180209048599985
-2.5879301136797133
1.8066681925688564
1.513694972152285
-2.0019836728465705
0.7324330510414282
2.68558785381857
-0.7324330510414282
-0.43945983062485694
2.2949568932631417
0.14648661020828566
-1.2207217517357138
1.513694972152285
1.3183794918745708
-0.8300907911802854
0.6347753109025711
1.8066681925688564
-0.34180209048599985
-0.04882887006942855
1.7090104524299992
0.34180209048599985
-0.43945983062485694
13.525597009231708
59.32707713435569
107.76531624322881
117.43343251697566
138.13687342641336
195.36430914778362
210.50125886930647
193.50881208514534
214.9935149156939
229.73983367666133
206.39963378347448
205.7160296025025
220.4623483634699
199.0753032730602
161.67238879987792
137.94155794613565
128.66407263294423
113.13649195086595
71.8272678721294
41.16273746852827
40.57679102769512
29.9320973525597
11.08415350576028
14.209201190203707
16.55298695353628
2.68558785381857
1.513694972152285
9.619287403677424
2.0996414129854277
-3.5645075150682843
4.541084916456855
3.36919203479057
-4.248111696040284
0.537117570763714
4.150453955901427
-2.783245593957427
-2.2949568932631417
3.466849774929427
-0.537117570763714
-3.466849774929427
1.8066681925688564
1.3183794918745708
-3.2715342946517127
-0.04882887006942855
2.197299153124285
-2.0996414129854277
-1.7090104524299992
1.9043259327077133
-0.537117570763714
-2.2949568932631417
0.9277485313191425
0.6347753109025711
-2.197299153124285
-0.24414435034714274
1.1230640115968566
-1.416037232013428
-1.1230640115968566
1.0254062714579995
-0.43945983062485694
-1.6113527122911422
0.43945983062485694
0.14648661020828566
-1.513694972152285
-0.24414435034714274
0.537117570763714
-1.0254062714579995
-0.8300907911802854
0.537117570763714
-0.34180209048599985
-1.1230640115968566
0.04882887006942855
-10.888838025482567
-74.46402685587854
-191.75097276264592
-272.1232928969253
-284.2328526741436
-307.76836804760813
-342.53452353704125
-329.5460440985733
-287.6508735790036
-247.51354238193332
-207.08323796444648
-160.20752269779507
-106.59342336156253
-70.55771725032426
-57.86221103227283
-41.651026169222554
-24.267948424505988
-21.92416266117342
-18.799114976729992
-7.763790341039139
-6.103608758678568
-9.130998702983138
-2.9785610742351416
0.24414435034714274
-4.052796215762569
-2.2949568932631417
2.197299153124285
-0.9277485313191425
-2.392614633401999
2.0019836728465705
1.2207217517357138
-1.9043259327077133
0.8300907911802854
2.2949568932631417
-0.8300907911802854
-0.14648661020828566
2.2949568932631417
0.04882887006942855
-0.8300907911802854
1.6113527122911422
1.1230640115968566
-0.8300907911802854
0.8300907911802854
1.7090104524299992
-0.34180209048599985
0.04882887006942855
1.6113527122911422
0.24414435034714274
-0.24414435034714274
11.572442206454566
48.38941023880369
81.69069962615396
77.00312809948882
87.06187533379111
134.4258793011368
139.99237048905164
116.74982833600366
135.40245670252537
148.00030518043792
121.92568856336308
118.5076676585031
130.03128099488822
105.32387273975738
84.91340505073624
98.09719996948196
95.16746776531625
82.27664606698711
102.19882505531396
120.7537956816968
111.28099488822767
110.01144426642253
117.23811703669794
107.66765850308995
93.2143129625391
86.76890211337454
93.50728618295567
95.2651255054551
64.01464866102083
39.99084458686198
46.92454413672083
33.252460517280845
7.861448081177996
14.892805371175708
19.58037689784085
0.43945983062485694
0.34180209048599985
12.45136186770428
1.513694972152285
-5.71297779812314
6.39658197909514
4.443427176317998
-6.494239719233997
0.9277485313191425
5.908293278400855
-4.248111696040284
-3.076218814373999
5.322346837567712
-0.7324330510414282
-4.931715877012284
2.9785610742351416
1.9043259327077133
-4.736400396734569
0.04882887006942855
3.2715342946517127
-2.8809033340962844
-2.0996414129854277
3.076218814373999
-0.7324330510414282
-3.2715342946517127
1.6113527122911422
0.9277485313191425
-2.9785610742351416
-0.04882887006942855
1.9043259327077133
-1.9043259327077133
-1.416037232013428
1.7090104524299992
-0.6347753109025711
-2.197299153124285
0.8300907911802854
0.43945983062485694
-2.0019836728465705
-0.14648661020828566
1.0254062714579995
-20.45929655909056
-86.8665598535134
-160.89112687876707
-195.8525978484779
-235.8922713054093
-298.5885404745556
-318.3154039826047
-300.54169527733274
-297.4166475928893
-295.36583504997327
-258.7441824979019
-187.06340123598076
-119.3865873197528
-87.15953307392996
-67.62798504615854
-42.72526131074998
-31.396963454642556
-29.346150911726557
-17.334248874647134
-8.642710002288853
-11.767757686732281
-8.44739452201114
-0.7324330510414282
-3.36919203479057
-5.224689097428855
0.7324330510414282
0.8300907911802854
-3.2715342946517127
0.04882887006942855
2.490272373540856
-1.513694972152285
-1.0254062714579995
2.490272373540856
0.14648661020828566
-1.513694972152285
1.7090104524299992
1.416037232013428
-1.2207217517357138
0.7324330510414282
2.0996414129854277
-0.43945983062485694
-0.04882887006942855
2.0019836728465705
0.34180209048599985
-0.6347753109025711
1.416037232013428
1.2207217517357138
-0.43945983062485694
0.6347753109025711
1.513694972152285
-0.04882887006942855
0.04882887006942855
21.92416266117342
78.27267872129397
121.04676890211337
137.3556115053025
191.75097276264592
252.5917448691539
242.82597085526817
217.63027389944304
221.92721446555277
194.77836270695047
152.88319218738079
160.01220721751736
169.19203479056992
142.23849851224537
124.95307850766766
125.92965590905622
115.67559319447624
91.35881589990082
68.21393148699168
66.74906538490883
67.82330052643626
39.600213626306555
18.310826276035705
25.342183566033416
18.701457236591136
1.8066681925688564
7.959105821316854
12.549019607843137
-1.0254062714579995
-1.0254062714579995
8.349736781872283
0.7324330510414282
-4.931715877012284
4.150453955901427
3.076218814373999
-5.127031357289998
0.24414435034714274
4.345769436179141
-3.1738765545128556
-2.5879301136797133
3.7598229953459983
-0.6347753109025711
-3.8574807354848555
2.0019836728465705
1.416037232013428
-3.5645075150682843
-0.04882887006942855
2.392614633401999
-2.197299153124285
-1.8066681925688564
2.0996414129854277
-0.537117570763714
-2.5879301136797133
1.0254062714579995
0.7324330510414282
-17.920195315480278
-54.7371633478294
-66.3584344243534
-51.22148470283055
-72.90150301365682
-96.82764934767681
-47.412832837415124
31.494621194781413
73.58510719462882
72.70618753337911
55.32310978866255
48.38941023880369
39.11192492561227
18.994430457007706
13.330281528953995
16.943617914091707
7.959105821316854
1.7090104524299992
7.470817120622568
5.322346837567712
-1.9043259327077133
1.9043259327077133
4.443427176317998
-1.8066681925688564
-1.416037232013428
3.36919203479057
-0.24414435034714274
-12.060730907148852
-32.37354085603113
-67.53032730601969
-146.63309681849393
-266.0685130083162
-338.628213931487
-343.3157854581521
-354.15579461356526
-368.80445563439383
-334.7219043259327
-251.22453650720988
-161.4770733196002
-110.9880216678111
-87.84313725490196
-59.22941939421683
-39.40489814602884
-36.37750820172427
-25.732814526588847
-11.865415426871138
-12.84199282825971
-12.646677347981994
-2.9785610742351416
-2.2949568932631417
-6.6895551995117115
-1.1230640115968566
1.9043259327077133
-3.2715342946517127
-1.9043259327077133
2.8809033340962844
-0.34180209048599985
-2.197299153124285
2.197299153124285
1.513694972152285
-2.0019836728465705
0.7324330510414282
2.392614633401999
-0.9277485313191425
-0.24414435034714274
2.490272373540856
0.24414435034714274
-0.9277485313191425
1.6113527122911422
1.0254062714579995
-1.0254062714579995
0.7324330510414282
11.767757686732281
30.71335927367056
30.811017013809415
28.857862211032273
68.60456244754711
99.26909285114824
92.14007782101167
117.53109025711451
157.8637369344625
145.75417715724421
128.85938811322194
141.7502098115511
129.93362325474936
109.52315556572823
133.35164415960938
156.00823987182423
144.77759975585565
143.3127336537728
148.7815671015488
132.1797512779431
120.65613794155794
131.49614709697107
147.51201647974364
144.48462653543908
106.10513466086825
73.3897917143511
70.16708628976883
49.85427634088655
20.263981078812847
23.291371023117417
25.537499046311133
5.517662317845426
3.7598229953459983
14.599832150759136
3.466849774929427
-4.150453955901427
7.080186160067139
5.127031357289998
-5.71297779812314
1.2207217517357138
6.005951018539712
-3.8574807354848555
-2.8809033340962844
5.127031357289998
-0.6347753109025711
-4.736400396734569
2.783245593957427
1.9043259327077133
-4.541084916456855
0.04882887006942855
3.1738765545128556
-4.443427176317998
-7.373159380483711
-2.2949568932631417
-1.1230640115968566
0.04882887006942855
5.0293736171511405
2.9785610742351416
-1.9043259327077133
0.7324330510414282
2.392614633401999
-1.6113527122911422
-1.0254062714579995
2.0019836728465705
-0.43945983062485694
-2.0019836728465705
1.0254062714579995
0.43945983062485694
-2.0019836728465705
-0.04882887006942855
-4.541084916456855
-53.760585946440834
-164.79743648432137
-257.962920576791
-266.84977492942704
-264.60364690623334
-299.0768291752499
-308.84260318913556
-281.20546272983904
-254.25192645151446
-220.75532158388648
-165.67635614557108
-113.62478065156023
-93.40962844281681
-93.70260166323338
-78.46799420157168
-46.43625543602655
-31.9829098954757
-30.615701533531702
-17.13893339436942
-7.959105821316854
-12.84199282825971
-9.130998702983138
-0.04882887006942855
-3.7598229953459983
-6.103608758678568
1.2207217517357138
0.9277485313191425
-4.052796215762569
0.34180209048599985
3.076218814373999
-2.0996414129854277
-1.2207217517357138
3.1738765545128556
0.04882887006942855
-1.9043259327077133
2.2949568932631417
1.7090104524299992
-1.6113527122911422
0.7324330510414282
2.392614633401999
-0.8300907911802854
-0.34180209048599985
2.2949568932631417
0.34180209048599985
-0.8300907911802854
1.6113527122911422
1.2207217517357138
-0.7324330510414282
0.8300907911802854
1.7090104524299992
-0.24414435034714274
0.04882887006942855
8.74036774242771
22.21713588158999
21.24055848020142
31.103990234225986
105.7145037003128
186.47745479514762
187.6493476768139
172.0241092545968
191.45799954222935
180.32501716639965
150.3440909437705
166.35996032654307
181.00862134737164
162.06301976043335
166.35996032654307
185.01258869306477
169.87563897154192
142.8244449530785
128.56641489280537
123.19523918516823
111.96459906919966
77.97970550087739
54.053559166857404
55.420767528801406
38.525978484779124
14.11154345006485
18.701457236591136
20.361638818951704
2.783245593957427
2.783245593957427
12.353704127565424
2.0019836728465705
-3.9551384756237127
6.39658197909514
3.7598229953459983
-5.517662317845426
1.3183794918745708
5.127031357289998
-3.7598229953459983
-2.2949568932631417
4.638742656595713
-1.0254062714579995
-4.150453955901427
2.68558785381857
1.416037232013428
-4.052796215762569
0.24414435034714274
2.68558785381857
-2.68558785381857
-1.7090104524299992
2.5879301136797133
-0.8300907911802854
-2.783245593957427
1.416037232013428
0.7324330510414282
-2.68558785381857
0.04882887006942855
1.513694972152285
-1.8066681925688564
-1.2207217517357138
1.416037232013428
-0.6347753109025711
-1.8066681925688564
0.7324330510414282
0.24414435034714274
-1.8066681925688564
-0.14648661020828566
0.7324330510414282
-1.3183794918745708
-0.8300907911802854
0.7324330510414282
-0.537117570763714
-1.2207217517357138
0.34180209048599985
0.04882887006942855
-26.318760967421987
-97.51125352864881
-158.74265659571222
-183.93835355153735
-235.11100938429846
-295.85412375066755
-312.16296635385675
-319.487296864271
-331.3038834210727
-310.3074692912184
-247.8065156023499
-166.45761806668193
-108.74189364461738
-84.52277409018082
-61.37788967727169
-38.33066300450141
-32.56885633630884
-27.295338368810558
-13.330281528953995
-9.81460288395514
-12.45136186770428
-5.322346837567712
-0.8300907911802854
-5.420004577706569
-3.5645075150682843
1.8066681925688564
-1.2207217517357138
-2.9785610742351416
1.8066681925688564
1.3183794918745708
-2.197299153124285
0.6347753109025711
2.392614633401999
-1.0254062714579995
-0.43945983062485694
2.490272373540856
0.24414435034714274
-1.0254062714579995
1.7090104524299992
1.1230640115968566
-0.9277485313191425
0.8300907911802854
1.9043259327077133
-0.34180209048599985
0.04882887006942855
6.005951018539712
13.427939269092851
12.549019607843137
24.756237125200276
88.72205691615167
154.4457160296025
152.98084992751964
143.60570687418937
164.11383230334937
142.53147173266194
96.33936064698253
96.82764934767681
95.65575646601053
59.91302357518883
53.36995498588541
71.92492561226825
61.96383611810483
55.32310978866255
76.90547035934996
77.00312809948882
60.694285496299685
74.65934233615626
99.17143511100939
118.31235217822538
153.9574273289082
192.9228656443122
202.4933241779202
161.9653620202945
81.78835736629281
16.357671473258563
-2.68558785381857
9.130998702983138
45.069047074082555
77.88204776073853
58.54581521324483
20.947585259784848
22.510109102006563
25.049210345616846
3.466849774929427
3.076218814373999
15.674067292286564
3.076218814373999
-5.127031357289998
7.861448081177996
5.322346837567712
-6.982528419928283
0.8300907911802854
6.201266498817426
-4.541084916456855
-2.8809033340962844
6.201266498817426
-0.7324330510414282
-5.127031357289998
3.466849774929427
2.197299153124285
-5.0293736171511405
0.24414435034714274
3.662165255207141
-3.1738765545128556
-2.197299153124285
3.36919203479057
-0.8300907911802854
-3.466849774929427
1.9043259327077133
1.1230640115968566
-3.2715342946517127
0.04882887006942855
2.0996414129854277
-2.0996414129854277
-1.6113527122911422
1.9043259327077133
-0.6347753109025711
-2.2949568932631417
1.0254062714579995
0.537117570763714
-22.021820401312276
-78.07736324101626
-131.2031738765545
-169.97329671168077
-239.40794995040818
-303.17845426108187
-305.91287098496986
-300.346379797055
-316.069275959411
-306.59647516594185
-254.74021515220875
-183.1570916304265
-129.1523613336385
-102.19882505531396
-73.09681849393453
-44.77607385366598
-37.74471656366827
-31.494621194781413
-15.185778591592278
-11.181811245899137
-14.50217441062028
-6.39658197909514
-1.3183794918745708
-6.591897459372854
-4.248111696040284
2.0996414129854277
-1.1230640115968566
-2.9785610742351416
2.0996414129854277
1.0254062714579995
-3.076218814373999
0.43945983062485694
2.490272373540856
-1.3183794918745708
-0.14648661020828566
3.2715342946517127
0.24414435034714274
-1.513694972152285
1.7090104524299992
1.1230640115968566
-1.416037232013428
0.7324330510414282
2.197299153124285
-0.24414435034714274
-0.14648661020828566
1.6113527122911422
0.04882887006942855
-0.7324330510414282
1.3183794918745708
1.1230640115968566
-0.04882887006942855
1.2207217517357138
32.95948729686427
124.46478980697337
227.4937056534676
311.284046692607
389.3125810635538
401.0315098802167
334.1359578850996
273.0998702983139
241.36110475318532
209.62233920805676
162.06301976043335
107.08171206225681
74.36636911573969
61.182574196993976
41.358052948805984
25.24452582589456
24.267948424505988
18.60379949645228
7.373159380483711
7.861448081177996
9.619287403677424
2.197299153124285
0.537117570763714
5.0293736171511405
1.513694972152285
-2.0019836728465705
2.0996414129854277
2.0019836728465705
-2.2949568932631417
-0.14648661020828566
2.0996414129854277
-1.416037232013428
-1.6113527122911422
1.6113527122911422
-0.14648661020828566
-2.0996414129854277
0.6347753109025711
0.7324330510414282
-1.9043259327077133
-0.43945983062485694
1.0254062714579995
-1.1230640115968566
-1.1230640115968566
0.8300907911802854
-0.24414435034714274
-1.416037232013428
0.14648661020828566
0.24414435034714274
-1.3183794918745708
-0.43945983062485694
0.537117570763714
-0.8300907911802854
-0.8300907911802854
0.34180209048599985
-0.34180209048599985
-1.1230640115968566
0.04882887006942855
0.04882887006942855
-0.9277485313191425
-0.34180209048599985
0.14648661020828566
-0.537117570763714
-0.6347753109025711
0.04882887006942855
-0.34180209048599985
-0.8300907911802854
-0.14648661020828566
-0.04882887006942855
-0.6347753109025711
-0.34180209048599985
0.04882887006942855
-0.537117570763714
-0.537117570763714
-0.04882887006942855
-0.34180209048599985
-0.6347753109025711
-0.14648661020828566
-0.14648661020828566
-0.537117570763714
-0.34180209048599985
-0.14648661020828566
-0.43945983062485694
-0.537117570763714
-0.14648661020828566
-39.014267185473415
-191.3603418020905
-411.4808880750744
-535.3109025711452
-506.79484245059894
-398.59006637674526
-286.9672693980316
-204.5441367208362
-143.3127336537728
-99.3667505912871
-75.73357747768368
-57.37392233157855
-38.03768978408484
-28.369573510337986
-23.779659723811704
-14.697489890897993
-9.033340962844282
-9.42397192339971
-5.908293278400855
-1.416037232013428
-2.9785610742351416
-3.466849774929427
0.04882887006942855
-0.24414435034714274
-2.0019836728465705
0.34180209048599985
1.7090104524299992
-0.34180209048599985
-0.04882887006942855
1.416037232013428
-0.14648661020828566
-0.6347753109025711
1.2207217517357138
1.0254062714579995
0.04882887006942855
1.1230640115968566
1.3183794918745708
-0.24414435034714274
0.04882887006942855
2.392614633401999
4.052796215762569
3.7598229953459983
12.74433508812085
44.580758373388264
67.53032730601969
50.34256504158083
47.60814831769284
82.96025024795911
83.15556572823682
63.233386739909974
90.87052719920653
112.25757228961623
94.77683680476082
107.17936980239567
137.55092698558022
124.95307850766766
110.59739070725567
127.19920653086137
126.71091783016709
120.26550698100252
151.12535286488136
177.6882581826505
168.9967193102922
161.57473105973907
163.23491264209963
151.22301060502022
118.70298313878081
83.15556572823682
77.58907454032196
78.95628290226597
45.55733577477684
21.045242999923705
30.322728313115128
22.021820401312276
1.6113527122911422
9.619287403677424
15.088120851453422
-1.513694972152285
-1.2207217517357138
10.302891584649425
0.7324330510414282
-5.908293278400855
5.322346837567712
3.7598229953459983
-14.50217441062028
-24.95155260547799
-19.971007858396277
-7.080186160067139
10.009918364232853
19.287403677424276
9.033340962844282
1.7090104524299992
8.44739452201114
5.615320057984283
-14.11154345006485
-32.95948729686427
-29.834439612420844
-5.71297779812314
19.58037689784085
27.392996108949415
13.232623788815136
3.36919203479057
8.154421301594567
5.322346837567712
-1.7090104524299992
2.490272373540856
4.736400396734569
-1.9043259327077133
-1.0254062714579995
3.662165255207141
-0.9277485313191425
-25.732814526588847
-79.44457160296025
-133.83993286030366
-186.9657434958419
-258.4512092774853
-293.9009689478904
-282.8656443121996
-297.2213321126116
-323.1006332494087
-298.3932249942779
-233.74380102235446
-171.0475318532082
-135.1094834821088
-111.47631036850538
-73.87808041504539
-46.14328221560998
-42.529945830472265
-31.103990234225986
-13.81857022964828
-14.50217441062028
-15.381094071869994
-3.8574807354848555
-2.5879301136797133
-8.642710002288853
-2.2949568932631417
2.392614633401999
-3.7598229953459983
-2.392614633401999
3.8574807354848555
-0.24414435034714274
-3.36919203479057
2.197299153124285
1.8066681925688564
-2.5879301136797133
0.7324330510414282
3.466849774929427
-0.8300907911802854
-0.6347753109025711
2.68558785381857
0.04882887006942855
-1.6113527122911422
1.8066681925688564
1.6113527122911422
-0.9277485313191425
1.0254062714579995
2.197299153124285
-0.6347753109025711
-0.43945983062485694
1.8066681925688564
0.34180209048599985
-0.537117570763714
1.7090104524299992
5.71297779812314
12.45136186770428
33.545433737697415
102.29648279545282
187.94232089723047
195.65728236820019
160.89112687876707
172.2194247348745
175.05149919890135
138.7228198672465
141.16426337071795
169.87563897154192
159.7192339971008
153.85976958876935
184.13366903181506
190.6767376211185
160.89112687876707
137.74624246585793
139.79705500877392
142.23849851224537
105.12855725947966
57.08094911116198
47.11985961699855
42.04165712977798
18.21316853589685
13.232623788815136
21.338216220340275
8.642710002288853
-0.43945983062485694
9.521629663538567
6.982528419928283
-4.150453955901427
2.0996414129854277
6.591897459372854
-3.1738765545128556
-2.490272373540856
5.224689097428855
-0.34180209048599985
-4.443427176317998
2.783245593957427
2.0019836728465705
-4.248111696040284
0.04882887006942855
3.076218814373999
-2.68558785381857
-2.0996414129854277
2.783245593957427
-0.537117570763714
-3.076218814373999
1.513694972152285
1.0254062714579995
-2.8809033340962844
-0.14648661020828566
1.7090104524299992
-1.8066681925688564
-1.416037232013428
1.6113527122911422
-0.537117570763714
-2.0019836728465705
0.8300907911802854
0.43945983062485694
-1.9043259327077133
-0.24414435034714274
0.9277485313191425
-1.2207217517357138
-1.0254062714579995
0.8300907911802854
-6.787212939650568
-47.90112153810941
-118.70298313878081
-164.11383230334937
-190.09079118028535
-241.6540779736019
-271.9279774166476
-264.99427786678876
-285.89303425650417
-314.89738307774473
-289.99465934233615
-227.10307469291217
-168.60608834973678
-134.13290608072023
-109.32784008545052
-72.80384527351796
-46.240939955748836
-41.45571068894484
-30.22507057297627
-14.209201190203707
-14.306858930342566
-14.50217441062028
-4.052796215762569
-2.9785610742351416
-8.05676356145571
-2.197299153124285
1.9043259327077133
-3.466849774929427
-2.197299153124285
3.2715342946517127
-0.34180209048599985
-2.8809033340962844
2.0019836728465705
1.7090104524299992
-2.0996414129854277
0.9277485313191425
3.2715342946517127
-0.537117570763714
-0.43945983062485694
2.392614633401999
0.04882887006942855
-1.416037232013428
1.6113527122911422
1.416037232013428
-0.6347753109025711
1.1230640115968566
2.0019836728465705
-0.6347753109025711
-0.43945983062485694
1.6113527122911422
0.24414435034714274
-0.43945983062485694
1.6113527122911422
1.416037232013428
-0.43945983062485694
3.662165255207141
28.564888990615703
63.13572899977112
59.13176165407798
46.533913176165406
87.64782177462425
119.67956054016938
106.39810788128482
122.21866178377967
152.68787670710307
133.7422751201648
114.50370031280995
129.44533455405508
120.94911116197451
100.44098573281453
118.70298313878081
136.4766918440528
128.07812619211109
134.71885252155337
146.53543907835507
129.8359655146105
113.33180743114366
115.67559319447624
117.3357747768368
108.15594720378424
87.84313725490196
82.27664606698711
91.35881589990082
66.26077668421455
28.564888990615703
29.150835431448844
30.127412832837415
7.373159380483711
5.71297779812314
17.334248874647134
4.443427176317998
-4.052796215762569
8.44739452201114
5.71297779812314
-6.201266498817426
1.6113527122911422
6.787212939650568
-4.150453955901427
-2.9785610742351416
5.908293278400855
-0.7324330510414282
-5.420004577706569
2.392614633401999
-1.2207217517357138
-41.943999389639124
-117.04280155642023
-162.55130846112763
-151.90661478599222
-143.70336461432822
-120.46082246128023
-29.443808651865414
76.41718165865568
130.5195696955825
128.4687571526665
104.93324177920195
92.82368200198367
73.68276493476768
39.5025558861677
27.49065384908827
30.22507057297627
15.967040512703136
5.810635538261997
13.232623788815136
9.521629663538567
-1.416037232013428
3.662165255207141
2.0019836728465705
-57.95986877241169
-189.21187151903564
-311.38170443274583
-356.1089494163424
-369.19508659494926
-385.40627145799954
-371.3435568780041
-305.4245822842756
-210.2082856488899
-140.67597467002366
-110.10910200656139
-78.85862516212711
-48.584725719081405
-41.651026169222554
-34.717326619363696
-16.84596017395285
-13.13496604867628
-16.650644693675137
-6.982528419928283
-1.3183794918745708
-7.373159380483711
-4.150453955901427
2.8809033340962844
-1.9043259327077133
-4.443427176317998
2.0019836728465705
1.0254062714579995
-3.36919203479057
0.8300907911802854
3.2715342946517127
-1.3183794918745708
-0.537117570763714
2.8809033340962844
-0.24414435034714274
-1.8066681925688564
2.0996414129854277
1.513694972152285
-1.1230640115968566
1.3183794918745708
2.2949568932631417
-0.9277485313191425
-0.34180209048599985
2.0019836728465705
0.14648661020828566
-0.6347753109025711
30.615701533531702
123.4882124055848
211.5754940108339
221.24361028458077
223.78271152819104
263.2364385442893
260.8926527809567
229.64217593652248
239.99389639124132
245.7557030594339
204.44647898069735
162.25833524071106
146.14480811779964
138.0392156862745
110.79270618753338
70.36240177004655
54.7371633478294
52.6863508049134
30.615701533531702
15.185778591592278
21.43587396047913
15.381094071869994
1.416037232013428
6.787212939650568
10.205233844510566
-1.0254062714579995
-0.7324330510414282
6.884870679789426
0.24414435034714274
-4.052796215762569
3.5645075150682843
2.392614633401999
-4.248111696040284
0.34180209048599985
3.466849774929427
-2.68558785381857
-2.0019836728465705
2.9785610742351416
-0.7324330510414282
-3.1738765545128556
1.6113527122911422
1.0254062714579995
-2.9785610742351416
-0.04882887006942855
1.8066681925688564
-2.0019836728465705
-1.416037232013428
1.7090104524299992
-0.537117570763714
-2.0996414129854277
0.8300907911802854
0.43945983062485694
-13.720912489509422
-38.23300526436255
-40.67444876783398
-31.885252155336843
-62.061493858243686
-86.67124437323568
-37.549401083390556
43.018234531166556
81.10475318532082
63.72167544060426
32.6665140764477
22.998397802700847
19.385061417563133
8.252079041733426
6.39658197909514
10.302891584649425
4.150453955901427
-0.14648661020828566
4.541084916456855
3.1738765545128556
-2.0996414129854277
0.9277485313191425
2.8809033340962844
-1.7090104524299992
-1.3183794918745708
2.2949568932631417
-9.521629663538567
-59.815365835049974
-139.79705500877392
-199.85656519417105
-251.02922102693216
-329.5460440985733
-379.74212252994585
-362.84733348592357
-316.85053788052187
-268.3146410315099
-220.16937514305334
-164.21149004348823
-106.8863965819791
-75.53826199740597
-61.768520637827116
-40.86976424811169
-25.92813000686656
-25.049210345616846
-17.724879835202564
-6.982528419928283
-8.44739452201114
-9.326314183260854
-1.7090104524299992
-1.1230640115968566
-5.127031357289998
-0.7324330510414282
2.2949568932631417
-2.0019836728465705
-1.416037232013428
2.2949568932631417
-0.34180209048599985
-1.9043259327077133
1.9043259327077133
1.6113527122911422
-1.1230640115968566
1.0254062714579995
2.197299153124285
-0.8300907911802854
-0.537117570763714
1.8066681925688564
0.14648661020828566
-0.7324330510414282
1.7090104524299992
1.513694972152285
-0.537117570763714
6.39658197909514
41.84634164950027
90.08926527809568
91.55413138017853
76.71015487907225
113.33180743114366
139.30876630807964
120.85145342183566
133.7422751201648
166.7505912870985
159.9145494773785
159.0356298161288
190.48142214084078
190.57907988097963
164.5044632639048
160.01220721751736
143.60570687418937
102.7847714961471
90.2845807583734
98.78080415045396
88.03845273517967
73.29213397421225
70.94834821087969
79.24925612268254
83.93682764934768
61.768520637827116
45.26436255436027
52.49103532463569
35.79156176089113
9.228656443121995
16.55298695353628
20.16632333867399
0.6347753109025711
1.3183794918745708
13.037308308537423
1.3183794918745708
-5.420004577706569
6.982528419928283
4.248111696040284
-13.330281528953995
-19.48271915770199
-14.795147631036851
-25.63515678644999
-67.53032730601969
-98.39017318989853
-84.62043183031967
-80.42114900434882
-106.98405432211796
-104.1519798580911
-77.19844357976653
-76.41718165865568
-71.92492561226825
-40.28381780727855
-26.318760967421987
-26.90470740825513
-5.0293736171511405
13.81857022964828
11.47478446631571
21.24055848020142
39.307240405889985
36.27985046158541
32.37354085603113
45.85030899519341
54.932478828107115
56.88563363088426
70.94834821087969
108.44892042420081
136.28137636377508
101.02693217364767
46.92454413672083
42.04165712977798
40.772106507972836
12.45136186770428
9.619287403677424
22.90074006256199
6.982528419928283
-3.7598229953459983
10.986495765621424
7.666132600900283
-6.982528419928283
2.2949568932631417
8.44739452201114
-18.21316853589685
-66.65140764476998
-117.53109025711451
-163.23491264209963
-222.02487220569162
-282.57267109178304
-298.68619821469446
-290.3852903028916
-301.90890363927673
-313.334859235523
-284.7211413748379
-210.30594338902876
-137.1602960250248
-106.78873884184024
-85.0110627908751
-49.951934081025406
-36.57282368200198
-37.35408560311284
-20.263981078812847
-8.349736781872283
-15.283436331731137
-11.08415350576028
0.34180209048599985
-4.834058136873426
-8.05676356145571
1.8066681925688564
1.513694972152285
-5.127031357289998
0.6347753109025711
4.052796215762569
-2.9785610742351416
-2.0019836728465705
3.9551384756237127
-0.04882887006942855
-2.68558785381857
2.9785610742351416
2.2949568932631417
-2.392614633401999
0.7324330510414282
2.8809033340962844
-1.3183794918745708
-0.7324330510414282
2.8809033340962844
0.34180209048599985
-1.3183794918745708
1.9043259327077133
1.3183794918745708
-1.416037232013428
0.6347753109025711
2.0996414129854277
-0.34180209048599985
0.04882887006942855
13.330281528953995
37.06111238269627
41.16273746852827
41.5533684290837
99.26909285114824
167.82482642862593
169.38735027084763
162.94193942168306
187.6493476768139
176.02807660028992
146.4377813382162
164.60212100404365
183.64538033112078
171.34050507362477
178.86015106431677
195.07133592736704
177.0046540016785
147.8049897001602
130.81254291599907
125.34370946822308
112.25757228961623
72.5108720531014
45.947966735332265
48.78004119935912
33.838406958113985
11.181811245899137
16.943617914091707
18.89677271686885
1.6113527122911422
2.0996414129854277
11.767757686732281
1.3183794918745708
-4.345769436179141
6.201266498817426
3.5645075150682843
-5.517662317845426
1.3183794918745708
4.931715877012284
-3.9551384756237127
-2.2949568932631417
4.541084916456855
-1.0254062714579995
-4.052796215762569
2.783245593957427
1.3183794918745708
-4.052796215762569
0.34180209048599985
2.5879301136797133
-2.783245593957427
-1.7090104524299992
2.5879301136797133
-0.8300907911802854
-2.68558785381857
1.513694972152285
0.6347753109025711
-2.783245593957427
0.04882887006942855
1.416037232013428
-1.8066681925688564
-1.1230640115968566
1.513694972152285
-0.6347753109025711
-1.8066681925688564
0.7324330510414282
0.14648661020828566
-1.8066681925688564
-0.04882887006942855
0.7324330510414282
-1.2207217517357138
-0.8300907911802854
0.8300907911802854
-0.537117570763714
-1.3183794918745708
0.24414435034714274
0.04882887006942855
-1.2207217517357138
-0.14648661020828566
0.34180209048599985
-29.63912413214313
-121.92568856336308
-213.13801785305563
-230.7164110780499
-229.1538872358282
-239.99389639124132
-210.69657434958418
-181.7898832684825
-231.20469977874419
-306.9871061264973
-313.04188601510646
-239.40794995040818
-153.46913862821393
-108.64423590447852
-82.27664606698711
-51.80743114366369
-38.23300526436255
-35.889219501029984
-21.43587396047913
-10.79118028534371
-14.50217441062028
-10.498207064927138
-1.3183794918745708
-4.345769436179141
-6.494239719233997
0.7324330510414282
0.8300907911802854
-4.150453955901427
-0.14648661020828566
2.68558785381857
-2.0019836728465705
-1.3183794918745708
2.9785610742351416
0.14648661020828566
-1.7090104524299992
2.197299153124285
1.7090104524299992
-1.7090104524299992
0.6347753109025711
2.392614633401999
-0.537117570763714
-0.14648661020828566
2.392614633401999
0.34180209048599985
-0.9277485313191425
4.052796215762569
13.13496604867628
19.092088197146563
19.971007858396277
38.62363622491798
69.0928511482414
59.522392614633404
45.16670481422141
86.57358663309682
113.9177538719768
90.67521171892882
91.06584267948425
106.00747692072939
81.10475318532082
65.08888380254825
86.76890211337454
86.47592889295797
70.36240177004655
81.78835736629281
83.25322346837568
60.987258716716255
67.0420386053254
91.55413138017853
92.5307087815671
97.41359578850995
124.8554207675288
135.40245670252537
127.19920653086137
129.1523613336385
129.05470359349965
112.15991454947738
93.11665522240024
87.45250629434653
91.26115815976196
78.17502098115511
50.635538261997404
52.78400854505226
62.54978255893797
32.08056763561456
7.275501640344854
15.576409552147707
8.74036774242771
-13.720912489509422
-17.334248874647134
-9.71694514381628
-14.209201190203707
-24.267948424505988
-24.267948424505988
-16.260013733119706
-6.201266498817426
-1.9043259327077133
-2.783245593957427
12.646677347981994
43.311207751583126
45.75265125505455
16.84596017395285
9.42397192339971
18.701457236591136
6.201266498817426
-2.392614633401999
9.130998702983138
6.591897459372854
-5.322346837567712
1.8066681925688564
6.884870679789426
-3.662165255207141
-2.783245593957427
5.71297779812314
-0.537117570763714
-4.931715877012284
2.9785610742351416
2.0996414129854277
-4.736400396734569
0.04882887006942855
3.466849774929427
-23.58434424353399
-92.14007782101167
-158.44968337529565
-182.37582970931564
-211.47783627069504
-264.8966201266499
-284.623483634699
-280.2288853284505
-298.979171435111
-317.6317998016327
-289.2133974212253
-209.71999694819561
-131.0078583962768
-95.9487296864271
-75.2452887769894
-45.85030899519341
-33.838406958113985
-33.3501182574197
-18.994430457007706
-8.74036774242771
-13.81857022964828
-10.009918364232853
-0.14648661020828566
-3.9551384756237127
-6.494239719233997
1.416037232013428
1.2207217517357138
-4.345769436179141
0.04882887006942855
3.076218814373999
-2.2949568932631417
-1.513694972152285
3.2715342946517127
0.14648661020828566
-1.9043259327077133
2.392614633401999
1.8066681925688564
-1.9043259327077133
0.6347753109025711
2.490272373540856
-0.8300907911802854
-0.24414435034714274
2.68558785381857
0.34180209048599985
-1.1230640115968566
1.416037232013428
1.1230640115968566
-1.0254062714579995
0.7324330510414282
14.209201190203707
37.549401083390556
48.19409475852598
77.29610131990539
156.00823987182423
197.80575265125506
173.5866330968185
175.24681467917907
191.75097276264592
155.03166247043563
121.73037308308537
133.15632867933166
123.87884336614023
100.14801251239795
117.72640573739223
136.76966506446936
131.49614709697107
144.48462653543908
172.51239795529108
177.8835736629282
142.23849851224537
89.21034561684596
70.4600595101854
69.48348210879682
40.186160067139696
19.18974593728542
28.27191577019913
20.45929655909056
1.6113527122911422
8.935683222705425
13.81857022964828
-1.416037232013428
-1.1230640115968566
9.42397192339971
0.537117570763714
-5.517662317845426
4.931715877012284
3.466849774929427
-5.71297779812314
0.537117570763714
4.834058136873426
-3.662165255207141
-2.68558785381857
4.345769436179141
-0.7324330510414282
-4.248111696040284
2.392614633401999
1.6113527122911422
-3.9551384756237127
0.04882887006942855
2.68558785381857
-2.490272373540856
-1.8066681925688564
2.490272373540856
-0.6347753109025711
-2.783245593957427
1.2207217517357138
0.7324330510414282
-2.68558785381857
-0.04882887006942855
1.513694972152285
-1.7090104524299992
-1.2207217517357138
1.416037232013428
-0.537117570763714
-1.9043259327077133
0.6347753109025711
0.34180209048599985
-1.8066681925688564
-0.14648661020828566
0.8300907911802854
-1.1230640115968566
-0.9277485313191425
0.7324330510414282
-0.537117570763714
-16.45532921339742
-48.68238345922026
-65.8701457236591
-90.2845807583734
-161.37941557946135
-209.81765468833447
-206.49729152361334
-226.1264972915236
-252.20111390859847
-229.3492027161059
-212.25909819180592
-229.3492027161059
-224.85694666971847
-190.96971084153506
-158.05905241474022
-140.67597467002366
-128.66407263294423
-92.82368200198367
-52.588693064774546
-43.40886549172198
-37.549401083390556
-17.236591134508277
-12.84199282825971
-18.40848401617456
-7.666132600900283
-0.537117570763714
-8.154421301594567
-5.420004577706569
3.36919203479057
-1.513694972152285
-4.736400396734569
2.783245593957427
1.8066681925688564
-4.150453955901427
0.6347753109025711
3.7598229953459983
-2.0019836728465705
-1.0254062714579995
3.7598229953459983
0.04882887006942855
-2.197299153124285
2.392614633401999
1.7090104524299992
-2.0019836728465705
0.8300907911802854
2.783245593957427
-0.8300907911802854
-0.43945983062485694
2.2949568932631417
0.04882887006942855
-1.2207217517357138
1.6113527122911422
3.5645075150682843
6.103608758678568
14.306858930342566
45.654993514915695
90.2845807583734
90.2845807583734
75.9288929579614
112.94117647058823
137.45326924544136
117.43343251697566
129.05470359349965
158.3520256351568
143.70336461432822
131.59380483710993
150.8323796444648
142.14084077210651
118.60532539864195
131.59380483710993
139.11345082780193
116.84748607614252
113.52712291142137
124.07415884641794
111.47631036850538
92.43305104142824
83.93682764934768
80.9094377050431
76.31952391851682
61.37788967727169
61.37788967727169
76.71015487907225
55.61608300907912
20.55695429922942
23.87731746395056
26.416418707560844
4.052796215762569
3.466849774929427
15.967040512703136
3.1738765545128556
-5.127031357289998
8.05676356145571
5.420004577706569
-6.787212939650568
1.513694972152285
6.787212939650568
-4.541084916456855
-3.076218814373999
6.005951018539712
-0.9277485313191425
-5.322346837567712
3.466849774929427
2.0996414129854277
-5.127031357289998
0.24414435034714274
3.662165255207141
-3.2715342946517127
-2.197299153124285
3.466849774929427
-0.8300907911802854
-3.5645075150682843
1.9043259327077133
1.0254062714579995
-3.36919203479057
0.04882887006942855
2.0996414129854277
-2.0996414129854277
-1.513694972152285
1.9043259327077133
-0.7324330510414282
-2.392614633401999
1.0254062714579995
0.537117570763714
-2.197299153124285
-0.04882887006942855
-3.7598229953459983
-53.17463950560769
-168.1177996490425
-265.28725108720533
-274.8577096208133
-273.58815899900816
-302.49485008010987
-284.623483634699
-224.27100022888533
-195.26665140764476
-192.53223468375677
-182.18051422903793
-156.9848172732128
-128.66407263294423
-111.28099488822767
-85.6946669718471
-49.365987640192266
-35.596246280613414
-34.32669565880827
-18.994430457007706
-9.619287403677424
-14.990463111314565
-9.81460288395514
-0.14648661020828566
-4.736400396734569
-6.591897459372854
1.6113527122911422
0.6347753109025711
-4.736400396734569
0.43945983062485694
3.076218814373999
-2.5879301136797133
-0.9277485313191425
3.662165255207141
-0.24414435034714274
-2.197299153124285
2.392614633401999
1.416037232013428
-2.0019836728465705
1.1230640115968566
2.68558785381857
-0.9277485313191425
-0.24414435034714274
2.490272373540856
0.04882887006942855
-1.0254062714579995
1.8066681925688564
1.2207217517357138
-0.8300907911802854
1.0254062714579995
18.21316853589685
50.635538261997404
64.01464866102083
86.37827115281911
160.5981536583505
206.00900282291906
190.1884489204242
198.58701457236592
223.29442282749676
205.0324254215305
192.4345769436179
214.9935149156939
212.5520714122225
181.88754100862135
166.35996032654307
170.55924315251391
165.8716716258488
121.53505760280765
69.28816662851911
55.03013656824598
47.11985961699855
22.803082322423133
16.748302433813993
22.998397802700847
10.302891584649425
1.3183794918745708
10.10757610437171
7.275501640344854
-3.1738765545128556
2.392614633401999
6.39658197909514
-2.68558785381857
-2.0019836728465705
5.0293736171511405
-0.24414435034714274
-4.052796215762569
2.5879301136797133
1.8066681925688564
-3.9551384756237127
0.04882887006942855
2.8809033340962844
-2.490272373540856
-1.9043259327077133
2.5879301136797133
-0.6347753109025711
-2.8809033340962844
1.3183794918745708
0.8300907911802854
-2.9785610742351416
-1.2207217517357138
0.43945983062485694
-18.40848401617456
-69.58113984893568
-112.84351873044938
-124.66010528725108
-161.57473105973907
-202.4933241779202
-135.3047989623865
14.892805371175708
121.63271534294651
148.0979629205768
132.66803997863738
112.84351873044938
90.87052719920653
55.713740749217976
33.3501182574197
33.05714503700313
23.682001983672848
9.521629663538567
11.963073167009995
12.646677347981994
-17.041275654230564
-78.46799420157168
-126.22262912947281
-131.10551613641564
-147.31670099946592
-189.5048447394522
-192.72755016403448
-173.29365987640193
-192.2392614633402
-219.68108644235903
-225.54055085069047
-239.89623865110246
-260.3067063401236
-251.90814068818187
-194.77836270695047
-118.41000991836424
-81.88601510643167
-71.53429465171283
-44.09246967269398
-25.732814526588847
-30.518043793392845
-21.338216220340275
-4.931715877012284
-10.009918364232853
-12.549019607843137
0.14648661020828566
-0.34180209048599985
-8.252079041733426
-0.537117570763714
3.9551384756237127
-4.052796215762569
-2.2949568932631417
4.834058136873426
-0.43945983062485694
-3.5645075150682843
3.1738765545128556
2.0019836728465705
-3.2715342946517127
1.1230640115968566
3.662165255207141
-1.6113527122911422
-0.8300907911802854
3.36919203479057
0.04882887006942855
-1.9043259327077133
2.2949568932631417
4.052796215762569
5.810635538261997
16.943617914091707
54.932478828107115
107.47234302281224
118.89829861905852
118.89829861905852
166.94590676737621
196.1455710688945
171.63347829404134
167.04356450751507
173.19600213626308
134.2305638208591
93.99557488364995
84.13214312962539
58.1551842526894
33.93606469825284
56.39734493018997
77.29610131990539
67.62798504615854
71.04600595101854
83.6438544289311
75.44060425726711
74.95231555657283
99.95269703212024
120.0701915007248
118.99595635919738
102.98008697642481
99.85503929198138
108.15594720378424
77.68673228046082
20.263981078812847
-9.521629663538567
-8.935683222705425
4.541084916456855
32.37354085603113
47.412832837415124
22.412451361867703
0.7324330510414282
4.248111696040284
-1.416037232013428
-18.506141756313422
-25.732814526588847
-18.994430457007706
-15.771725032425422
-29.346150911726557
-41.5533684290837
-43.311207751583126
-61.5732051575494
-90.47989623865111
-84.03448538948653
-56.59266041046769
-51.709773403524835
-43.50652323186084
-10.009918364232853
15.869382772564279
30.518043793392845
58.8387884336614
100.83161669336995
119.58190280003052
84.71808957045853
44.38544289311055
47.412832837415124
46.04562447547112
16.943617914091707
12.158388647287708
23.389028763256274
7.959105821316854
-2.490272373540856
10.986495765621424
7.666132600900283
-6.103608758678568
2.490272373540856
8.154421301594567
-4.345769436179141
-3.076218814373999
6.787212939650568
-0.7324330510414282
-5.71297779812314
3.7598229953459983
2.490272373540856
-14.892805371175708
-38.03768978408484
-67.33501182574197
-123.19523918516823
-218.21622034027618
-287.8461890592813
-283.1586175326162
-274.8577096208133
-300.05340657663845
-304.83863584344243
-273.002212558175
-224.66163118944075
-181.7898832684825
-149.85580224307623
-104.54261081864652
-62.45212481879911
-52.19806210421912
-43.11589227130541
-21.43587396047913
-16.943617914091707
-20.654612039368278
-8.642710002288853
-1.9043259327077133
-9.130998702983138
-5.322346837567712
2.8809033340962844
-2.68558785381857
-5.0293736171511405
2.68558785381857
1.2207217517357138
-4.052796215762569
1.0254062714579995
3.466849774929427
-2.197299153124285
-0.8300907911802854
3.5645075150682843
-0.24414435034714274
-2.0019836728465705
2.5879301136797133
1.513694972152285
-1.8066681925688564
1.2207217517357138
2.392614633401999
-1.3183794918745708
-0.43945983062485694
2.392614633401999
0.04882887006942855
-0.8300907911802854
2.0019836728465705
4.931715877012284
10.400549324788281
26.123445487144274
78.27267872129397
149.85580224307623
164.6997787441825
151.41832608529793
183.3524071107042
200.34485389486534
173.5866330968185
180.12970168612193
204.83710994125278
185.50087739375905
167.72716868848707
184.81727321278706
185.4032196536202
158.44968337529565
134.71885252155337
129.73830777447165
127.98046845197223
93.01899748226138
49.85427634088655
42.43228809033341
38.1353475242237
15.674067292286564
11.865415426871138
19.58037689784085
7.373159380483711
-0.6347753109025711
8.935683222705425
6.103608758678568
-4.150453955901427
2.0996414129854277
6.201266498817426
-3.1738765545128556
-2.197299153124285
4.931715877012284
-0.6347753109025711
-4.248111696040284
2.783245593957427
1.7090104524299992
-4.150453955901427
0.14648661020828566
2.9785610742351416
-2.68558785381857
-1.9043259327077133
2.5879301136797133
-0.7324330510414282
-2.8809033340962844
1.416037232013428
0.8300907911802854
-2.783245593957427
-0.04882887006942855
1.513694972152285
-1.8066681925688564
-1.3183794918745708
1.513694972152285
-0.537117570763714
-7.763790341039139
-17.43190661478599
-17.627222095063708
-3.5645075150682843
10.79118028534371
12.939650568398566
5.810635538261997
2.490272373540856
3.7598229953459983
1.513694972152285
-0.43945983062485694
1.6113527122911422
1.3183794918745708
-1.1230640115968566
-0.04882887006942855
1.1230640115968566
-0.8300907911802854
-0.9277485313191425
0.8300907911802854
-0.14648661020828566
-1.3183794918745708
0.14648661020828566
-6.787212939650568
-55.22545204852369
-141.65255207141223
-176.02807660028992
-140.67597467002366
-145.46120393682764
-213.04036011291677
-287.6508735790036
-357.1831845578698
-385.5039291981384
-342.2415503166247
-256.2050812542916
-166.16464484626536
-109.91378652628366
-87.25719081406882
-62.84275577935454
-39.893186846723125
-34.52201113908598
-27.68596932936599
-13.330281528953995
-10.79118028534371
-12.84199282825971
-4.834058136873426
-1.2207217517357138
-6.005951018539712
-3.076218814373999
2.0019836728465705
-1.7090104524299992
-2.9785610742351416
2.0019836728465705
0.8300907911802854
-2.2949568932631417
1.0254062714579995
2.2949568932631417
-1.3183794918745708
-0.24414435034714274
2.490272373540856
0.04882887006942855
-0.8300907911802854
2.0019836728465705
1.0254062714579995
-1.0254062714579995
1.0254062714579995
7.275501640344854
16.357671473258563
17.041275654230564
26.807049668116274
71.53429465171283
94.38620584420539
76.31952391851682
94.28854810406654
126.80857557030595
104.44495307850767
82.37430380712597
98.39017318989853
91.74944686045625
76.12420843823911
103.07774471656367
121.92568856336308
105.7145037003128
108.2536049439231
122.31631952391852
105.51918822003509
89.21034561684596
96.24170290684367
91.1635004196231
84.13214312962539
106.30045014114596
124.26947432669566
115.9685664148928
108.05828946364538
111.08567940794995
111.86694132906081
92.04242008087282
61.5732051575494
62.2568093385214
69.87411306935225
37.15877012283513
13.916227969787137
27.295338368810558
19.48271915770199
-1.8066681925688564
8.349736781872283
14.892805371175708
-3.2715342946517127
-2.2949568932631417
10.888838025482567
0.04882887006942855
-14.697489890897993
-17.920195315480278
-19.678034637979707
-25.537499046311133
-34.61966887922484
-27.783627069504846
-1.6113527122911422
26.318760967421987
37.4517433432517
20.752269779507134
8.349736781872283
16.357671473258563
11.377126726176853
-12.060730907148852
-28.27191577019913
-24.072632944228275
-5.224689097428855
18.40848401617456
28.174258030060273
12.74433508812085
1.9043259327077133
8.935683222705425
6.005951018539712
-2.9785610742351416
2.5879301136797133
5.71297779812314
-2.5879301136797133
-1.6113527122911422
4.541084916456855
-0.43945983062485694
-17.236591134508277
-49.073014419775696
-96.14404516670481
-173.87960631723507
-282.4750133516442
-350.0541695277333
-352.983901731899
-350.4448004882887
-342.33920805676354
-294.3892576485847
-217.7279316395819
-147.21904325932707
-110.69504844739453
-91.55413138017853
-60.59662775616083
-38.525978484779124
-36.182192721446555
-25.732814526588847
-10.888838025482567
-12.646677347981994
-13.232623788815136
-2.783245593957427
-2.0996414129854277
-7.275501640344854
-1.2207217517357138
2.392614633401999
-3.36919203479057
-2.0996414129854277
3.2715342946517127
-0.43945983062485694
-2.68558785381857
2.392614633401999
1.7090104524299992
-2.197299153124285
0.9277485313191425
2.8809033340962844
-1.0254062714579995
-0.537117570763714
2.490272373540856
0.04882887006942855
-1.2207217517357138
2.0019836728465705
1.513694972152285
-1.0254062714579995
0.8300907911802854
2.0019836728465705
-0.43945983062485694
-0.14648661020828566
1.8066681925688564
0.24414435034714274
-0.43945983062485694
11.08415350576028
47.0222018768597
82.86259250782025
90.67521171892882
120.65613794155794
180.12970168612193
182.08285648889907
151.90661478599222
167.92248416876478
177.8835736629282
157.08247501335165
175.1491569390402
212.25909819180592
203.27458609903104
177.78591592278934
163.91851682307163
136.86732280460822
103.66369115739681
89.40566109712367
100.83161669336995
112.06225680933852
82.56961928740368
41.5533684290837
36.475165941863125
33.64309147783627
12.060730907148852
9.326314183260854
18.017853055619135
5.908293278400855
-1.8066681925688564
8.545052262149996
5.71297779812314
-4.736400396734569
1.9043259327077133
6.005951018539712
-3.5645075150682843
-2.392614633401999
5.127031357289998
-0.7324330510414282
-4.345769436179141
2.8809033340962844
1.7090104524299992
-4.248111696040284
0.14648661020828566
2.8809033340962844
-3.36919203479057
-3.662165255207141
1.1230640115968566
-2.8809033340962844
-18.506141756313422
-35.889219501029984
-31.2993057145037
-11.865415426871138
-6.884870679789426
-4.736400396734569
8.74036774242771
23.48668650339513
27.1976806286717
15.283436331731137
6.39658197909514
9.521629663538567
6.787212939650568
0.04882887006942855
2.8809033340962844
4.736400396734569
-0.9277485313191425
-0.7324330510414282
3.1738765545128556
-0.04882887006942855
-2.2949568932631417
1.6113527122911422
1.0254062714579995
-2.2949568932631417
0.04882887006942855
1.513694972152285
-1.6113527122911422
-1.2207217517357138
1.3183794918745708
-0.43945983062485694
-1.7090104524299992
0.6347753109025711
0.34180209048599985
-1.7090104524299992
-0.24414435034714274
0.7324330510414282
-22.314793621728846
-94.19089036392768
-171.63347829404134
-206.98558022430763
-251.90814068818187
-318.803692683299
-337.0656900892653
-314.3114366369116
-297.61196307316703
-278.37338826581214
-235.0133516441596
-167.14122224765393
-107.08171206225681
-80.12817578393225
-61.86617837796597
-38.33066300450141
-28.857862211032273
-26.90470740825513
-14.990463111314565
-7.763790341039139
-11.181811245899137
-7.373159380483711
-0.43945983062485694
-3.466849774929427
-4.638742656595713
1.2207217517357138
0.537117570763714
-3.2715342946517127
0.34180209048599985
2.197299153124285
-1.8066681925688564
-0.7324330510414282
2.490272373540856
0.04882887006942855
-1.3183794918745708
1.9043259327077133
1.2207217517357138
-1.1230640115968566
0.9277485313191425
4.443427176317998
7.080186160067139
7.666132600900283
23.87731746395056
69.28816662851911
89.40566109712367
73.19447623407339
94.38620584420539
126.12497138933395
95.36278324559396
55.32310978866255
46.92454413672083
15.283436331731137
-18.994430457007706
0.43945983062485694
25.830472266727703
30.71335927367056
65.8701457236591
113.82009613183794
125.24605172808423
132.3750667582208
159.81689173723964
169.6803234912642
171.0475318532082
197.61043717097735
217.43495841916533
199.2706187533379
160.40283817807278
136.96498054474708
139.01579308766307
117.14045929655909
63.819333180743115
44.97138933394369
49.951934081025406
25.830472266727703
8.935683222705425
21.92416266117342
15.771725032425422
-2.5879301136797133
6.201266498817426
12.256046387426567
-3.2715342946517127
-2.392614633401999
9.130998702983138
0.04882887006942855
-6.103608758678568
4.931715877012284
3.2715342946517127
-6.298924238956283
0.43945983062485694
5.0293736171511405
-3.8574807354848555
-2.783245593957427
4.541084916456855
-0.8300907911802854
-4.541084916456855
2.490272373540856
1.6113527122911422
-9.42397192339971
-15.967040512703136
-12.939650568398566
-4.150453955901427
7.666132600900283
13.232623788815136
5.517662317845426
0.04882887006942855
4.052796215762569
2.68558785381857
-2.0019836728465705
1.0254062714579995
2.783245593957427
-1.6113527122911422
-1.1230640115968566
2.197299153124285
-0.537117570763714
-2.197299153124285
1.1230640115968566
0.6347753109025711
-2.0996414129854277
-0.04882887006942855
1.1230640115968566
-7.177843900205997
-26.318760967421987
-41.16273746852827
-62.061493858243686
-156.39887083237966
-313.334859235523
-419.97711146715494
-438.33676661326007
-402.39871824216067
-336.7727168688487
-259.8184176394293
-181.00862134737164
-120.0701915007248
-90.38223849851225
-68.99519340810254
-44.77607385366598
-33.545433737697415
-29.150835431448844
-17.334248874647134
-10.10757610437171
-11.767757686732281
-7.763790341039139
-1.7090104524299992
-3.9551384756237127
-4.443427176317998
0.43945983062485694
-0.04882887006942855
-2.8809033340962844
0.24414435034714274
1.7090104524299992
-1.416037232013428
-0.43945983062485694
2.0996414129854277
0.04882887006942855
-0.9277485313191425
1.7090104524299992
1.0254062714579995
-0.7324330510414282
1.0254062714579995
1.7090104524299992
-0.34180209048599985
0.04882887006942855
1.7090104524299992
0.24414435034714274
-0.14648661020828566
1.416037232013428
0.9277485313191425
-0.34180209048599985
3.9551384756237127
32.86182955672541
78.76096742198825
84.81574731059739
77.10078583962768
119.87487602044709
148.48859388113223
130.42191195544365
144.28931105516136
174.66086823834593
157.96139467460137
144.77759975585565
167.53185320820936
163.5278858625162
141.9455252918288
155.3246356908522
163.03959716182192
138.62516212710764
128.66407263294423
133.35164415960938
118.80064087891967
91.8471046005951
73.48744945448996
78.85862516212711
81.69069962615396
47.80346379797055
23.096055542839704
31.9829098954757
22.998397802700847
2.2949568932631417
10.302891584649425
15.47875181200885
-1.416037232013428
-1.0254062714579995
10.400549324788281
0.6347753109025711
-5.810635538261997
5.517662317845426
3.7598229953459983
-6.298924238956283
0.6347753109025711
5.322346837567712
-3.9551384756237127
-2.8809033340962844
4.834058136873426
-0.8300907911802854
-4.541084916456855
2.68558785381857
1.7090104524299992
-22.21713588158999
-64.9912260624094
-82.47196154726483
-59.91302357518883
-54.44419012741283
-58.8387884336614
-32.764171816586554
-28.27191577019913
-66.94438086518655
-85.0110627908751
-84.81574731059739
-106.49576562142367
-109.03486686503395
-68.31158922713054
-30.029755092698558
12.158388647287708
91.74944686045625
176.22339208056763
203.66521705958647
150.8323796444648
81.20241092545967
61.37788967727169
53.467612726024264
25.342183566033416
18.506141756313422
27.002365148393988
12.158388647287708
0.7324330510414282
11.767757686732281
8.935683222705425
-4.052796215762569
2.68558785381857
8.05676356145571
-3.36919203479057
-12.060730907148852
-24.756237125200276
-67.82330052643626
-160.30518043793393
-266.36148622873276
-313.53017471580074
-323.19829098954756
-354.64408331425955
-379.4491493095293
-345.17128252079044
-252.98237582970933
-160.89112687876707
-116.84748607614252
-90.96818493934539
-56.7879758907454
-41.358052948805984
-39.79552910658427
-23.682001983672848
-11.279468986037996
-16.064698252841993
-11.963073167009995
-1.0254062714579995
-4.638742656595713
-7.666132600900283
0.8300907911802854
1.1230640115968566
-4.931715877012284
-0.24414435034714274
3.466849774929427
-2.197299153124285
-1.6113527122911422
3.5645075150682843
0.14648661020828566
-2.392614633401999
2.2949568932631417
2.0019836728465705
-2.0019836728465705
0.7324330510414282
2.8809033340962844
-0.7324330510414282
-0.537117570763714
2.5879301136797133
0.43945983062485694
-1.2207217517357138
5.615320057984283
18.21316853589685
25.537499046311133
24.560921644922562
45.85030899519341
88.23376821545739
87.45250629434653
66.3584344243534
93.2143129625391
118.01937895780881
122.51163500419624
186.2821393148699
282.08438239108875
307.5730525673304
261.47859922178986
172.31708247501336
40.67444876783398
-54.44419012741283
-40.86976424811169
13.623254749370565
41.651026169222554
66.55374990463112
85.20637827115281
71.63195239185168
61.86617837796597
81.30006866559853
92.82368200198367
83.6438544289311
77.29610131990539
81.00709544518196
81.00709544518196
65.18654154268711
50.44022278171969
54.44419012741283
50.928511482413974
27.97894254978256
26.22110322728313
39.20958266575113
22.60776684214542
4.931715877012284
9.326314183260854
2.2949568932631417
-14.599832150759136
-15.47875181200885
-7.470817120622568
-21.338216220340275
-64.69825284199283
-91.65178912031739
-75.2452887769894
-64.50293736171511
-80.42114900434882
-77.29610131990539
-54.346532387273975
-44.48310063324941
-23.87731746395056
22.314793621728846
51.123826962691695
49.26832990005341
41.5533684290837
28.467231250476843
9.326314183260854
3.5645075150682843
9.71694514381628
18.799114976729992
36.182192721446555
59.22941939421683
89.50331883726253
97.12062256809338
52.002746623941405
20.654612039368278
33.3501182574197
23.682001983672848
-0.14648661020828566
11.08415350576028
17.627222095063708
-3.076218814373999
-1.7090104524299992
12.646677347981994
0.24414435034714274
-7.470817120622568
6.884870679789426
-2.0019836728465705
-63.6240177004654
-159.81689173723964
-231.98596169985504
-260.5020218204013
-299.2721446555276
-349.565880827039
-360.7965209430076
-323.88189517051956
-263.6270695048447
-213.6263065537499
-169.77798123140306
-110.20675974670024
-69.77645532921339
-63.03807125963226
-45.55733577477684
-21.92416266117342
-22.90074006256199
-22.705424582284277
-6.39658197909514
-4.834058136873426
-12.256046387426567
-3.1738765545128556
2.490272373540856
-5.908293278400855
-3.7598229953459983
4.443427176317998
-0.9277485313191425
-4.345769436179141
3.076218814373999
2.0996414129854277
-3.8574807354848555
0.8300907911802854
3.7598229953459983
-1.9043259327077133
-1.0254062714579995
3.662165255207141
0.14648661020828566
-2.0019836728465705
2.490272373540856
1.7090104524299992
-2.0019836728465705
0.8300907911802854
2.68558785381857
-0.8300907911802854
2.392614633401999
42.822919050888835
128.85938811322194
184.5242999923705
182.6688029297322
206.7902647440299
246.82993820096132
232.57190814068818
215.28648813611048
234.81803616388189
229.64217593652248
195.55962462806133
182.27817196917678
189.9931334401465
183.05943389028764
134.81651026169223
79.3469138628214
61.5732051575494
52.002746623941405
27.1976806286717
19.48271915770199
24.560921644922562
12.158388647287708
2.5879301136797133
10.498207064927138
7.959105821316854
-2.392614633401999
2.392614633401999
6.494239719233997
-2.0996414129854277
-2.0019836728465705
4.834058136873426
0.04882887006942855
-3.8574807354848555
2.392614633401999
1.8066681925688564
-3.7598229953459983
-0.04882887006942855
2.783245593957427
-2.2949568932631417
-1.9043259327077133
2.392614633401999
-0.43945983062485694
-2.783245593957427
1.1230640115968566
0.8300907911802854
-4.248111696040284
-5.615320057984283
-3.662165255207141
-2.0019836728465705
1.8066681925688564
4.834058136873426
-0.14648661020828566
-23.974975204089418
-60.8896009765774
-72.70618753337911
-81.00709544518196
-130.91020065613793
-152.68787670710307
-107.27702754253453
-66.55374990463112
-28.467231250476843
53.56527046616312
138.13687342641336
162.94193942168306
121.53505760280765
67.0420386053254
48.19409475852598
40.772106507972836
21.14290074006256
15.088120851453422
19.971007858396277
10.009918364232853
1.6113527122911422
8.349736781872283
6.6895551995117115
-2.197299153124285
1.7090104524299992
5.420004577706569
-24.267948424505988
-100.0503547722591
-173.29365987640193
-202.10269321736476
-239.31029221026932
-305.22926680399786
-336.7727168688487
-326.323338673991
-305.52224002441443
-278.37338826581214
-235.50164034485388
-167.92248416876478
-105.12855725947966
-79.83520256351568
-63.526359960326545
-37.4517433432517
-27.783627069504846
-28.369573510337986
-15.47875181200885
-6.591897459372854
-11.865415426871138
-8.349736781872283
0.537117570763714
-3.36919203479057
-5.810635538261997
1.6113527122911422
1.1230640115968566
-4.052796215762569
0.34180209048599985
3.2715342946517127
-1.9043259327077133
-1.1230640115968566
3.2715342946517127
0.04882887006942855
-1.9043259327077133
2.197299153124285
1.6113527122911422
-1.7090104524299992
0.9277485313191425
2.5879301136797133
-0.7324330510414282
-0.43945983062485694
11.767757686732281
29.834439612420844
28.467231250476843
23.389028763256274
63.6240177004654
109.91378652628366
100.14801251239795
94.38620584420539
128.9570458533608
126.80857557030595
98.97611963073167
117.3357747768368
134.52353704127566
112.74586099031052
111.76928358892195
130.91020065613793
118.99595635919738
107.47234302281224
123.58587014572366
119.67956054016938
99.17143511100939
105.90981918059052
114.4060425726711
103.07774471656367
102.98008697642481
116.55451285572595
119.3865873197528
98.48783093003739
66.84672312504769
63.6240177004654
70.4600595101854
40.67444876783398
16.064698252841993
23.974975204089418
15.47875181200885
-2.392614633401999
8.642710002288853
15.869382772564279
-0.14648661020828566
2.197299153124285
15.869382772564279
3.36919203479057
-5.71297779812314
7.275501640344854
5.420004577706569
-6.787212939650568
1.0254062714579995
6.787212939650568
-4.345769436179141
-3.466849774929427
5.810635538261997
-0.6347753109025711
-5.420004577706569
3.1738765545128556
2.2949568932631417
-5.0293736171511405
0.04882887006942855
3.662165255207141
-3.076218814373999
-2.392614633401999
3.36919203479057
-0.6347753109025711
-3.5645075150682843
1.8066681925688564
1.3183794918745708
-3.2715342946517127
-0.14648661020828566
2.0996414129854277
-2.0996414129854277
-1.6113527122911422
1.9043259327077133
-0.537117570763714
-3.2715342946517127
-2.0019836728465705
-12.646677347981994
-74.17105363546197
-188.8212405584802
-267.4357213702602
-276.51789120317386
-297.9049362935836
-331.3038834210727
-317.2411688410773
-281.3031204699779
-251.90814068818187
-218.80216678110932
-172.61005569542993
-113.33180743114366
-73.29213397421225
-61.475547417410546
-44.28778515297169
-24.560921644922562
-23.096055542839704
-20.752269779507134
-7.763790341039139
-6.103608758678568
-10.498207064927138
-3.1738765545128556
0.9277485313191425
-4.834058136873426
-2.8809033340962844
2.8809033340962844
-0.9277485313191425
-2.9785610742351416
2.392614633401999
1.513694972152285
-2.68558785381857
0.7324330510414282
2.783245593957427
-1.3183794918745708
-0.537117570763714
2.783245593957427
0.04882887006942855
-1.3183794918745708
1.9043259327077133
1.416037232013428
-1.0254062714579995
0.9277485313191425
1.9043259327077133
-0.6347753109025711
-0.04882887006942855
2.0019836728465705
0.24414435034714274
-0.43945983062485694
12.256046387426567
49.26832990005341
78.85862516212711
65.18654154268711
66.06546120393683
112.06225680933852
122.8046082246128
110.01144426642253
146.63309681849393
174.56321049820707
157.27779049362937
174.17257953765164
228.95857175555048
259.4277866788739
264.99427786678876
250.63859006637674
210.98954757000075
156.78950179293508
102.00350957503625
78.56565194171054
81.69069962615396
62.15915159838254
31.494621194781413
28.857862211032273
27.881284809643702
9.326314183260854
6.591897459372854
14.697489890897993
4.931715877012284
-2.197299153124285
6.787212939650568
5.0293736171511405
-4.248111696040284
1.2207217517357138
5.224689097428855
-2.9785610742351416
-2.392614633401999
4.248111696040284
-0.43945983062485694
-3.9551384756237127
2.2949568932631417
1.6113527122911422
-3.662165255207141
-0.04882887006942855
2.5879301136797133
-2.392614633401999
-1.9043259327077133
2.2949568932631417
-0.537117570763714
-2.68558785381857
1.2207217517357138
0.8300907911802854
-2.490272373540856
-0.24414435034714274
1.416037232013428
-1.6113527122911422
-1.2207217517357138
1.3183794918745708
-0.43945983062485694
-1.8066681925688564
0.6347753109025711
0.34180209048599985
-7.763790341039139
-21.338216220340275
-26.709391927977418
-48.291752498664835
-136.08606088349737
-233.35317006179903
-257.5722896162356
-266.7521171892882
-304.35034714274815
-308.0613412680247
-273.2951857785916
-249.46669718471045
-238.4313725490196
-211.67315175097275
-153.7621118486305
-95.85107194628824
-71.92492561226825
-57.27626459143969
-33.545433737697415
-24.560921644922562
-25.63515678644999
-13.916227969787137
-5.517662317845426
-10.595864805065995
-7.568474860761425
0.537117570763714
-2.8809033340962844
-5.224689097428855
1.7090104524299992
1.416037232013428
-3.5645075150682843
0.34180209048599985
3.076218814373999
-1.7090104524299992
-1.0254062714579995
3.1738765545128556
0.14648661020828566
-1.9043259327077133
2.0019836728465705
1.6113527122911422
-1.6113527122911422
0.7324330510414282
2.392614633401999
-0.537117570763714
-0.24414435034714274
2.197299153124285
0.24414435034714274
-0.9277485313191425
1.416037232013428
1.1230640115968566
-0.8300907911802854
2.783245593957427
29.834439612420844
73.97573815518425
77.4914168001831
62.54978255893797
96.72999160753795
119.67956054016938
96.82764934767681
108.83955138475623
144.77759975585565
134.2305638208591
118.89829861905852
134.71885252155337
124.56244754711223
100.7339589532311
117.62874799725337
131.10551613641564
111.47631036850538
109.91378652628366
126.0273136491951
118.99595635919738
106.98405432211796
110.10910200656139
109.42549782558937
97.41359578850995
84.13214312962539
89.01503013656824
100.24567025253681
