ecg
-79.93286030365454
-17.334248874647134
71.92492561226825
110.79270618753338
84.81574731059739
43.70183871213855
31.885252155336843
27.392996108949415
11.963073167009995
9.130998702983138
14.404516670481422
5.908293278400855
-0.14648661020828566
6.39658197909514
4.541084916456855
-3.9551384756237127
-6.201266498817426
-22.21713588158999
-91.8471046005951
-212.0637827115282
-286.7719539177539
-260.8926527809567
-229.1538872358282
-240.2868696116579
-234.81803616388189
-218.02090485999847
-229.44686045624476
-242.92362859540702
-217.53261615930418
-156.39887083237966
-106.30045014114596
-91.26115815976196
-73.97573815518425
-41.943999389639124
-31.103990234225986
-31.9829098954757
-16.260013733119706
-6.787212939650568
-13.720912489509422
-8.74036774242771
1.3183794918745708
-4.541084916456855
-6.982528419928283
2.197299153124285
1.0254062714579995
-5.0293736171511405
0.9277485313191425
3.8574807354848555
-2.783245593957427
-1.416037232013428
3.662165255207141
-0.43945983062485694
-2.392614633401999
2.9785610742351416
2.0019836728465705
-2.0996414129854277
0.9277485313191425
2.490272373540856
-1.513694972152285
-0.43945983062485694
2.783245593957427
0.04882887006942855
-0.9277485313191425
10.986495765621424
34.22903791866941
43.99481193255512
32.56885633630884
43.604180971999696
76.12420843823911
66.74906538490883
53.07698176546884
97.90188448920424
125.63668268863965
104.05432211795224
106.78873884184024
117.82406347753108
90.67521171892882
81.69069962615396
111.08567940794995
110.59739070725567
88.91737239642939
97.02296482795452
102.98008697642481
94.87449454489968
111.76928358892195
130.61722743572136
116.06622415503166
101.22224765392538
102.58945601586939
86.96421759365225
62.35446707866026
58.44815747310597
65.18654154268711
65.6748302433814
61.5732051575494
61.96383611810483
64.69825284199283
52.6863508049134
29.9320973525597
29.834439612420844
42.236972610055695
29.2484931715877
25.146868085755703
42.822919050888835
26.514076447699704
0.34180209048599985
13.037308308537423
17.334248874647134
-12.74433508812085
-27.002365148393988
-13.427939269092851
-3.9551384756237127
8.838025482566568
25.830472266727703
14.209201190203707
-4.443427176317998
2.197299153124285
5.0293736171511405
-15.088120851453422
-31.00633249408713
-25.439841306172273
-8.838025482566568
13.81857022964828
30.22507057297627
18.310826276035705
2.490272373540856
8.349736781872283
8.935683222705425
-2.197299153124285
0.7324330510414282
7.177843900205997
-0.9277485313191425
-3.2715342946517127
4.443427176317998
1.1230640115968566
-4.443427176317998
1.513694972152285
2.8809033340962844
-16.55298695353628
-56.49500267032883
-89.40566109712367
-106.49576562142367
-160.40283817807278
-237.65011062790876
-258.54886701762416
-254.93553063248646
-287.357900358587
-308.2566567483024
-279.05699244678414
-230.91172655832762
-196.73151750972764
-174.56321049820707
-133.5469596398871
-80.9094377050431
-59.03410391393912
-52.002746623941405
-29.834439612420844
-17.82253757534142
-22.510109102006563
-13.916227969787137
-2.490272373540856
-8.252079041733426
-9.033340962844282
1.3183794918745708
-0.43945983062485694
-6.005951018539712
1.0254062714579995
3.36919203479057
-3.5645075150682843
-1.3183794918745708
3.7598229953459983
-1.0254062714579995
-2.490272373540856
3.1738765545128556
1.6113527122911422
-2.197299153124285
1.513694972152285
2.5879301136797133
-1.7090104524299992
-0.24414435034714274
2.8809033340962844
-0.04882887006942855
-0.8300907911802854
4.736400396734569
8.05676356145571
5.322346837567712
10.986495765621424
47.998779278248264
89.30800335698481
78.76096742198825
70.16708628976883
128.2734416723888
178.17654688334477
197.21980621042192
253.17769130998704
294.77988860914013
243.31425955596245
153.85976958876935
81.20241092545967
13.037308308537423
-7.568474860761425
49.46364538033112
103.85900663767453
116.6521705958648
133.93759060044252
153.2738231479362
141.9455252918288
107.96063172350652
84.3274586099031
91.94476234073396
90.87052719920653
49.46364538033112
25.732814526588847
35.49858854047456
22.314793621728846
2.2949568932631417
13.13496604867628
15.47875181200885
-2.783245593957427
0.537117570763714
11.377126726176853
-0.8300907911802854
-5.420004577706569
6.982528419928283
2.68558785381857
-6.787212939650568
2.0019836728465705
5.127031357289998
-5.0293736171511405
-2.0019836728465705
5.322346837567712
-1.8066681925688564
-4.345769436179141
3.466849774929427
1.0254062714579995
-4.736400396734569
0.9277485313191425
2.8809033340962844
-4.443427176317998
-4.638742656595713
-0.04882887006942855
-1.6113527122911422
-1.0254062714579995
4.052796215762569
1.7090104524299992
-2.490272373540856
0.9277485313191425
2.0019836728465705
-2.0996414129854277
-0.8300907911802854
1.9043259327077133
-0.9277485313191425
-1.9043259327077133
1.2207217517357138
0.14648661020828566
-2.0996414129854277
0.14648661020828566
-1.416037232013428
-43.70183871213855
-149.4651712825208
-236.6735332265202
-241.94705119401846
-247.1229114213779
-278.1780727855344
-268.3146410315099
-244.09552147707333
-255.5214770733196
-269.77950713359274
-244.3884946974899
-178.27420462348363
-116.26153963530938
-89.50331883726253
-67.43266956588083
-39.5025558861677
-31.787594415197987
-30.518043793392845
-15.283436331731137
-8.252079041733426
-13.232623788815136
-7.177843900205997
0.43945983062485694
-5.0293736171511405
-5.71297779812314
2.0019836728465705
0.04882887006942855
-4.150453955901427
1.513694972152285
2.8809033340962844
-2.5879301136797133
-0.6347753109025711
3.076218814373999
-0.9277485313191425
-1.7090104524299992
2.68558785381857
1.1230640115968566
-1.7090104524299992
1.416037232013428
2.0996414129854277
-1.2207217517357138
0.04882887006942855
10.302891584649425
24.267948424505988
23.682001983672848
25.537499046311133
67.53032730601969
102.88242923628596
92.33539330128939
104.1519798580911
144.38696879530022
137.06263828488594
119.58190280003052
148.0979629205768
156.69184405279623
131.8867780575265
139.21110856794078
151.41832608529793
125.5390249485008
110.3044174868391
120.7537956816968
106.69108110170139
81.98367284657053
81.88601510643167
73.97573815518425
55.713740749217976
64.79591058213168
82.47196154726483
81.20241092545967
73.19447623407339
64.69825284199283
59.91302357518883
56.88563363088426
43.21355001144427
44.873731593804834
57.56923781185626
34.717326619363696
11.963073167009995
27.100022888532845
25.439841306172273
0.8300907911802854
6.787212939650568
18.11551079575799
0.04882887006942855
-4.443427176317998
10.888838025482567
3.2715342946517127
-7.959105821316854
4.248111696040284
6.39658197909514
-6.6895551995117115
-1.416037232013428
6.982528419928283
-3.076218814373999
-4.931715877012284
5.127031357289998
0.8300907911802854
-5.908293278400855
1.9043259327077133
3.2715342946517127
-4.638742656595713
-1.2207217517357138
4.052796215762569
-2.0996414129854277
-3.2715342946517127
2.9785610742351416
0.24414435034714274
-3.8574807354848555
0.9277485313191425
1.9043259327077133
-2.9785610742351416
-0.8300907911802854
2.392614633401999
-1.513694972152285
-2.197299153124285
1.6113527122911422
0.04882887006942855
-9.81460288395514
-31.2993057145037
-71.33897917143511
-150.3440909437705
-259.72075989929044
-302.49485008010987
-246.14633401998933
-206.69260700389106
-218.02090485999847
-208.45044632639048
-194.87602044708933
-212.5520714122225
-223.48973830777447
-196.24322880903335
-143.01976043335623
-103.4683756771191
-90.57755397878996
-69.0928511482414
-38.62363622491798
-31.396963454642556
-30.029755092698558
-13.81857022964828
-7.861448081177996
-13.916227969787137
-6.6895551995117115
0.9277485313191425
-5.517662317845426
-5.420004577706569
2.8809033340962844
-0.04882887006942855
-4.541084916456855
1.8066681925688564
2.783245593957427
-3.1738765545128556
-0.24414435034714274
3.466849774929427
-1.2207217517357138
-1.7090104524299992
3.1738765545128556
1.0254062714579995
-1.8066681925688564
1.8066681925688564
2.0019836728465705
-1.7090104524299992
0.14648661020828566
2.5879301136797133
-0.24414435034714274
-0.6347753109025711
2.197299153124285
0.6347753109025711
-1.1230640115968566
1.2207217517357138
12.549019607843137
33.252460517280845
46.43625543602655
80.81177996490425
152.49256122682536
177.8835736629282
157.57076371404594
177.98123140306706
197.90341039139392
168.21545738918135
160.01220721751736
183.93835355153735
175.05149919890135
159.7192339971008
178.66483558403905
187.06340123598076
161.18410009918364
130.12893873502708
118.99595635919738
118.70298313878081
92.72602426184481
52.97932402532997
45.069047074082555
45.362020294499125
21.728847180895706
10.986495765621424
20.55695429922942
11.377126726176853
-1.2207217517357138
7.763790341039139
9.033340962844282
-3.466849774929427
0.04882887006942855
7.373159380483711
-1.6113527122911422
-3.9551384756237127
4.834058136873426
1.3183794918745708
-5.0293736171511405
1.6113527122911422
3.1738765545128556
-3.9551384756237127
-1.2207217517357138
3.5645075150682843
-1.7090104524299992
-2.9785610742351416
2.490272373540856
0.34180209048599985
-3.466849774929427
0.6347753109025711
1.7090104524299992
-2.5879301136797133
-0.9277485313191425
2.0019836728465705
-2.392614633401999
-9.619287403677424
-14.404516670481422
-12.353704127565424
-1.2207217517357138
10.10757610437171
10.400549324788281
3.662165255207141
2.197299153124285
3.5645075150682843
0.537117570763714
-0.6347753109025711
1.8066681925688564
0.7324330510414282
-1.416037232013428
0.34180209048599985
1.0254062714579995
-1.2207217517357138
-0.6347753109025711
0.8300907911802854
-18.11551079575799
-81.00709544518196
-145.16823071641107
-154.15274280918592
-166.0669871061265
-226.32181277180132
-257.0840009155413
-248.09948882276646
-268.8029297322042
-284.7211413748379
-245.36507209887847
-198.58701457236592
-180.03204394598308
-170.65690089265277
-139.79705500877392
-87.15953307392996
-56.59266041046769
-51.02616922255284
-33.252460517280845
-16.650644693675137
-20.361638818951704
-16.943617914091707
-3.36919203479057
-5.322346837567712
-9.81460288395514
-0.34180209048599985
1.6113527122911422
-5.615320057984283
-1.513694972152285
3.7598229953459983
-2.197299153124285
-2.783245593957427
3.662165255207141
1.0254062714579995
-2.783245593957427
2.0019836728465705
2.68558785381857
-2.0996414129854277
0.04882887006942855
3.076218814373999
-0.6347753109025711
-1.0254062714579995
2.8809033340962844
0.9277485313191425
-1.513694972152285
1.3183794918745708
1.7090104524299992
-1.2207217517357138
0.24414435034714274
16.650644693675137
44.09246967269398
48.09643701838712
59.42473487449455
143.41039139391165
223.0014496070802
208.35278858625162
152.68787670710307
86.37827115281911
-8.154421301594567
-53.66292820630198
-3.8574807354848555
48.97535667963683
69.9717708094911
104.8355840390631
123.39055466544595
100.0503547722591
92.04242008087282
112.5505455100328
118.99595635919738
126.22262912947281
155.3246356908522
167.72716868848707
150.63706416418708
134.4258793011368
137.74624246585793
142.72678721293966
109.23018234531166
62.35446707866026
58.44815747310597
60.01068131532769
27.49065384908827
14.11154345006485
27.295338368810558
14.209201190203707
-2.0996414129854277
10.693522545204852
11.670099946593423
-5.224689097428855
0.43945983062485694
10.009918364232853
-8.252079041733426
-31.103990234225986
-36.57282368200198
-28.369573510337986
-22.119478141451133
-27.1976806286717
-21.92416266117342
-9.033340962844282
-13.330281528953995
-13.427939269092851
-0.24414435034714274
4.150453955901427
-0.04882887006942855
-3.36919203479057
-10.009918364232853
-19.385061417563133
-11.08415350576028
22.021820401312276
58.643472953383686
61.67086289768826
28.95551995117113
13.81857022964828
21.728847180895706
11.181811245899137
-0.537117570763714
9.228656443121995
9.228656443121995
-3.662165255207141
0.8300907911802854
7.568474860761425
-2.0019836728465705
-3.5645075150682843
5.322346837567712
-9.228656443121995
-68.11627374685283
-150.05111772335394
-201.1261158159762
-231.69298847943847
-291.9478141451133
-336.47974364843213
-321.9287403677424
-295.65880827038984
-280.6195162890059
-254.93553063248646
-199.46593423361563
-126.22262912947281
-84.13214312962539
-71.8272678721294
-47.80346379797055
-27.295338368810558
-29.053177691309987
-22.90074006256199
-7.177843900205997
-8.74036774242771
-12.549019607843137
-1.7090104524299992
0.34180209048599985
-6.982528419928283
-2.0996414129854277
3.466849774929427
-2.8809033340962844
-3.076218814373999
3.7598229953459983
0.537117570763714
-3.2715342946517127
2.0996414129854277
2.5879301136797133
-2.490272373540856
0.14648661020828566
3.2715342946517127
-0.8300907911802854
-1.1230640115968566
2.8809033340962844
0.7324330510414282
-1.6113527122911422
1.6113527122911422
1.8066681925688564
-1.2207217517357138
0.34180209048599985
14.599832150759136
37.256427862973986
39.69787136644541
45.947966735332265
105.61684596017395
154.4457160296025
146.9260700389105
160.20752269779507
198.00106813153278
190.6767376211185
175.53978789959564
192.04394598306249
181.49691004806593
151.5159838254368
161.67238879987792
172.61005569542993
148.39093614099338
130.42191195544365
125.92965590905622
113.03883421072709
92.14007782101167
70.75303273060197
69.67879758907453
73.97573815518425
44.38544289311055
19.092088197146563
27.881284809643702
22.119478141451133
1.6113527122911422
7.959105821316854
14.892805371175708
-0.8300907911802854
-2.2949568932631417
9.619287403677424
1.513694972152285
-6.103608758678568
4.541084916456855
4.345769436179141
-5.908293278400855
-0.14648661020828566
5.322346837567712
-3.2715342946517127
-3.36919203479057
4.443427176317998
-0.14648661020828566
-4.638742656595713
2.0996414129854277
2.0996414129854277
-4.150453955901427
-0.43945983062485694
2.9785610742351416
-2.2949568932631417
-2.2949568932631417
2.5879301136797133
-0.24414435034714274
-3.076218814373999
1.1230640115968566
1.1230640115968566
-2.68558785381857
-0.34180209048599985
1.7090104524299992
-1.513694972152285
-1.513694972152285
1.416037232013428
-0.34180209048599985
-2.0996414129854277
0.537117570763714
0.537117570763714
-1.8066681925688564
-0.34180209048599985
0.9277485313191425
-1.1230640115968566
-10.986495765621424
-29.2484931715877
-53.760585946440834
-121.4373998626688
-222.02487220569162
-260.5020218204013
-248.78309300373846
-270.3654535744259
-287.1625848783093
-257.66994735637445
-240.18921187151903
-247.3182269016556
-234.3297474631876
-183.8406958113985
-117.82406347753108
-80.42114900434882
-68.01861600671397
-44.97138933394369
-26.22110322728313
-27.49065384908827
-21.14290074006256
-6.884870679789426
-8.545052262149996
-11.377126726176853
-1.513694972152285
0.04882887006942855
-6.39658197909514
-1.513694972152285
3.1738765545128556
-2.68558785381857
-2.490272373540856
3.466849774929427
0.43945983062485694
-2.68558785381857
2.197299153124285
2.2949568932631417
-2.197299153124285
0.34180209048599985
2.9785610742351416
-0.8300907911802854
-0.7324330510414282
2.783245593957427
0.6347753109025711
-1.416037232013428
7.470817120622568
31.9829098954757
53.85824368657969
50.73319600213626
62.9404135194934
108.15594720378424
111.28099488822767
87.06187533379111
113.2341496910048
137.45326924544136
117.62874799725337
121.04676890211337
144.77759975585565
127.98046845197223
106.10513466086825
115.28496223392081
104.93324177920195
81.49538414587624
94.09323262378882
103.17540245670253
75.63591973754482
53.85824368657969
44.67841611352712
18.799114976729992
-0.43945983062485694
6.6895551995117115
5.517662317845426
-1.513694972152285
15.869382772564279
33.3501182574197
33.05714503700313
40.28381780727855
52.295719844357976
45.75265125505455
37.64705882352941
55.32310978866255
94.09323262378882
120.46082246128023
103.85900663767453
76.51483939879454
66.65140764476998
42.43228809033341
-1.0254062714579995
-35.010299839780274
-41.74868390936141
-26.416418707560844
-6.39658197909514
5.810635538261997
5.908293278400855
3.36919203479057
3.8574807354848555
5.810635538261997
8.252079041733426
7.080186160067139
3.662165255207141
-0.9277485313191425
3.1738765545128556
14.795147631036851
16.260013733119706
27.881284809643702
50.635538261997404
37.94003204394598
12.060730907148852
24.756237125200276
33.252460517280845
6.6895551995117115
1.7090104524299992
17.724879835202564
5.127031357289998
-6.982528419928283
8.05676356145571
7.666132600900283
-7.763790341039139
0.24414435034714274
8.545052262149996
-4.248111696040284
-4.736400396734569
6.884870679789426
0.04882887006942855
-6.6895551995117115
3.2715342946517127
3.36919203479057
-5.71297779812314
-0.43945983062485694
4.736400396734569
-12.256046387426567
-51.22148470283055
-96.14404516670481
-133.0586709391928
-192.04394598306249
-269.97482261387046
-295.0728618295567
-281.3031204699779
-298.1002517738613
-316.069275959411
-282.6703288319219
-215.4818036163882
-159.81689173723964
-135.01182574196994
-109.62081330586709
-67.0420386053254
-45.26436255436027
-43.604180971999696
-26.90470740825513
-12.353704127565424
-17.724879835202564
-14.209201190203707
-1.2207217517357138
-4.541084916456855
-8.838025482566568
0.537117570763714
1.7090104524299992
-5.517662317845426
-0.6347753109025711
4.150453955901427
-2.197299153124285
-2.2949568932631417
3.8574807354848555
0.43945983062485694
-3.076218814373999
2.0996414129854277
2.392614633401999
-2.2949568932631417
0.43945983062485694
3.36919203479057
-0.6347753109025711
-0.9277485313191425
2.783245593957427
0.6347753109025711
-1.6113527122911422
2.9785610742351416
6.005951018539712
2.8809033340962844
0.8300907911802854
19.87335011825742
60.108339055466544
69.67879758907453
66.06546120393683
109.23018234531166
136.28137636377508
110.89036392767224
115.38261997405966
145.16823071641107
134.03524834058138
123.19523918516823
145.07057297627222
138.5275043869688
115.48027771419852
133.35164415960938
148.19562066071566
127.49217975127794
122.51163500419624
136.28137636377508
128.85938811322194
111.28099488822767
102.68711375600824
101.6128786144808
97.90188448920424
76.31952391851682
66.06546120393683
77.78439002059967
58.350499732967116
22.119478141451133
23.974975204089418
27.97894254978256
5.517662317845426
2.8809033340962844
16.260013733119706
4.345769436179141
-5.420004577706569
7.568474860761425
6.298924238956283
-6.591897459372854
0.7324330510414282
7.177843900205997
-4.052796215762569
-3.662165255207141
5.908293278400855
-0.24414435034714274
-5.615320057984283
3.076218814373999
2.5879301136797133
-8.838025482566568
-11.767757686732281
-7.568474860761425
-26.22110322728313
-89.50331883726253
-142.6291294728008
-131.0078583962768
-114.30838483253224
-124.07415884641794
-84.52277409018082
8.545052262149996
82.27664606698711
113.9177538719768
117.3357747768368
112.15991454947738
96.6323338673991
57.764553292133975
31.396963454642556
33.64309147783627
24.756237125200276
7.763790341039139
11.767757686732281
14.404516670481422
1.2207217517357138
0.6347753109025711
8.642710002288853
-7.861448081177996
-62.15915159838254
-133.64461738002595
-174.36789501792936
-197.5127794308385
-249.95498588540474
-281.3031204699779
-253.86129549095904
-228.76325627527277
-216.75135423819333
-193.1181811245899
-186.67277027542534
-195.55962462806133
-192.82520790417334
-162.8442816815442
-102.1011673151751
-60.30365453574426
-56.1043717097734
-40.67444876783398
-17.627222095063708
-20.45929655909056
-21.338216220340275
-4.443427176317998
-3.466849774929427
-12.060730907148852
-2.68558785381857
3.2715342946517127
-5.810635538261997
-3.662165255207141
5.127031357289998
-0.9277485313191425
-4.736400396734569
3.36919203479057
2.2949568932631417
-3.9551384756237127
1.0254062714579995
4.150453955901427
-2.0996414129854277
-1.1230640115968566
3.9551384756237127
0.04882887006942855
-2.392614633401999
5.517662317845426
20.263981078812847
35.20561532005799
42.236972610055695
67.33501182574197
109.03486686503395
97.80422674906538
61.67086289768826
79.83520256351568
97.90188448920424
78.07736324101626
86.67124437323568
112.06225680933852
92.43305104142824
68.89753566796368
79.93286030365454
75.2452887769894
56.59266041046769
65.8701457236591
68.01861600671397
46.533913176165406
48.48706797894255
68.60456244754711
69.77645532921339
74.26871137560083
99.56206607156481
110.40207522697796
109.71847104600594
126.61326009002823
142.14084077210651
135.1094834821088
113.82009613183794
104.34729533836881
117.72640573739223
104.8355840390631
54.932478828107115
39.893186846723125
50.24490730144198
25.049210345616846
5.420004577706569
21.43587396047913
16.55298695353628
-4.541084916456855
5.420004577706569
13.720912489509422
-3.9551384756237127
-3.7598229953459983
10.10757610437171
0.24414435034714274
-7.568474860761425
5.224689097428855
4.345769436179141
-7.470817120622568
-0.7324330510414282
5.0293736171511405
-4.443427176317998
-3.076218814373999
5.908293278400855
-0.14648661020828566
-5.0293736171511405
2.9785610742351416
2.2949568932631417
-4.736400396734569
-0.04882887006942855
3.5645075150682843
-2.783245593957427
-2.392614633401999
3.1738765545128556
-0.43945983062485694
-3.466849774929427
1.513694972152285
1.2207217517357138
-13.916227969787137
-38.42832074464027
-49.365987640192266
-62.2568093385214
-127.49217975127794
-195.1689936675059
-195.8525978484779
-194.38773174639505
-228.07965209430077
-230.42343785763333
-208.93873502708476
-218.80216678110932
-224.85694666971847
-192.4345769436179
-162.55130846112763
-156.59418631265737
-151.12535286488136
-121.33974212252994
-78.07736324101626
-61.96383611810483
-60.108339055466544
-35.10795757991913
-16.943617914091707
-24.072632944228275
-17.43190661478599
-1.513694972152285
-7.275501640344854
-11.377126726176853
1.2207217517357138
1.0254062714579995
-7.666132600900283
-0.34180209048599985
4.736400396734569
-3.8574807354848555
-2.68558785381857
5.127031357289998
-0.04882887006942855
-3.7598229953459983
3.1738765545128556
2.392614633401999
-3.466849774929427
0.7324330510414282
3.8574807354848555
-1.6113527122911422
-1.0254062714579995
3.5645075150682843
0.14648661020828566
-2.0019836728465705
2.392614633401999
1.9043259327077133
-1.7090104524299992
2.197299153124285
27.588311589227132
69.9717708094911
84.3274586099031
95.36278324559396
154.73868925001906
188.72358281834136
160.69581139848935
147.70733196002135
143.89868009460594
103.85900663767453
86.67124437323568
119.3865873197528
126.0273136491951
106.98405432211796
117.14045929655909
122.8046082246128
104.05432211795224
106.59342336156253
120.26550698100252
111.08567940794995
101.02693217364767
114.01541161211567
143.41039139391165
144.38696879530022
90.2845807583734
39.20958266575113
22.60776684214542
9.228656443121995
7.959105821316854
33.545433737697415
39.69787136644541
12.353704127565424
6.201266498817426
17.920195315480278
5.322346837567712
-4.345769436179141
8.642710002288853
6.787212939650568
-6.298924238956283
1.2207217517357138
7.373159380483711
-4.052796215762569
-3.466849774929427
6.103608758678568
-0.34180209048599985
-5.615320057984283
3.1738765545128556
2.5879301136797133
-5.127031357289998
-0.04882887006942855
3.9551384756237127
-3.076218814373999
-2.5879301136797133
3.36919203479057
-0.537117570763714
-3.662165255207141
1.7090104524299992
1.416037232013428
-3.2715342946517127
-0.14648661020828566
2.197299153124285
-2.0996414129854277
-1.8066681925688564
1.9043259327077133
-0.43945983062485694
-2.392614633401999
0.9277485313191425
0.6347753109025711
-2.2949568932631417
-0.24414435034714274
1.2207217517357138
-1.416037232013428
-1.2207217517357138
1.0254062714579995
-0.34180209048599985
-18.21316853589685
-54.639505607690545
-77.97970550087739
-109.8161287861448
-189.79781795986878
-244.97444113832304
-242.33768215457388
-261.08796826123444
-289.2133974212253
-270.7560845349813
-247.8065156023499
-243.80254825665673
-229.73983367666133
-188.33295185778593
-123.39055466544595
-77.4914168001831
-65.28419928282597
-47.412832837415124
-25.342183566033416
-24.4632639047837
-22.803082322423133
-7.861448081177996
-5.71297779812314
-11.47478446631571
-3.466849774929427
1.6113527122911422
-5.322346837567712
-3.466849774929427
3.5645075150682843
-0.8300907911802854
-3.662165255207141
2.5879301136797133
1.8066681925688564
-3.076218814373999
0.8300907911802854
3.36919203479057
-1.416037232013428
-0.8300907911802854
3.076218814373999
0.04882887006942855
-1.7090104524299992
2.197299153124285
1.6113527122911422
-1.513694972152285
0.8300907911802854
2.2949568932631417
-0.7324330510414282
-0.34180209048599985
11.279468986037996
28.95551995117113
27.68596932936599
16.943617914091707
37.4517433432517
63.91699092088197
53.66292820630198
57.471580071717405
98.39017318989853
103.76134889753567
90.87052719920653
125.14839398794537
148.68390936140995
128.76173037308308
131.78912031738764
150.1487754634928
132.8633554589151
119.19127183947509
135.01182574196994
130.12893873502708
116.35919737544823
137.55092698558022
152.3949034866865
131.30083161669336
113.52712291142137
111.6716258487831
104.8355840390631
84.52277409018082
62.64744029907683
67.0420386053254
74.07339589532312
42.33463035019455
19.87335011825742
32.56885633630884
22.90074006256199
0.14648661020828566
10.10757610437171
16.16235599298085
-2.68558785381857
-1.6113527122911422
11.572442206454566
0.24414435034714274
-6.884870679789426
6.103608758678568
3.9551384756237127
-8.642710002288853
-3.5645075150682843
1.513694972152285
-5.0293736171511405
-0.34180209048599985
8.545052262149996
0.6347753109025711
-4.248111696040284
3.9551384756237127
2.490272373540856
-4.638742656595713
0.537117570763714
3.7598229953459983
-3.076218814373999
-2.0996414129854277
3.36919203479057
-0.7324330510414282
-3.36919203479057
1.9043259327077133
1.0254062714579995
-3.2715342946517127
0.04882887006942855
2.0019836728465705
-2.0996414129854277
-8.545052262149996
-20.55695429922942
-52.588693064774546
-138.82047760738536
-244.1931792172122
-275.5413138017853
-263.72472724498357
-281.3031204699779
-269.97482261387046
-194.87602044708933
-136.76966506446936
-120.46082246128023
-119.28892957961395
-143.89868009460594
-175.24681467917907
-180.71564812695507
-150.63706416418708
-92.14007782101167
-54.7371633478294
-50.83085374227512
-35.889219501029984
-15.967040512703136
-19.287403677424276
-18.994430457007706
-3.662165255207141
-3.7598229953459983
-10.888838025482567
-1.7090104524299992
2.8809033340962844
-5.420004577706569
-2.783245593957427
4.541084916456855
-1.2207217517357138
-3.8574807354848555
3.466849774929427
1.8066681925688564
-3.5645075150682843
1.2207217517357138
3.5645075150682843
-2.0019836728465705
-0.6347753109025711
3.5645075150682843
-0.14648661020828566
-1.9043259327077133
2.5879301136797133
1.513694972152285
-1.8066681925688564
4.150453955901427
33.252460517280845
75.04997329671168
78.17502098115511
71.63195239185168
101.51522087434195
81.78835736629281
-16.650644693675137
-98.97611963073167
-109.71847104600594
-68.70222018768597
-35.596246280613414
-31.592278934920273
-22.21713588158999
-8.349736781872283
-11.767757686732281
-12.939650568398566
-1.6113527122911422
-1.416037232013428
-7.568474860761425
-1.1230640115968566
2.9785610742351416
-3.5645075150682843
-2.0996414129854277
3.7598229953459983
-0.34180209048599985
40.08850232700084
217.82558937972075
470.27084763866634
598.98374914168
533.9436942092012
375.1522087434195
238.72434576943618
166.65293354695964
124.66010528725108
86.08529793240254
64.50293736171511
53.27229724574655
34.52201113908598
21.728847180895706
21.14290074006256
14.892805371175708
6.005951018539712
7.373159380483711
7.763790341039139
1.2207217517357138
1.0254062714579995
4.443427176317998
0.6347753109025711
-1.6113527122911422
2.0996414129854277
1.2207217517357138
-2.0996414129854277
0.24414435034714274
1.6113527122911422
-1.513694972152285
-1.1230640115968566
1.3183794918745708
-0.537117570763714
-1.7090104524299992
0.7324330510414282
0.24414435034714274
-1.7090104524299992
-0.14648661020828566
0.6347753109025711
-1.2207217517357138
-0.8300907911802854
0.6347753109025711
-0.537117570763714
-1.2207217517357138
0.24414435034714274
0.04882887006942855
-1.2207217517357138
-0.14648661020828566
0.24414435034714274
-0.8300907911802854
-0.6347753109025711
0.24414435034714274
-0.537117570763714
-0.9277485313191425
0.04882887006942855
-0.04882887006942855
-0.8300907911802854
-0.24414435034714274
0.04882887006942855
-0.6347753109025711
-0.537117570763714
0.04882887006942855
-4.834058136873426
-49.75661860074769
-155.8129243915465
-245.56038757915618
-280.8148317692836
-339.80010681315326
-409.13710231174184
-400.5432211795224
-323.3936064698253
-237.3571374074922
-176.71168078126192
-135.40245670252537
-93.01899748226138
-62.54978255893797
-51.80743114366369
-37.84237430380713
-21.338216220340275
-18.799114976729992
-17.13893339436942
-7.177843900205997
-4.834058136873426
-8.05676356145571
-3.076218814373999
0.537117570763714
-3.466849774929427
-2.490272373540856
2.0996414129854277
-0.34180209048599985
-2.2949568932631417
1.6113527122911422
1.416037232013428
-1.7090104524299992
0.43945983062485694
17.041275654230564
45.16670481422141
50.73319600213626
55.127794308384836
99.75738155184253
115.9685664148928
79.63988708323797
73.09681849393453
80.12817578393225
42.529945830472265
16.357671473258563
31.592278934920273
25.830472266727703
10.79118028534371
31.494621194781413
39.600213626306555
20.16632333867399
28.27191577019913
54.639505607690545
69.28816662851911
112.25757228961623
191.26268406195163
231.79064621957733
201.1261158159762
122.70695048447395
14.892805371175708
-65.08888380254825
-57.37392233157855
4.638742656595713
57.178606851300835
95.55809872587167
126.71091783016709
133.35164415960938
120.0701915007248
112.15991454947738
122.8046082246128
130.71488517586022
100.83161669336995
69.0928511482414
78.07736324101626
71.8272678721294
30.322728313115128
23.19371328297856
36.57282368200198
14.11154345006485
-0.43945983062485694
16.943617914091707
11.572442206454566
-9.42397192339971
-2.68558785381857
4.248111696040284
-8.838025482566568
-7.373159380483711
6.103608758678568
1.1230640115968566
-0.9277485313191425
12.060730907148852
7.373159380483711
-5.322346837567712
2.490272373540856
6.982528419928283
-4.150453955901427
-2.392614633401999
6.103608758678568
-0.9277485313191425
-4.931715877012284
3.466849774929427
1.8066681925688564
-4.931715877012284
0.43945983062485694
3.466849774929427
-3.2715342946517127
-2.0019836728465705
3.2715342946517127
-1.0254062714579995
-3.36919203479057
1.9043259327077133
0.9277485313191425
-23.096055542839704
-72.5108720531014
-104.8355840390631
-116.74982833600366
-166.0669871061265
-213.91927977416648
-201.22377355611505
-193.31349660486762
-216.3607232776379
-206.39963378347448
-181.20393682764936
-191.45799954222935
-197.31746395056078
-168.8014038300145
-144.38696879530022
-147.51201647974364
-155.71526665140763
-127.29686427100023
-72.21789883268482
-49.17067215991455
-47.60814831769284
-26.123445487144274
-12.353704127565424
-21.045242999923705
-14.404516670481422
0.04882887006942855
-6.591897459372854
-10.10757610437171
2.197299153124285
1.0254062714579995
-7.275501640344854
0.24414435034714274
4.638742656595713
-3.7598229953459983
-2.0996414129854277
5.0293736171511405
-0.34180209048599985
-3.466849774929427
3.36919203479057
2.0996414129854277
-3.36919203479057
1.0254062714579995
3.5645075150682843
-1.7090104524299992
-0.7324330510414282
3.466849774929427
0.04882887006942855
-1.9043259327077133
2.490272373540856
1.7090104524299992
-1.6113527122911422
1.0254062714579995
2.490272373540856
-0.9277485313191425
-0.24414435034714274
25.92813000686656
81.00709544518196
103.17540245670253
88.91737239642939
118.31235217822538
158.25436789501794
139.6017395284962
128.07812619211109
158.15671015487908
157.1801327534905
138.33218890669107
159.32860303654536
173.3913176165408
160.30518043793393
172.31708247501336
188.91889829861907
165.1880674448768
130.61722743572136
110.10910200656139
100.63630121309224
93.8979171435111
73.87808041504539
63.6240177004654
69.67879758907453
46.43625543602655
16.55298695353628
22.803082322423133
23.58434424353399
2.5879301136797133
4.052796215762569
14.892805371175708
1.6113527122911422
-4.443427176317998
8.154421301594567
4.052796215762569
-6.494239719233997
2.2949568932631417
5.810635538261997
-4.931715877012284
-2.197299153124285
5.615320057984283
-1.6113527122911422
-4.638742656595713
3.5645075150682843
1.3183794918745708
-4.931715877012284
0.7324330510414282
3.076218814373999
-3.36919203479057
-1.6113527122911422
3.1738765545128556
-1.2207217517357138
-3.1738765545128556
2.0019836728465705
0.6347753109025711
-3.1738765545128556
0.34180209048599985
1.7090104524299992
-2.2949568932631417
-1.2207217517357138
1.8066681925688564
-0.9277485313191425
-2.0019836728465705
1.1230640115968566
0.24414435034714274
-2.197299153124285
0.04882887006942855
0.9277485313191425
-1.513694972152285
-0.8300907911802854
1.0254062714579995
-0.6347753109025711
-5.908293278400855
-13.330281528953995
-26.90470740825513
-81.20241092545967
-179.15312428473334
-234.1344319829099
-232.18127718013275
-260.3067063401236
-298.00259403372246
-285.50240329594874
-269.6818493934539
-273.2951857785916
-258.2558937972076
-206.7902647440299
-134.81651026169223
-87.55016403448539
-71.72961013199054
-50.44022278171969
-29.346150911726557
-27.97894254978256
-23.58434424353399
-9.130998702983138
-7.959105821316854
-11.865415426871138
-3.2715342946517127
0.34180209048599985
-5.71297779812314
-2.783245593957427
2.8809033340962844
-1.6113527122911422
-3.076218814373999
2.68558785381857
1.0254062714579995
-2.783245593957427
1.3183794918745708
2.68558785381857
-1.8066681925688564
-0.34180209048599985
2.8809033340962844
-0.24414435034714274
-1.2207217517357138
2.2949568932631417
1.2207217517357138
-1.2207217517357138
1.1230640115968566
2.0019836728465705
-0.7324330510414282
0.04882887006942855
11.865415426871138
30.420386053253985
29.541466392004274
26.123445487144274
71.24132143129626
119.48424505989166
109.8161287861448
104.8355840390631
133.0586709391928
121.33974212252994
91.8471046005951
107.86297398336767
113.33180743114366
83.93682764934768
84.22980086976425
102.98008697642481
94.97215228503853
96.82764934767681
122.99992370489052
120.16784924086366
97.02296482795452
93.40962844281681
77.88204776073853
39.893186846723125
21.338216220340275
15.967040512703136
-0.9277485313191425
-4.248111696040284
15.381094071869994
21.24055848020142
15.771725032425422
25.342183566033416
31.885252155336843
26.514076447699704
31.201647974364842
44.28778515297169
60.108339055466544
82.37430380712597
104.44495307850767
129.34767681391622
127.19920653086137
54.7371633478294
-44.38544289311055
-94.19089036392768
-74.5616845960174
-23.19371328297856
9.326314183260854
17.52956435492485
16.650644693675137
9.130998702983138
1.2207217517357138
5.224689097428855
32.27588311589227
61.37788967727169
52.78400854505226
39.600213626306555
59.42473487449455
55.03013656824598
16.260013733119706
13.525597009231708
27.100022888532845
6.298924238956283
-3.466849774929427
14.404516670481422
7.666132600900283
-8.349736781872283
4.345769436179141
9.521629663538567
-6.591897459372854
-2.783245593957427
8.74036774242771
-2.0996414129854277
-6.591897459372854
5.615320057984283
2.2949568932631417
-6.982528419928283
1.3183794918745708
4.736400396734569
-26.514076447699704
-91.26115815976196
-142.23849851224537
-153.0785076676585
-177.78591592278934
-221.8295567254139
-224.0756847486076
-211.96612497138932
-237.84542610818647
-259.4277866788739
-240.9704737926299
-214.50522621499962
-205.42305638208592
-197.41512169069964
-154.34805828946364
-91.1635004196231
-64.3076218814374
-58.25284199282826
-33.252460517280845
-18.701457236591136
-25.537499046311133
-16.748302433813993
-2.0996414129854277
-8.74036774242771
-10.693522545204852
1.7090104524299992
0.04882887006942855
-7.568474860761425
0.43945983062485694
3.9551384756237127
-4.345769436179141
-1.8066681925688564
4.931715877012284
-0.8300907911802854
-3.1738765545128556
3.662165255207141
2.0019836728465705
-3.1738765545128556
1.416037232013428
3.466849774929427
-1.9043259327077133
-0.537117570763714
3.5645075150682843
0.04882887006942855
-1.6113527122911422
2.392614633401999
1.3183794918745708
-1.7090104524299992
1.3183794918745708
23.096055542839704
61.768520637827116
61.67086289768826
21.728847180895706
4.736400396734569
0.04882887006942855
5.322346837567712
60.987258716716255
114.79667353322652
111.18333714808881
109.8161287861448
136.18371862363622
132.3750667582208
121.04676890211337
146.14480811779964
153.7621118486305
131.10551613641564
133.15632867933166
141.2619211108568
119.97253376058595
109.42549782558937
124.66010528725108
124.07415884641794
110.49973296711681
113.52712291142137
128.9570458533608
131.59380483710993
102.29648279545282
72.70618753337911
73.78042267490653
63.72167544060426
31.201647974364842
28.27191577019913
37.94003204394598
16.064698252841993
2.783245593957427
16.84596017395285
10.888838025482567
-4.931715877012284
5.0293736171511405
10.10757610437171
-4.638742656595713
-2.392614633401999
8.252079041733426
-0.9277485313191425
-5.908293278400855
4.834058136873426
2.5879301136797133
-15.381094071869994
-27.49065384908827
-23.58434424353399
-15.869382772564279
-14.892805371175708
-9.228656443121995
2.68558785381857
17.43190661478599
28.076600289921416
17.82253757534142
0.24414435034714274
-3.7598229953459983
-2.8809033340962844
-9.42397192339971
-15.674067292286564
-9.42397192339971
2.2949568932631417
14.013885709925994
21.43587396047913
12.158388647287708
1.513694972152285
5.71297779812314
6.103608758678568
-1.513694972152285
0.537117570763714
4.834058136873426
-0.7324330510414282
-2.2949568932631417
2.8809033340962844
0.6347753109025711
-3.076218814373999
0.9277485313191425
1.8066681925688564
-6.298924238956283
-21.533531700617992
-39.40489814602884
-67.7256427862974
-148.00030518043792
-249.3690394445716
-271.83031967650874
-237.16182192721448
-227.4937056534676
-234.23208972304874
-242.5329976348516
-261.28328374151215
-267.4357213702602
-239.99389639124132
-177.6882581826505
-110.10910200656139
-77.88204776073853
-64.20996414129854
-40.28381780727855
-26.318760967421987
-27.588311589227132
-18.017853055619135
-6.39658197909514
-10.009918364232853
-9.619287403677424
-0.24414435034714274
-1.513694972152285
-6.103608758678568
0.04882887006942855
2.197299153124285
-3.36919203479057
-1.1230640115968566
3.2715342946517127
-0.7324330510414282
-1.9043259327077133
2.8809033340962844
1.2207217517357138
-2.0996414129854277
1.2207217517357138
2.2949568932631417
-1.3183794918745708
0.04882887006942855
4.443427176317998
5.517662317845426
4.638742656595713
19.18974593728542
63.72167544060426
90.96818493934539
66.65140764476998
63.42870222018769
102.88242923628596
104.44495307850767
87.25719081406882
110.10910200656139
115.18730449378195
86.08529793240254
92.43305104142824
114.4060425726711
100.63630121309224
91.74944686045625
107.66765850308995
100.92927443350881
88.23376821545739
109.03486686503395
123.97650110627909
119.97253376058595
139.30876630807964
166.7505912870985
162.06301976043335
131.2031738765545
102.7847714961471
100.53864347295338
96.6323338673991
58.44815747310597
36.57282368200198
46.63157091630426
30.127412832837415
5.71297779812314
16.357671473258563
18.89677271686885
-1.7090104524299992
1.2207217517357138
13.330281528953995
-0.14648661020828566
-5.71297779812314
7.763790341039139
3.36919203479057
-7.373159380483711
2.197299153124285
5.908293278400855
-5.322346837567712
-2.2949568932631417
5.908293278400855
-1.9043259327077133
-4.931715877012284
3.8574807354848555
1.3183794918745708
-5.127031357289998
0.9277485313191425
3.1738765545128556
-3.662165255207141
-1.7090104524299992
3.36919203479057
-1.3183794918745708
-3.1738765545128556
2.197299153124285
0.6347753109025711
-3.36919203479057
0.34180209048599985
1.8066681925688564
-2.392614633401999
-1.1230640115968566
1.9043259327077133
-1.0254062714579995
-2.197299153124285
1.1230640115968566
-1.6113527122911422
-36.67048142214084
-114.4060425726711
-171.0475318532082
-185.30556191348134
-227.39604791332874
-276.9085221637293
-279.6429388876173
-285.1117723353933
-307.28007934691385
-293.7056534676127
-241.1657892729076
-177.1999694819562
-131.39848935683221
-107.47234302281224
-75.04997329671168
-44.48310063324941
-39.11192492561227
-32.56885633630884
-14.892805371175708
-12.256046387426567
-15.869382772564279
-5.71297779812314
-0.8300907911802854
-7.470817120622568
-4.052796215762569
2.8809033340962844
-2.0996414129854277
-3.9551384756237127
2.783245593957427
1.2207217517357138
-3.36919203479057
1.1230640115968566
2.9785610742351416
-2.0019836728465705
-0.537117570763714
3.2715342946517127
-0.04882887006942855
-1.416037232013428
2.392614633401999
1.2207217517357138
-1.7090104524299992
1.1230640115968566
2.197299153124285
-0.8300907911802854
0.04882887006942855
2.2949568932631417
0.04882887006942855
-0.8300907911802854
1.7090104524299992
3.36919203479057
6.591897459372854
30.71335927367056
111.28099488822767
207.57152666514077
222.12252994583048
191.75097276264592
194.9736781872282
175.44213015945678
121.73037308308537
116.16388189517052
134.52353704127566
115.67559319447624
106.8863965819791
130.22659647516593
128.37109941252766
112.25757228961623
127.00389105058366
146.04715037766078
138.0392156862745
111.86694132906081
98.19485770962082
104.8355840390631
87.15953307392996
44.19012741283284
31.9829098954757
36.0845349813077
16.357671473258563
5.71297779812314
16.943617914091707
10.400549324788281
-3.076218814373999
5.420004577706569
8.838025482566568
-3.662165255207141
-1.3183794918745708
7.177843900205997
-1.0254062714579995
-4.834058136873426
4.248111696040284
1.9043259327077133
-5.224689097428855
0.9277485313191425
3.662165255207141
-3.662165255207141
-1.9043259327077133
3.5645075150682843
-1.3183794918745708
-3.466849774929427
2.2949568932631417
0.8300907911802854
-3.466849774929427
0.24414435034714274
2.0019836728465705
-2.490272373540856
-1.3183794918745708
2.0996414129854277
-0.9277485313191425
-2.2949568932631417
1.2207217517357138
0.24414435034714274
-2.2949568932631417
0.04882887006942855
1.1230640115968566
-1.6113527122911422
-0.9277485313191425
1.1230640115968566
-0.7324330510414282
-1.513694972152285
0.6347753109025711
0.04882887006942855
-23.682001983672848
-87.45250629434653
-149.17219806210423
-191.5556572823682
-256.98634317540245
-303.2761120012207
-284.81879911497674
-276.0296025024796
-302.2018768596933
-299.0768291752499
-249.07606622415503
-181.20393682764936
-130.81254291599907
-104.34729533836881
-73.29213397421225
-44.77607385366598
-38.62363622491798
-31.68993667505913
-15.185778591592278
-12.060730907148852
-14.990463111314565
-5.908293278400855
-1.2207217517357138
-6.884870679789426
-3.9551384756237127
2.2949568932631417
-1.9043259327077133
-3.466849774929427
2.490272373540856
1.2207217517357138
-2.8809033340962844
0.9277485313191425
2.68558785381857
-1.513694972152285
-0.34180209048599985
2.8809033340962844
-0.04882887006942855
-1.2207217517357138
2.0996414129854277
1.1230640115968566
-1.3183794918745708
1.1230640115968566
2.0996414129854277
-0.6347753109025711
0.04882887006942855
2.0019836728465705
0.04882887006942855
-0.6347753109025711
1.513694972152285
0.9277485313191425
-0.43945983062485694
7.861448081177996
41.065079728389414
77.58907454032196
66.74906538490883
52.19806210421912
95.9487296864271
127.19920653086137
114.01541161211567
124.46478980697337
137.55092698558022
108.83955138475623
96.04638742656596
116.26153963530938
108.15594720378424
93.40962844281681
118.70298313878081
136.28137636377508
130.22659647516593
146.9260700389105
168.02014190890364
160.50049591821164
147.41435873960478
141.0666056305791
136.57434958419165
120.0701915007248
80.12817578393225
58.1551842526894
61.86617837796597
40.38147554741741
14.404516670481422
22.021820401312276
21.826504921034562
1.513694972152285
4.150453955901427
14.013885709925994
0.7324330510414282
-4.052796215762569
8.154421301594567
3.2715342946517127
-6.39658197909514
2.490272373540856
5.322346837567712
-5.0293736171511405
-1.7090104524299992
5.517662317845426
-1.9043259327077133
-4.345769436179141
3.662165255207141
0.9277485313191425
-4.736400396734569
1.0254062714579995
2.8809033340962844
-3.466849774929427
-1.416037232013428
3.076218814373999
-1.416037232013428
-2.8809033340962844
2.0996414129854277
0.43945983062485694
-3.076218814373999
0.43945983062485694
1.513694972152285
-2.2949568932631417
-1.0254062714579995
1.8066681925688564
-20.16632333867399
-94.67917906462196
-183.54772259098192
-216.3607232776379
-226.6147859922179
-268.8029297322042
-287.74853131914244
-265.7755397878996
-269.3888761730373
-287.6508735790036
-261.28328374151215
-194.09475852597848
-131.30083161669336
-102.58945601586939
-85.88998245212481
-54.639505607690545
-34.91264209964141
-34.52201113908598
-23.291371023117417
-9.228656443121995
-12.646677347981994
-12.353704127565424
-1.3183794918745708
-2.197299153124285
-7.373159380483711
-0.34180209048599985
2.392614633401999
-3.9551384756237127
-1.6113527122911422
3.662165255207141
-0.9277485313191425
-2.5879301136797133
2.8809033340962844
1.513694972152285
-2.392614633401999
1.2207217517357138
2.5879301136797133
-1.513694972152285
-0.24414435034714274
2.8809033340962844
0.04882887006942855
-1.1230640115968566
2.0996414129854277
1.1230640115968566
-1.1230640115968566
1.0254062714579995
1.8066681925688564
-0.7324330510414282
0.14648661020828566
4.541084916456855
7.666132600900283
6.884870679789426
24.756237125200276
86.76890211337454
135.40245670252537
121.82803082322422
119.48424505989166
152.10193026626993
142.72678721293966
118.01937895780881
139.21110856794078
147.1213855191882
122.70695048447395
129.25001907377737
146.4377813382162
130.3242542153048
123.39055466544595
141.16426337071795
134.62119478141452
112.25757228961623
113.2341496910048
126.80857557030595
126.51560234988938
101.90585183489738
82.27664606698711
87.64782177462425
72.99916075379568
34.0337224383917
25.92813000686656
31.9829098954757
12.74433508812085
3.1738765545128556
15.47875181200885
8.935683222705425
-4.248111696040284
5.0293736171511405
8.44739452201114
-4.345769436179141
-1.416037232013428
7.177843900205997
-1.416037232013428
-4.931715877012284
4.443427176317998
1.7090104524299992
-5.322346837567712
1.1230640115968566
3.5645075150682843
-3.8574807354848555
-1.8066681925688564
3.7598229953459983
-1.416037232013428
-3.36919203479057
2.392614633401999
0.7324330510414282
-3.662165255207141
0.43945983062485694
2.0019836728465705
-2.5879301136797133
-1.2207217517357138
2.197299153124285
-1.0254062714579995
-2.2949568932631417
1.3183794918745708
0.24414435034714274
-2.392614633401999
0.14648661020828566
1.1230640115968566
-1.8066681925688564
-0.9277485313191425
1.1230640115968566
-0.7324330510414282
-1.513694972152285
0.7324330510414282
0.04882887006942855
-16.064698252841993
-57.08094911116198
-100.63630121309224
-153.9574273289082
-256.98634317540245
-352.10498207064927
-373.49202716105896
-365.58175020981156
-350.0541695277333
-303.080796520943
-229.25154497596705
-151.32066834515908
-101.6128786144808
-80.42114900434882
-57.178606851300835
-36.27985046158541
-31.592278934920273
-25.146868085755703
-12.158388647287708
-10.205233844510566
-11.767757686732281
-4.248111696040284
-1.1230640115968566
-5.517662317845426
-2.68558785381857
1.8066681925688564
-1.513694972152285
-2.392614633401999
2.0996414129854277
0.7324330510414282
-2.197299153124285
1.0254062714579995
2.0019836728465705
-1.1230640115968566
0.04882887006942855
2.2949568932631417
-0.04882887006942855
-0.7324330510414282
1.8066681925688564
0.9277485313191425
-0.8300907911802854
6.298924238956283
35.49858854047456
70.75303273060197
65.96780346379796
59.62005035477226
107.96063172350652
142.23849851224537
137.55092698558022
162.6489662012665
186.9657434958419
156.69184405279623
129.6406500343328
127.88281071183337
93.31197070267795
51.02616922255284
52.881666285191116
52.97932402532997
34.22903791866941
44.19012741283284
66.16311894407569
68.60456244754711
87.25719081406882
130.5195696955825
148.0979629205768
131.39848935683221
117.82406347753108
132.3750667582208
146.2424658579385
108.64423590447852
58.643472953383686
53.27229724574655
46.43625543602655
16.55298695353628
14.599832150759136
24.853894865339132
7.373159380483711
-1.416037232013428
12.353704127565424
6.982528419928283
-6.201266498817426
3.662165255207141
7.861448081177996
-5.0293736171511405
-2.197299153124285
7.080186160067139
-1.513694972152285
-5.420004577706569
4.345769436179141
1.8066681925688564
-9.619287403677424
-11.47478446631571
-8.545052262149996
-7.568474860761425
-2.0019836728465705
4.638742656595713
-2.0996414129854277
-19.87335011825742
-30.127412832837415
-20.55695429922942
5.0293736171511405
27.392996108949415
26.22110322728313
10.302891584649425
6.494239719233997
9.228656443121995
2.5879301136797133
-0.24414435034714274
4.834058136873426
2.490272373540856
-2.2949568932631417
1.3183794918745708
2.783245593957427
-2.0996414129854277
-0.9277485313191425
2.392614633401999
-3.466849774929427
-29.443808651865414
-75.34294651712825
-114.01541161211567
-160.5981536583505
-233.54848554207675
-265.0919356069276
-248.39246204318303
-263.431754024567
-290.3852903028916
-272.1232928969253
-237.25947966735333
-212.64972915236135
-189.89547570000764
-152.98084992751964
-98.29251544975968
-62.64744029907683
-54.932478828107115
-38.525978484779124
-19.678034637979707
-20.84992751964599
-18.994430457007706
-5.420004577706569
-5.0293736171511405
-10.205233844510566
-2.0996414129854277
1.6113527122911422
-5.0293736171511405
-2.392614633401999
3.7598229953459983
-1.0254062714579995
-3.076218814373999
2.9785610742351416
1.513694972152285
-2.9785610742351416
1.0254062714579995
2.783245593957427
-1.7090104524299992
-0.43945983062485694
3.076218814373999
0.04882887006942855
-1.3183794918745708
2.2949568932631417
1.2207217517357138
-1.416037232013428
1.1230640115968566
2.0996414129854277
-0.8300907911802854
-0.14648661020828566
2.0019836728465705
0.04882887006942855
-0.6347753109025711
8.44739452201114
28.857862211032273
40.772106507972836
39.69787136644541
72.60852979324025
130.42191195544365
137.1602960250248
129.44533455405508
172.31708247501336
196.04791332875564
176.71168078126192
187.6493476768139
209.13405050736247
193.02052338445105
185.30556191348134
201.71206225680933
194.68070496681162
162.6489662012665
132.57038223849852
121.73037308308537
116.45685511558709
80.9094377050431
42.92057679102769
39.99084458686198
34.32669565880827
12.45136186770428
11.572442206454566
18.40848401617456
5.127031357289998
-0.6347753109025711
9.326314183260854
4.638742656595713
-4.541084916456855
2.9785610742351416
5.517662317845426
-3.8574807354848555
-1.416037232013428
5.0293736171511405
-1.513694972152285
-3.8574807354848555
3.2715342946517127
1.0254062714579995
-4.150453955901427
0.8300907911802854
2.490272373540856
-3.076218814373999
-1.3183794918745708
2.68558785381857
-1.2207217517357138
-2.5879301136797133
1.8066681925688564
0.34180209048599985
-2.8809033340962844
0.24414435034714274
1.416037232013428
-2.0019836728465705
-0.9277485313191425
1.513694972152285
-0.9277485313191425
-1.8066681925688564
0.9277485313191425
0.04882887006942855
-1.8066681925688564
0.04882887006942855
0.7324330510414282
-1.416037232013428
-0.7324330510414282
0.7324330510414282
-0.7324330510414282
-1.2207217517357138
0.43945983062485694
-0.04882887006942855
-1.3183794918745708
-0.04882887006942855
0.24414435034714274
-14.990463111314565
-62.64744029907683
-110.9880216678111
-126.41794460975052
-149.75814450293737
-179.05546654459448
-162.8442816815442
-168.89906157015335
-272.318608377203
-387.2617685206378
-401.6174563210498
-315.77630273899445
-211.38017853055618
-148.29327840085452
-108.44892042420081
-71.24132143129626
-53.36995498588541
-45.947966735332265
-28.66254673075456
-17.041275654230564
-18.506141756313422
-12.84199282825971
-3.8574807354848555
-6.201266498817426
-7.080186160067139
-0.04882887006942855
-0.24414435034714274
-4.345769436179141
-0.14648661020828566
2.0996414129854277
-2.0996414129854277
-1.0254062714579995
2.68558785381857
-0.04882887006942855
-1.6113527122911422
1.8066681925688564
1.2207217517357138
-1.416037232013428
0.8300907911802854
2.197299153124285
-0.6347753109025711
-0.04882887006942855
2.0996414129854277
0.24414435034714274
-0.6347753109025711
5.322346837567712
15.47875181200885
19.385061417563133
22.412451361867703
57.08094911116198
104.44495307850767
98.39017318989853
80.32349126420996
112.45288776989395
126.9062333104448
106.2027924010071
125.44136720836194
156.1058976119631
138.62516212710764
121.63271534294651
129.93362325474936
113.13649195086595
90.2845807583734
104.24963759822995
112.74586099031052
104.54261081864652
124.26947432669566
151.80895704585336
149.56282902265966
131.78912031738764
118.89829861905852
119.19127183947509
108.2536049439231
65.77248798352025
41.943999389639124
48.584725719081405
31.396963454642556
8.44739452201114
17.627222095063708
18.701457236591136
-0.537117570763714
2.2949568932631417
12.646677347981994
0.04882887006942855
-4.736400396734569
7.470817120622568
3.076218814373999
-6.591897459372854
2.197299153124285
5.224689097428855
-8.642710002288853
-13.037308308537423
-5.517662317845426
-2.8809033340962844
2.197299153124285
10.888838025482567
5.322346837567712
-2.5879301136797133
2.783245593957427
4.052796215762569
-2.8809033340962844
-0.6347753109025711
3.8574807354848555
-1.2207217517357138
-2.783245593957427
2.490272373540856
0.43945983062485694
-3.1738765545128556
0.7324330510414282
1.7090104524299992
-2.490272373540856
-0.9277485313191425
1.9043259327077133
-1.1230640115968566
-2.0019836728465705
1.3183794918745708
0.04882887006942855
-25.92813000686656
-89.30800335698481
-140.18768596932938
-162.55130846112763
-211.38017853055618
-253.17769130998704
-238.62668802929733
-232.47425040054932
-253.86129549095904
-247.90417334248875
-224.7592889295796
-212.84504463263906
-203.95819028000304
-179.2507820248722
-125.44136720836194
-75.83123521782254
-60.694285496299685
-48.09643701838712
-25.439841306172273
-20.654612039368278
-22.705424582284277
-10.009918364232853
-3.8574807354848555
-10.400549324788281
-5.810635538261997
1.9043259327077133
-3.5645075150682843
-4.931715877012284
2.68558785381857
0.9277485313191425
-3.9551384756237127
1.2207217517357138
3.076218814373999
-2.392614633401999
-0.537117570763714
3.466849774929427
-0.43945983062485694
-1.7090104524299992
2.5879301136797133
1.2207217517357138
-1.9043259327077133
1.2207217517357138
2.2949568932631417
-1.0254062714579995
0.04882887006942855
2.5879301136797133
0.04882887006942855
-0.8300907911802854
1.9043259327077133
1.0254062714579995
-0.8300907911802854
14.11154345006485
65.77248798352025
115.38261997405966
99.56206607156481
76.41718165865568
115.77325093461509
141.2619211108568
124.36713206683451
138.5275043869688
163.23491264209963
148.68390936140995
143.9963378347448
164.60212100404365
156.1058976119631
143.5080491340505
184.81727321278706
246.6346227206836
253.76363775082018
186.0868238345922
103.56603341725796
61.5732051575494
43.99481193255512
33.64309147783627
43.018234531166556
48.291752498664835
24.267948424505988
9.912260624093996
18.701457236591136
11.670099946593423
-1.513694972152285
6.39658197909514
9.326314183260854
-2.9785610742351416
-0.8300907911802854
7.177843900205997
-0.8300907911802854
-4.345769436179141
4.248111696040284
1.9043259327077133
-4.931715877012284
0.9277485313191425
3.466849774929427
-3.5645075150682843
-1.7090104524299992
3.466849774929427
-1.2207217517357138
-3.2715342946517127
2.0996414129854277
0.7324330510414282
-3.36919203479057
0.34180209048599985
1.9043259327077133
-2.2949568932631417
-1.2207217517357138
1.9043259327077133
-0.9277485313191425
-2.197299153124285
1.2207217517357138
0.34180209048599985
-2.197299153124285
0.04882887006942855
0.9277485313191425
-1.6113527122911422
-0.9277485313191425
1.0254062714579995
-0.7324330510414282
-1.416037232013428
0.537117570763714
0.04882887006942855
-1.513694972152285
-0.04882887006942855
0.43945983062485694
-4.638742656595713
-19.18974593728542
-35.4009308003357
-58.54581521324483
-130.5195696955825
-221.43892576485848
-245.26741435873961
-239.31029221026932
-265.7755397878996
-269.29121843289846
-235.2086671244373
-233.35317006179903
-259.23247119859616
-252.10345616845962
-193.21583886472877
-120.55848020141909
-83.25322346837568
-67.92095826657511
-43.018234531166556
-27.783627069504846
-28.857862211032273
-19.385061417563133
-6.884870679789426
-10.400549324788281
-10.498207064927138
-0.537117570763714
-1.416037232013428
-6.39658197909514
-0.14648661020828566
2.490272373540856
-3.36919203479057
-1.3183794918745708
3.466849774929427
-0.537117570763714
-2.197299153124285
2.5879301136797133
1.3183794918745708
-2.0996414129854277
1.2207217517357138
2.490272373540856
-1.3183794918745708
-0.14648661020828566
2.783245593957427
0.04882887006942855
-1.1230640115968566
1.9043259327077133
1.1230640115968566
-1.0254062714579995
1.0254062714579995
1.8066681925688564
-0.6347753109025711
0.04882887006942855
20.361638818951704
60.694285496299685
68.89753566796368
53.27229724574655
86.37827115281911
124.95307850766766
107.76531624322881
104.34729533836881
139.69939726863507
140.28534370946824
123.39055466544595
141.35957885099566
145.85183489738307
124.8554207675288
135.59777218280308
156.59418631265737
145.26588845654993
139.50408178835735
153.85976958876935
145.46120393682764
116.35919737544823
99.26909285114824
100.92927443350881
100.34332799267567
75.04997329671168
50.928511482413974
51.709773403524835
43.70183871213855
22.705424582284277
28.076600289921416
37.35408560311284
15.088120851453422
3.1738765545128556
16.16235599298085
9.326314183260854
-4.834058136873426
5.322346837567712
9.130998702983138
-4.638742656595713
-1.7090104524299992
7.763790341039139
-1.416037232013428
-5.420004577706569
4.834058136873426
2.0019836728465705
-5.810635538261997
1.2207217517357138
4.052796215762569
-4.150453955901427
-2.0019836728465705
4.052796215762569
-1.416037232013428
-3.7598229953459983
2.68558785381857
0.9277485313191425
-3.9551384756237127
0.43945983062485694
2.197299153124285
-2.783245593957427
-1.3183794918745708
2.392614633401999
-1.0254062714579995
-2.490272373540856
1.416037232013428
0.34180209048599985
-2.5879301136797133
0.14648661020828566
1.3183794918745708
-1.8066681925688564
-1.0254062714579995
1.2207217517357138
-0.9277485313191425
-13.916227969787137
-44.38544289311055
-96.6323338673991
-206.98558022430763
-361.28480964370186
-438.5320820935378
-402.20340276188296
-341.16731517509726
-297.9049362935836
-252.10345616845962
-188.6259250782025
-123.97650110627909
-87.84313725490196
-69.58113984893568
-46.04562447547112
-30.811017013809415
-28.564888990615703
-19.58037689784085
-8.935683222705425
-10.302891584649425
-9.71694514381628
-2.0019836728465705
-2.0996414129854277
-5.322346837567712
-0.6347753109025711
1.416037232013428
-2.490272373540856
-1.1230640115968566
2.392614633401999
-0.43945983062485694
-1.6113527122911422
1.9043259327077133
1.1230640115968566
-1.3183794918745708
1.0254062714579995
2.0019836728465705
-0.7324330510414282
0.04882887006942855
2.0019836728465705
0.04882887006942855
-0.537117570763714
1.6113527122911422
1.0254062714579995
-0.537117570763714
0.8300907911802854
1.416037232013428
-0.24414435034714274
0.14648661020828566
1.513694972152285
0.24414435034714274
-0.14648661020828566
18.60379949645228
71.04600595101854
109.62081330586709
103.27306019684139
124.36713206683451
181.00862134737164
185.69619287403677
169.38735027084763
198.09872587167163
210.2082856488899
188.6259250782025
202.39566643778133
227.59136339360646
210.59891660944533
177.78591592278934
159.32860303654536
152.3949034866865
129.44533455405508
79.15159838254368
48.48706797894255
47.51049057755398
31.885252155336843
12.939650568398566
18.21316853589685
17.52956435492485
2.0996414129854277
3.662165255207141
10.79118028534371
0.8300907911802854
-2.8809033340962844
6.005951018539712
2.490272373540856
-4.638742656595713
1.9043259327077133
3.9551384756237127
-3.7598229953459983
-1.416037232013428
3.8574807354848555
-1.513694972152285
-3.2715342946517127
2.5879301136797133
0.6347753109025711
-3.5645075150682843
0.537117570763714
1.9043259327077133
-2.68558785381857
-1.1230640115968566
2.197299153124285
-1.1230640115968566
-7.568474860761425
-14.795147631036851
-15.869382772564279
-3.8574807354848555
10.009918364232853
11.767757686732281
4.443427176317998
2.197299153124285
3.9551384756237127
0.9277485313191425
-0.8300907911802854
1.8066681925688564
1.1230640115968566
-1.416037232013428
0.14648661020828566
1.2207217517357138
-1.2207217517357138
-0.9277485313191425
0.9277485313191425
-0.43945983062485694
-1.3183794918745708
0.43945983062485694
0.14648661020828566
-26.22110322728313
-93.8979171435111
-148.19562066071566
-172.51239795529108
-227.6890211337453
-281.1078049897002
-284.81879911497674
-298.1979095140002
-331.5968566414893
-325.1514457923247
-264.4083314259556
-181.1062790875105
-122.51163500419624
-96.24170290684367
-68.4092469672694
-42.43228809033341
-36.86579690241855
-30.22507057297627
-14.404516670481422
-11.47478446631571
-14.306858930342566
-5.615320057984283
-1.1230640115968566
-6.591897459372854
-3.7598229953459983
2.197299153124285
-1.7090104524299992
-3.1738765545128556
2.2949568932631417
1.1230640115968566
-2.68558785381857
0.9277485313191425
2.490272373540856
-1.6113527122911422
-0.34180209048599985
2.783245593957427
-0.04882887006942855
-1.1230640115968566
2.197299153124285
1.2207217517357138
-1.2207217517357138
1.0254062714579995
2.0996414129854277
-0.43945983062485694
0.04882887006942855
9.42397192339971
23.19371328297856
22.314793621728846
19.287403677424276
45.069047074082555
62.54978255893797
43.40886549172198
50.928511482413974
98.78080415045396
123.58587014572366
155.22697795071335
228.07965209430077
241.55642023346303
156.1058976119631
62.745098039215684
-2.2949568932631417
-43.018234531166556
-18.017853055619135
52.78400854505226
84.03448538948653
80.03051804379339
89.60097657740138
90.2845807583734
81.39772640573739
103.85900663767453
133.64461738002595
132.96101319905395
125.14839398794537
127.88281071183337
130.3242542153048
120.85145342183566
95.55809872587167
87.45250629434653
93.80025940337224
61.96383611810483
25.146868085755703
31.592278934920273
29.9320973525597
4.541084916456855
7.177843900205997
18.701457236591136
2.0019836728465705
-4.150453955901427
10.498207064927138
4.443427176317998
-7.470817120622568
3.5645075150682843
6.787212939650568
-5.908293278400855
-2.0019836728465705
6.787212939650568
-2.2949568932631417
-5.127031357289998
4.638742656595713
1.3183794918745708
-5.71297779812314
1.3183794918745708
3.466849774929427
-4.248111696040284
-1.6113527122911422
3.8574807354848555
-1.7090104524299992
-3.36919203479057
2.5879301136797133
0.537117570763714
-3.7598229953459983
0.6347753109025711
2.0019836728465705
-2.68558785381857
-1.1230640115968566
2.197299153124285
-1.2207217517357138
-2.2949568932631417
1.416037232013428
0.24414435034714274
-24.267948424505988
-80.32349126420996
-121.24208438239108
-137.74624246585793
-185.50087739375905
-231.4000152590219
-231.20469977874419
-249.27138170443274
-294.6822308690013
-302.8854810406653
-276.2249179827573
-237.65011062790876
-196.53620202944992
-157.57076371404594
-106.78873884184024
-65.47951476310368
-55.22545204852369
-43.604180971999696
-22.21713588158999
-18.799114976729992
-20.752269779507134
-8.252079041733426
-3.2715342946517127
-9.81460288395514
-4.931715877012284
2.0996414129854277
-3.466849774929427
-4.345769436179141
2.8809033340962844
0.43945983062485694
-3.8574807354848555
1.416037232013428
2.783245593957427
-2.490272373540856
-0.34180209048599985
3.36919203479057
-0.6347753109025711
-1.513694972152285
2.5879301136797133
1.0254062714579995
-1.7090104524299992
1.416037232013428
2.197299153124285
-1.0254062714579995
0.14648661020828566
2.490272373540856
0.04882887006942855
-0.6347753109025711
1.9043259327077133
1.8066681925688564
2.0019836728465705
19.58037689784085
77.4914168001831
138.0392156862745
133.0586709391928
119.58190280003052
165.3833829251545
189.01655603875793
166.5552758068208
179.4460975051499
203.66521705958647
184.23132677195392
175.73510337987335
197.41512169069964
188.03997863736936
152.59021896696422
135.3047989623865
135.01182574196994
126.61326009002823
94.19089036392768
68.31158922713054
70.55771725032426
58.643472953383686
26.90470740825513
21.533531700617992
26.61173418783856
9.912260624093996
2.490272373540856
13.13496604867628
7.080186160067139
-3.8574807354848555
4.443427176317998
6.884870679789426
-4.052796215762569
-1.1230640115968566
6.103608758678568
-1.513694972152285
-4.150453955901427
3.8574807354848555
1.2207217517357138
-4.736400396734569
1.0254062714579995
2.9785610742351416
-3.466849774929427
-1.416037232013428
3.1738765545128556
-1.416037232013428
-2.9785610742351416
2.0996414129854277
0.43945983062485694
-3.076218814373999
0.43945983062485694
1.6113527122911422
-2.392614633401999
-1.0254062714579995
1.8066681925688564
-1.0254062714579995
-1.9043259327077133
1.1230640115968566
0.14648661020828566
-2.0996414129854277
0.04882887006942855
0.8300907911802854
-1.513694972152285
-0.7324330510414282
0.9277485313191425
-0.7324330510414282
-1.3183794918745708
0.537117570763714
-0.04882887006942855
-1.416037232013428
-0.04882887006942855
0.34180209048599985
-29.541466392004274
-118.60532539864195
-203.46990157930875
-227.6890211337453
-263.2364385442893
-331.108567940795
-360.21057450217444
-345.7572289616236
-308.549629968719
-253.37300679026475
-193.41115434500648
-131.0078583962768
-85.10872053101396
-67.92095826657511
-51.80743114366369
-30.71335927367056
-24.756237125200276
-22.998397802700847
-11.181811245899137
-6.494239719233997
-10.302891584649425
-5.322346837567712
0.14648661020828566
-3.7598229953459983
-3.7598229953459983
1.7090104524299992
-0.14648661020828566
-2.9785610742351416
1.2207217517357138
2.0019836728465705
-1.8066681925688564
0.04882887006942855
2.5879301136797133
-0.6347753109025711
-1.0254062714579995
2.197299153124285
0.8300907911802854
-1.1230640115968566
1.3183794918745708
1.6113527122911422
-0.7324330510414282
0.34180209048599985
4.931715877012284
9.228656443121995
8.838025482566568
22.412451361867703
73.68276493476768
111.76928358892195
97.99954222934309
107.66765850308995
153.46913862821393
150.63706416418708
129.73830777447165
155.03166247043563
165.1880674448768
141.65255207141223
151.0276951247425
171.53582055390248
158.15671015487908
155.61760891126877
177.59060044251163
174.85618371862364
145.65651941710536
121.24208438239108
120.26550698100252
121.14442664225223
83.4485389486534
43.018234531166556
41.943999389639124
36.27985046158541
11.963073167009995
11.963073167009995
20.068665598535134
4.834058136873426
-1.1230640115968566
10.498207064927138
4.931715877012284
-5.420004577706569
3.466849774929427
6.103608758678568
-4.638742656595713
-1.416037232013428
5.810635538261997
-1.8066681925688564
-12.158388647287708
-20.361638818951704
-27.002365148393988
-41.26039520866713
-67.53032730601969
-60.79194323643854
-24.95155260547799
-20.361638818951704
-26.025787747005417
-4.834058136873426
12.060730907148852
8.642710002288853
8.545052262149996
7.275501640344854
-10.009918364232853
-12.353704127565424
9.912260624093996
30.127412832837415
39.79552910658427
36.37750820172427
37.549401083390556
45.45967803463798
27.881284809643702
6.982528419928283
14.306858930342566
14.990463111314565
-0.6347753109025711
2.197299153124285
10.400549324788281
-0.24414435034714274
-3.8574807354848555
6.298924238956283
-0.6347753109025711
-43.89715419241627
-118.41000991836424
-178.86015106431677
-214.01693751430534
-269.3888761730373
-315.28801403830016
-313.334859235523
-307.08476386663614
-307.5730525673304
-285.50240329594874
-226.6147859922179
-145.07057297627222
-94.09323262378882
-79.63988708323797
-55.22545204852369
-30.811017013809415
-31.201647974364842
-26.416418707560844
-8.838025482566568
-8.74036774242771
-14.013885709925994
-3.1738765545128556
0.9277485313191425
-7.080186160067139
-3.076218814373999
3.9551384756237127
-2.2949568932631417
-3.9551384756237127
3.466849774929427
1.1230640115968566
-3.7598229953459983
1.6113527122911422
3.1738765545128556
-2.490272373540856
-0.24414435034714274
3.7598229953459983
-0.43945983062485694
-1.6113527122911422
2.8809033340962844
1.2207217517357138
-1.8066681925688564
1.416037232013428
2.392614633401999
-1.1230640115968566
0.04882887006942855
2.490272373540856
-0.04882887006942855
-0.8300907911802854
2.68558785381857
3.1738765545128556
1.2207217517357138
18.40848401617456
91.8471046005951
198.29404135194935
255.13084611276417
267.53337911039904
259.1348134584573
166.94590676737621
37.74471656366827
10.595864805065995
60.2059967956054
92.62836652170596
125.14839398794537
161.67238879987792
147.02372777904935
114.60135805294881
119.77721828030823
121.82803082322422
102.19882505531396
100.24567025253681
116.94514381628137
119.58190280003052
91.8471046005951
60.8896009765774
63.6240177004654
66.26077668421455
33.64309147783627
16.064698252841993
27.295338368810558
16.357671473258563
-0.7324330510414282
10.009918364232853
12.45136186770428
-3.7598229953459983
-0.14648661020828566
9.81460288395514
-1.2207217517357138
-5.224689097428855
6.103608758678568
2.197299153124285
-6.39658197909514
1.8066681925688564
4.541084916456855
-4.736400396734569
-1.8066681925688564
4.736400396734569
-1.7090104524299992
-3.9551384756237127
3.1738765545128556
0.8300907911802854
-4.345769436179141
0.8300907911802854
2.490272373540856
-3.076218814373999
-1.3183794918745708
2.68558785381857
-1.3183794918745708
-2.68558785381857
1.8066681925688564
0.34180209048599985
-2.783245593957427
0.34180209048599985
1.3183794918745708
-2.0996414129854277
-0.9277485313191425
1.513694972152285
-0.9277485313191425
-1.7090104524299992
0.9277485313191425
0.04882887006942855
-1.9043259327077133
0.04882887006942855
0.6347753109025711
-29.63912413214313
-113.52712291142137
-183.25474937056535
-191.3603418020905
-217.2396429388876
-272.22095063706416
-279.93591210803385
-267.04509040970476
-287.357900358587
-305.52224002441443
-274.369420920119
-198.09872587167163
-128.17578393224994
-96.82764934767681
-72.99916075379568
-44.09246967269398
-34.717326619363696
-32.37354085603113
-16.943617914091707
-9.42397192339971
-14.209201190203707
-8.252079041733426
-0.24414435034714274
-5.0293736171511405
-5.615320057984283
1.7090104524299992
-0.04882887006942855
-4.248111696040284
0.9277485313191425
2.490272373540856
-2.490272373540856
-0.34180209048599985
3.2715342946517127
-0.537117570763714
-1.6113527122911422
2.490272373540856
1.0254062714579995
-1.7090104524299992
1.416037232013428
2.0996414129854277
-1.1230640115968566
0.04882887006942855
2.2949568932631417
-0.04882887006942855
-0.6347753109025711
12.060730907148852
39.014267185473415
50.635538261997404
42.822919050888835
73.19447623407339
128.9570458533608
128.66407263294423
109.52315556572823
132.47272449835967
130.81254291599907
93.01899748226138
96.24170290684367
115.57793545433738
101.51522087434195
100.92927443350881
121.73037308308537
104.34729533836881
70.16708628976883
64.69825284199283
53.07698176546884
32.764171816586554
48.97535667963683
74.46402685587854
69.28816662851911
64.20996414129854
74.75700007629511
71.04600595101854
62.15915159838254
71.04600595101854
76.61249713893339
68.31158922713054
66.3584344243534
75.9288929579614
80.12817578393225
64.3076218814374
41.943999389639124
43.311207751583126
51.22148470283055
34.131380178530556
31.2993057145037
47.998779278248264
27.49065384908827
-1.9043259327077133
4.638742656595713
6.6895551995117115
-11.670099946593423
-10.888838025482567
2.68558785381857
-8.154421301594567
-35.69390402075227
-50.24490730144198
-43.40886549172198
-37.549401083390556
-52.49103532463569
-56.59266041046769
-42.43228809033341
-54.54184786755169
-76.8078126192111
-73.87808041504539
-75.44060425726711
-79.44457160296025
-41.84634164950027
22.705424582284277
75.14763103685054
103.37071793698024
115.38261997405966
129.05470359349965
116.35919737544823
61.67086289768826
33.838406958113985
42.92057679102769
26.025787747005417
4.834058136873426
17.13893339436942
17.52956435492485
-2.68558785381857
2.197299153124285
12.84199282825971
-1.3183794918745708
-5.127031357289998
8.252079041733426
-1.9043259327077133
-50.635538261997404
-123.4882124055848
-178.5671778439002
-209.13405050736247
-254.74021515220875
-286.38132295719845
-275.736629282063
-275.736629282063
-296.0494392309453
-291.6548409246967
-241.36110475318532
-163.91851682307163
-114.79667353322652
-98.29251544975968
-66.65140764476998
-36.768139162279695
-37.35408560311284
-31.201647974364842
-10.302891584649425
-10.79118028534371
-16.748302433813993
-3.5645075150682843
0.7324330510414282
-8.838025482566568
-3.466849774929427
4.638742656595713
-3.076218814373999
-4.736400396734569
4.248111696040284
1.1230640115968566
-4.541084916456855
2.0996414129854277
3.662165255207141
-3.1738765545128556
-0.537117570763714
4.150453955901427
-0.9277485313191425
-2.0996414129854277
3.2715342946517127
1.2207217517357138
-2.2949568932631417
1.8066681925688564
2.68558785381857
-1.6113527122911422
0.04882887006942855
3.8574807354848555
2.783245593957427
2.0019836728465705
24.267948424505988
83.83916990920882
128.07812619211109
125.92965590905622
148.0979629205768
196.3408865491722
191.16502632181277
167.6295109483482
180.32501716639965
169.09437705043106
128.17578393224994
122.21866178377967
123.09758144502938
95.06981002517739
89.40566109712367
110.89036392767224
103.07774471656367
81.49538414587624
83.83916990920882
86.1829556725414
75.53826199740597
73.19447623407339
93.2143129625391
115.28496223392081
93.11665522240024
46.826886396581976
39.307240405889985
43.018234531166556
17.627222095063708
7.568474860761425
20.84992751964599
10.693522545204852
-3.662165255207141
7.861448081177996
9.71694514381628
-5.127031357289998
-0.43945983062485694
8.545052262149996
-2.2949568932631417
-4.931715877012284
5.810635538261997
1.416037232013428
-6.103608758678568
2.0019836728465705
3.8574807354848555
-4.736400396734569
-1.3183794918745708
4.443427176317998
-2.0996414129854277
-3.5645075150682843
3.1738765545128556
0.43945983062485694
-4.150453955901427
1.0254062714579995
2.197299153124285
-3.1738765545128556
-1.0254062714579995
2.490272373540856
-1.513694972152285
-2.392614633401999
1.8066681925688564
0.14648661020828566
-2.68558785381857
0.43945983062485694
1.1230640115968566
-2.0996414129854277
-0.7324330510414282
1.416037232013428
-1.0254062714579995
-1.6113527122911422
1.0254062714579995
0.04882887006942855
-17.52956435492485
-56.983291371023114
-89.40566109712367
-125.44136720836194
-206.20431830319677
-269.1935606927596
-267.8263523308156
-281.0101472495613
-319.487296864271
-313.1395437552453
-268.1193255512322
-219.48577096208132
-179.15312428473334
-143.89868009460594
-97.21828030823224
-60.30365453574426
-51.51445792324712
-39.79552910658427
-20.16632333867399
-17.920195315480278
-19.092088197146563
-7.080186160067139
-3.2715342946517127
-9.228656443121995
-3.8574807354848555
2.197299153124285
-3.466849774929427
-3.662165255207141
2.9785610742351416
0.24414435034714274
-3.466849774929427
1.7090104524299992
2.490272373540856
-2.2949568932631417
0.04882887006942855
3.076218814373999
-0.7324330510414282
-1.1230640115968566
2.783245593957427
0.8300907911802854
-1.513694972152285
1.513694972152285
7.470817120622568
16.260013733119706
17.724879835202564
11.572442206454566
13.037308308537423
11.572442206454566
8.74036774242771
24.267948424505988
34.32669565880827
29.9320973525597
56.88563363088426
94.38620584420539
78.17502098115511
60.01068131532769
92.72602426184481
105.12855725947966
86.37827115281911
101.80819409475852
120.16784924086366
100.44098573281453
92.43305104142824
104.44495307850767
89.1126878767071
72.90150301365682
91.06584267948425
100.34332799267567
91.8471046005951
102.1011673151751
110.40207522697796
97.02296482795452
97.51125352864881
114.69901579308767
113.2341496910048
95.06981002517739
81.98367284657053
80.81177996490425
79.05394064240483
62.84275577935454
51.61211566338598
51.90508888380255
38.03768978408484
12.84199282825971
4.834058136873426
10.595864805065995
2.9785610742351416
-10.009918364232853
-12.74433508812085
-13.037308308537423
-14.209201190203707
-13.916227969787137
-6.494239719233997
1.2207217517357138
-2.197299153124285
-6.201266498817426
-3.662165255207141
8.154421301594567
22.314793621728846
20.947585259784848
28.95551995117113
55.90905622949569
47.60814831769284
13.232623788815136
14.013885709925994
22.803082322423133
3.076218814373999
-1.513694972152285
13.427939269092851
4.541084916456855
-7.080186160067139
5.420004577706569
6.884870679789426
-6.591897459372854
-0.8300907911802854
7.275501640344854
-3.1738765545128556
-4.834058136873426
5.420004577706569
0.6347753109025711
-20.263981078812847
-50.635538261997404
-84.62043183031967
-136.08606088349737
-217.2396429388876
-263.8223849851224
-246.14633401998933
-240.67750057221332
-254.8378728923476
-225.4428931105516
-174.4655527580682
-142.04318303196766
-111.76928358892195
-94.67917906462196
-114.60135805294881
-152.68787670710307
-168.60608834973678
-129.34767681391622
-70.26474402990769
-52.10040436408026
-48.09643701838712
-23.291371023117417
-14.306858930342566
-23.291371023117417
-11.963073167009995
0.24414435034714274
-9.228656443121995
-8.935683222705425
3.662165255207141
-0.8300907911802854
-7.373159380483711
2.2949568932631417
3.662165255207141
-5.0293736171511405
-0.43945983062485694
5.224689097428855
-1.9043259327077133
-2.68558785381857
4.345769436179141
0.9277485313191425
-3.36919203479057
2.2949568932631417
2.9785610742351416
-2.490272373540856
0.14648661020828566
3.662165255207141
-0.8300907911802854
-1.416037232013428
12.060730907148852
31.885252155336843
35.20561532005799
34.424353398947126
79.54222934309911
138.5275043869688
137.45326924544136
129.6406500343328
171.63347829404134
186.57511253528648
159.32860303654536
160.40283817807278
164.99275196459908
139.69939726863507
139.89471274891278
168.3131151293202
168.3131151293202
150.63706416418708
149.4651712825208
159.13328755626765
152.3949034866865
110.69504844739453
75.14763103685054
72.90150301365682
56.39734493018997
24.65857938506142
23.389028763256274
27.49065384908827
8.349736781872283
3.2715342946517127
14.50217441062028
5.615320057984283
-4.248111696040284
6.005951018539712
6.39658197909514
-5.0293736171511405
-0.04882887006942855
6.298924238956283
-2.68558785381857
-3.7598229953459983
4.736400396734569
0.34180209048599985
-4.931715877012284
2.0019836728465705
2.5879301136797133
-4.150453955901427
-0.7324330510414282
3.36919203479057
-2.0996414129854277
-2.5879301136797133
2.5879301136797133
-0.04882887006942855
-3.36919203479057
0.9277485313191425
1.416037232013428
-5.615320057984283
-15.088120851453422
-27.100022888532845
-60.49897001602197
-137.45326924544136
-184.0360112916762
-113.03883421072709
-3.1738765545128556
47.90112153810941
66.06546120393683
85.0110627908751
95.85107194628824
80.51880674448768
45.26436255436027
27.97894254978256
28.467231250476843
17.041275654230564
6.6895551995117115
11.963073167009995
9.81460288395514
-0.04882887006942855
2.783245593957427
6.591897459372854
-0.7324330510414282
-1.6113527122911422
4.248111696040284
-5.810635538261997
-51.90508888380255
-123.39055466544595
-163.62554360265506
-174.75852597848478
-218.4115358205539
-259.1348134584573
-258.35355153734645
-276.12726024261843
-313.4325169756619
-304.54566262302586
-246.53696498054475
-178.66483558403905
-136.6720073243305
-113.9177538719768
-76.71015487907225
-45.654993514915695
-42.72526131074998
-33.3501182574197
-13.81857022964828
-13.81857022964828
-17.041275654230564
-4.541084916456855
-1.2207217517357138
-8.74036774242771
-3.076218814373999
3.2715342946517127
-3.5645075150682843
-3.9551384756237127
3.662165255207141
0.43945983062485694
-3.8574807354848555
2.0996414129854277
2.783245593957427
-2.783245593957427
0.04882887006942855
3.5645075150682843
-0.9277485313191425
-1.416037232013428
3.1738765545128556
0.9277485313191425
-1.8066681925688564
3.662165255207141
20.068665598535134
41.45571068894484
43.99481193255512
46.533913176165406
70.36240177004655
61.182574196993976
34.61966887922484
62.15915159838254
88.33142595559625
64.01464866102083
59.815365835049974
82.56961928740368
68.89753566796368
51.709773403524835
70.85069047074083
72.70618753337911
56.59266041046769
79.24925612268254
122.41397726405738
159.2309452964065
210.30594338902876
244.29083695735105
200.14953841458762
107.27702754253453
31.2993057145037
-13.916227969787137
-11.572442206454566
47.90112153810941
109.23018234531166
127.88281071183337
116.55451285572595
101.02693217364767
98.6831464103151
89.40566109712367
57.66689555199512
50.928511482413974
63.233386739909974
35.98687724116884
9.033340962844282
23.19371328297856
20.84992751964599
-2.783245593957427
4.931715877012284
15.771725032425422
-2.197299153124285
-4.834058136873426
10.498207064927138
1.9043259327077133
-8.252079041733426
4.638742656595713
5.71297779812314
-7.080186160067139
-0.9277485313191425
6.787212939650568
-3.662165255207141
-4.638742656595713
5.322346837567712
0.24414435034714274
-9.326314183260854
-8.44739452201114
-7.666132600900283
-5.810635538261997
5.615320057984283
11.08415350576028
1.7090104524299992
-0.9277485313191425
4.931715877012284
1.1230640115968566
-3.36919203479057
2.0019836728465705
2.490272373540856
-2.9785610742351416
-0.43945983062485694
2.783245593957427
-9.033340962844282
-40.186160067139696
-69.67879758907453
-78.85862516212711
-111.47631036850538
-179.73907072556648
-206.20431830319677
-195.1689936675059
-216.75135423819333
-236.77119096665905
-218.99748226138703
-217.53261615930418
-230.7164110780499
-210.50125886930647
-176.5163653009842
-153.9574273289082
-142.8244449530785
-125.44136720836194
-80.9094377050431
-45.947966735332265
-44.09246967269398
-33.545433737697415
-12.939650568398566
-14.990463111314565
-18.21316853589685
-3.5645075150682843
-1.1230640115968566
-9.912260624093996
-2.68558785381857
3.8574807354848555
-4.345769436179141
-3.9551384756237127
4.443427176317998
-0.04882887006942855
-4.345769436179141
2.8809033340962844
2.8809033340962844
-3.466849774929427
0.24414435034714274
3.8574807354848555
-1.6113527122911422
-1.513694972152285
3.5645075150682843
0.6347753109025711
-2.197299153124285
2.0019836728465705
2.0996414129854277
-1.8066681925688564
0.537117570763714
2.783245593957427
-0.537117570763714
-0.537117570763714
2.392614633401999
0.537117570763714
-1.1230640115968566
12.74433508812085
55.420767528801406
94.77683680476082
88.91737239642939
95.9487296864271
152.10193026626993
168.21545738918135
142.14084077210651
155.1293202105745
170.55924315251391
148.5862516212711
147.1213855191882
162.6489662012665
140.3830014496071
121.04676890211337
142.92210269321737
149.56282902265966
126.0273136491951
116.06622415503166
115.87090867475395
99.85503929198138
76.31952391851682
61.182574196993976
57.27626459143969
53.467612726024264
40.479133287556266
42.92057679102769
53.467612726024264
31.592278934920273
10.595864805065995
21.045242999923705
17.041275654230564
-1.513694972152285
6.39658197909514
14.599832150759136
-1.2207217517357138
-2.9785610742351416
9.42397192339971
1.513694972152285
-6.591897459372854
4.345769436179141
4.541084916456855
-6.005951018539712
-0.34180209048599985
5.517662317845426
-3.36919203479057
-3.662165255207141
4.541084916456855
0.04882887006942855
-4.834058136873426
2.0996414129854277
2.2949568932631417
-4.150453955901427
-0.537117570763714
3.1738765545128556
-2.2949568932631417
-2.490272373540856
2.5879301136797133
-0.24414435034714274
-3.1738765545128556
1.1230640115968566
1.2207217517357138
-2.68558785381857
-0.43945983062485694
1.8066681925688564
-1.513694972152285
-1.6113527122911422
1.416037232013428
-0.24414435034714274
-2.0996414129854277
0.537117570763714
0.6347753109025711
-1.8066681925688564
-0.43945983062485694
0.9277485313191425
-1.1230640115968566
-1.2207217517357138
0.7324330510414282
-8.252079041733426
-53.760585946440834
-125.24605172808423
-157.76607919432365
-165.28572518501565
-215.57946135652705
-256.49805447470817
-245.26741435873961
-257.962920576791
-298.88151369497217
-295.0728618295567
-247.1229114213779
-193.02052338445105
-154.93400473029678
-125.83199816891737
-84.03448538948653
-51.90508888380255
-46.240939955748836
-35.010299839780274
-16.45532921339742
-15.967040512703136
-17.236591134508277
-5.224689097428855
-2.490272373540856
-8.838025482566568
-3.076218814373999
2.2949568932631417
-3.662165255207141
-3.2715342946517127
3.466849774929427
0.14648661020828566
-3.36919203479057
2.0019836728465705
2.197299153124285
-2.490272373540856
0.34180209048599985
3.2715342946517127
-0.8300907911802854
-1.0254062714579995
2.783245593957427
0.537117570763714
-1.6113527122911422
1.7090104524299992
1.8066681925688564
-1.2207217517357138
0.43945983062485694
15.674067292286564
41.26039520866713
40.86976424811169
31.201647974364842
67.7256427862974
99.17143511100939
85.79232471198596
98.87846189059282
131.10551613641564
113.9177538719768
96.24170290684367
124.46478980697337
134.71885252155337
120.94911116197451
133.64461738002595
141.0666056305791
120.85145342183566
119.77721828030823
129.6406500343328
107.47234302281224
84.42511635004196
86.76890211337454
73.58510719462882
48.09643701838712
49.658960860608836
57.95986877241169
52.49103532463569
57.178606851300835
68.21393148699168
61.37788967727169
46.14328221560998
40.479133287556266
58.74113069352254
81.98367284657053
65.6748302433814
45.26436255436027
55.90905622949569
41.358052948805984
-0.43945983062485694
-12.060730907148852
-3.5645075150682843
-10.498207064927138
-19.971007858396277
-18.799114976729992
-16.260013733119706
-13.525597009231708
-14.50217441062028
-14.404516670481422
-12.060730907148852
-24.072632944228275
-33.545433737697415
-23.779659723811704
-12.45136186770428
-5.615320057984283
5.127031357289998
19.678034637979707
24.4632639047837
17.041275654230564
6.298924238956283
-2.392614633401999
-1.0254062714579995
13.525597009231708
44.97138933394369
64.11230640115969
35.69390402075227
9.81460288395514
21.14290074006256
17.13893339436942
-2.68558785381857
5.420004577706569
13.623254749370565
-2.5879301136797133
-3.5645075150682843
9.42397192339971
0.9277485313191425
-6.982528419928283
4.541084916456855
4.443427176317998
-18.506141756313422
-46.826886396581976
-67.0420386053254
-94.77683680476082
-163.62554360265506
-231.79064621957733
-240.87281605249103
-239.40794995040818
-261.5762569619287
-257.5722896162356
-227.00541695277332
-219.68108644235903
-236.77119096665905
-232.37659266041047
-173.68429083695736
-102.68711375600824
-76.51483939879454
-64.20996414129854
-35.010299839780274
-24.4632639047837
-29.9320973525597
-15.869382772564279
-3.5645075150682843
-12.158388647287708
-9.912260624093996
2.392614633401999
-2.5879301136797133
-7.666132600900283
2.0996414129854277
2.5879301136797133
-5.420004577706569
-0.24414435034714274
4.541084916456855
-2.2949568932631417
-2.0996414129854277
4.443427176317998
0.537117570763714
-3.076218814373999
2.5879301136797133
2.490272373540856
-2.5879301136797133
0.43945983062485694
3.466849774929427
-1.0254062714579995
-1.0254062714579995
2.9785610742351416
0.537117570763714
-1.6113527122911422
4.931715877012284
17.724879835202564
27.881284809643702
21.14290074006256
13.81857022964828
28.564888990615703
36.0845349813077
51.61211566338598
116.84748607614252
159.7192339971008
142.72678721293966
148.19562066071566
173.78194857709622
154.15274280918592
135.01182574196994
156.1058976119631
156.1058976119631
136.86732280460822
150.24643320363165
159.81689173723964
141.55489433127337
139.99237048905164
148.87922484168766
134.62119478141452
106.98405432211796
85.0110627908751
87.15953307392996
90.08926527809568
53.467612726024264
23.682001983672848
32.56885633630884
25.146868085755703
2.5879301136797133
9.912260624093996
16.84596017395285
-0.7324330510414282
-1.8066681925688564
10.986495765621424
1.6113527122911422
-6.591897459372854
5.224689097428855
4.638742656595713
-6.494239719233997
0.04882887006942855
6.005951018539712
-3.7598229953459983
-3.5645075150682843
4.931715877012284
-0.34180209048599985
-5.0293736171511405
2.490272373540856
2.2949568932631417
-9.033340962844282
-14.404516670481422
-10.595864805065995
-3.9551384756237127
5.908293278400855
12.158388647287708
5.0293736171511405
-0.6347753109025711
3.7598229953459983
2.783245593957427
-2.2949568932631417
0.6347753109025711
2.9785610742351416
-1.6113527122911422
-1.416037232013428
2.2949568932631417
-0.24414435034714274
-2.392614633401999
1.0254062714579995
0.7324330510414282
-2.197299153124285
-0.14648661020828566
1.3183794918745708
-1.416037232013428
-1.2207217517357138
1.0254062714579995
-0.43945983062485694
-1.7090104524299992
0.43945983062485694
0.34180209048599985
-27.295338368810558
-100.14801251239795
-157.1801327534905
-165.67635614557108
-189.89547570000764
-205.42305638208592
-146.34012359807735
-94.77683680476082
-133.64461738002595
-220.65766384374763
-295.85412375066755
-318.70603494316015
-284.9164568551156
-226.71244373235675
-156.20355535210194
-96.6323338673991
-74.17105363546197
-60.108339055466544
-35.889219501029984
-26.22110322728313
-26.709391927977418
-14.599832150759136
-5.908293278400855
-10.888838025482567
-7.861448081177996
0.43945983062485694
-3.076218814373999
-5.615320057984283
1.3183794918745708
1.2207217517357138
-3.662165255207141
0.34180209048599985
3.1738765545128556
-1.8066681925688564
-1.2207217517357138
3.076218814373999
0.14648661020828566
-1.8066681925688564
2.197299153124285
1.8066681925688564
-1.513694972152285
0.7324330510414282
2.197299153124285
-0.8300907911802854
-0.43945983062485694
7.080186160067139
15.283436331731137
13.916227969787137
15.967040512703136
47.60814831769284
76.41718165865568
57.764553292133975
45.45967803463798
74.95231555657283
75.83123521782254
56.88563363088426
84.91340505073624
107.47234302281224
87.15953307392996
89.89394979781795
112.5505455100328
98.48783093003739
80.51880674448768
89.01503013656824
80.12817578393225
66.06546120393683
89.69863431754024
108.74189364461738
96.72999160753795
97.80422674906538
113.13649195086595
108.64423590447852
104.24963759822995
119.28892957961395
125.05073624780651
110.10910200656139
95.85107194628824
101.90585183489738
108.64423590447852
78.85862516212711
43.79949645227741
48.19409475852598
49.85427634088655
19.18974593728542
9.033340962844282
23.389028763256274
13.525597009231708
1.7090104524299992
12.158388647287708
7.275501640344854
-12.256046387426567
-13.037308308537423
-4.638742656595713
-4.541084916456855
5.0293736171511405
18.701457236591136
9.130998702983138
1.2207217517357138
12.84199282825971
9.326314183260854
-4.248111696040284
2.68558785381857
8.05676356145571
-3.2715342946517127
-2.783245593957427
6.298924238956283
-0.24414435034714274
-5.127031357289998
3.2715342946517127
2.490272373540856
-4.834058136873426
0.04882887006942855
3.7598229953459983
-2.9785610742351416
-2.490272373540856
3.2715342946517127
-0.537117570763714
-3.5645075150682843
1.7090104524299992
1.2207217517357138
-3.2715342946517127
-0.14648661020828566
2.0996414129854277
-22.705424582284277
-88.81971465629053
-143.60570687418937
-140.3830014496071
-142.53147173266194
-180.9109636072328
-189.01655603875793
-179.15312428473334
-208.8410772869459
-234.1344319829099
-222.90379186694133
-226.51712825207903
-245.56038757915618
-233.35317006179903
-180.03204394598308
-117.14045929655909
-87.94079499504082
-77.68673228046082
-48.584725719081405
-27.783627069504846
-31.2993057145037
-22.510109102006563
-6.005951018539712
-10.498207064927138
-13.232623788815136
-0.43945983062485694
-0.24414435034714274
-7.959105821316854
-0.7324330510414282
4.052796215762569
-3.9551384756237127
-2.783245593957427
4.345769436179141
-0.34180209048599985
-3.5645075150682843
3.1738765545128556
2.490272373540856
-2.8809033340962844
0.8300907911802854
3.36919203479057
-1.7090104524299992
-0.9277485313191425
3.36919203479057
0.24414435034714274
-1.7090104524299992
2.392614633401999
1.8066681925688564
-1.513694972152285
0.8300907911802854
2.490272373540856
-0.7324330510414282
-0.34180209048599985
18.21316853589685
52.588693064774546
57.56923781185626
40.67444876783398
75.34294651712825
126.32028686961166
115.38261997405966
103.95666437781338
150.1487754634928
197.80575265125506
243.4119172961013
307.96368352788585
308.549629968719
213.52864881361106
117.53109025711451
66.26077668421455
37.256427862973986
44.38544289311055
84.13214312962539
104.8355840390631
94.28854810406654
81.88601510643167
91.65178912031739
104.1519798580911
76.51483939879454
38.72129396505684
39.69787136644541
39.69787136644541
13.81857022964828
9.130998702983138
20.45929655909056
7.177843900205997
-2.9785610742351416
9.326314183260854
7.177843900205997
-5.810635538261997
1.7090104524299992
7.568474860761425
-3.8574807354848555
-3.2715342946517127
6.103608758678568
-0.34180209048599985
-5.420004577706569
3.2715342946517127
2.490272373540856
-5.0293736171511405
0.04882887006942855
3.7598229953459983
-3.076218814373999
-2.490272373540856
3.36919203479057
-0.537117570763714
-18.701457236591136
-44.67841611352712
-48.38941023880369
-42.13931486991684
-57.95986877241169
-48.38941023880369
6.884870679789426
56.7879758907454
67.0420386053254
40.96742198825055
18.799114976729992
19.287403677424276
14.306858930342566
3.1738765545128556
6.494239719233997
9.228656443121995
0.24414435034714274
-0.24414435034714274
5.615320057984283
0.7324330510414282
-3.076218814373999
2.5879301136797133
2.0996414129854277
-3.1738765545128556
0.04882887006942855
2.68558785381857
-17.627222095063708
-70.55771725032426
-119.19127183947509
-137.06263828488594
-182.86411841000992
-267.92401007095447
-312.9442282749676
-317.9247730220493
-331.20622568093387
-335.30785076676585
-294.877546349279
-212.0637827115282
-134.2305638208591
-98.39017318989853
-76.61249713893339
-47.90112153810941
-35.4009308003357
-33.545433737697415
-19.48271915770199
-9.521629663538567
-13.720912489509422
-9.81460288395514
-0.7324330510414282
-4.150453955901427
-6.39658197909514
0.7324330510414282
0.7324330510414282
-4.052796215762569
0.14648661020828566
2.8809033340962844
-2.0019836728465705
-1.2207217517357138
2.9785610742351416
0.04882887006942855
-1.8066681925688564
2.197299153124285
1.7090104524299992
-1.6113527122911422
0.7324330510414282
2.392614633401999
-0.6347753109025711
-0.43945983062485694
13.232623788815136
34.61966887922484
33.15480277714199
24.560921644922562
60.8896009765774
98.19485770962082
77.29610131990539
70.94834821087969
119.28892957961395
135.40245670252537
116.35919737544823
128.4687571526665
131.78912031738764
98.87846189059282
90.47989623865111
102.58945601586939
88.33142595559625
80.51880674448768
101.6128786144808
102.88242923628596
89.60097657740138
102.7847714961471
111.08567940794995
96.72999160753795
100.53864347295338
122.41397726405738
129.34767681391622
117.53109025711451
97.60891126878766
92.82368200198367
91.8471046005951
59.522392614633404
37.549401083390556
48.584725719081405
33.838406958113985
6.201266498817426
15.381094071869994
20.55695429922942
-0.7324330510414282
0.04882887006942855
13.916227969787137
1.0254062714579995
-6.6895551995117115
7.373159380483711
4.638742656595713
-7.568474860761425
1.3183794918745708
6.6895551995117115
-5.0293736171511405
-3.2715342946517127
6.103608758678568
-1.1230640115968566
-5.517662317845426
3.5645075150682843
2.0996414129854277
-15.088120851453422
-29.9320973525597
-26.416418707560844
-6.298924238956283
15.967040512703136
23.58434424353399
10.79118028534371
2.0996414129854277
7.080186160067139
4.638742656595713
-2.0996414129854277
2.0996414129854277
4.345769436179141
-2.0019836728465705
-1.1230640115968566
3.36919203479057
-0.43945983062485694
-2.68558785381857
1.9043259327077133
0.8300907911802854
-28.076600289921416
-94.97215228503853
-141.2619211108568
-141.7502098115511
-164.99275196459908
-199.9542229343099
-192.04394598306249
-193.70412756542305
-229.8374914168002
-240.67750057221332
-227.10307469291217
-230.5210955977722
-242.82597085526817
-227.2983901731899
-165.48104066529336
-99.65972381170367
-75.14763103685054
-61.182574196993976
-34.22903791866941
-25.049210345616846
-28.076600289921416
-14.50217441062028
-4.736400396734569
-11.865415426871138
-8.545052262149996
1.6113527122911422
-3.076218814373999
-6.494239719233997
2.0019836728465705
1.8066681925688564
-4.541084916456855
0.34180209048599985
3.9551384756237127
-2.2949568932631417
-1.6113527122911422
3.7598229953459983
0.04882887006942855
-2.392614633401999
2.490272373540856
2.0019836728465705
-2.197299153124285
0.7324330510414282
2.8809033340962844
-0.9277485313191425
-0.537117570763714
2.783245593957427
0.43945983062485694
-1.2207217517357138
1.8066681925688564
1.513694972152285
-1.1230640115968566
0.7324330510414282
16.55298695353628
44.48310063324941
50.44022278171969
57.86221103227283
112.64820325017166
145.65651941710536
128.9570458533608
145.85183489738307
180.61799038681622
166.16464484626536
151.5159838254368
169.97329671168077
163.62554360265506
146.04715037766078
163.3325703822385
166.35996032654307
134.52353704127566
122.51163500419624
122.12100404364081
94.48386358434425
65.57717250324254
56.29968719005112
51.90508888380255
48.68238345922026
48.48706797894255
66.55374990463112
89.01503013656824
65.47951476310368
25.63515678644999
27.002365148393988
28.857862211032273
5.517662317845426
4.541084916456855
17.334248874647134
3.9551384756237127
-4.931715877012284
8.642710002288853
5.810635538261997
-6.884870679789426
1.6113527122911422
7.177843900205997
-4.541084916456855
-3.1738765545128556
6.201266498817426
-0.9277485313191425
-5.517662317845426
3.466849774929427
2.197299153124285
-5.224689097428855
0.24414435034714274
3.7598229953459983
-3.36919203479057
-2.392614633401999
3.466849774929427
-0.8300907911802854
-3.5645075150682843
2.0019836728465705
1.2207217517357138
-3.466849774929427
0.04882887006942855
2.0996414129854277
-2.197299153124285
-1.6113527122911422
2.0996414129854277
-0.6347753109025711
-2.392614633401999
1.0254062714579995
0.537117570763714
-2.2949568932631417
-0.14648661020828566
1.2207217517357138
-13.623254749370565
-56.49500267032883
-101.02693217364767
-124.8554207675288
-176.90699626153963
-256.0097657740139
-282.1820401312276
-279.5452811474784
-315.4833295185779
-346.147859922179
-313.92080567635617
-234.3297474631876
-159.42626077668422
-120.46082246128023
-92.14007782101167
-58.1551842526894
-42.62760357061112
-38.72129396505684
-23.19371328297856
-12.646677347981994
-15.967040512703136
-11.181811245899137
-1.8066681925688564
-4.931715877012284
-6.787212939650568
0.537117570763714
0.34180209048599985
-4.345769436179141
0.04882887006942855
2.783245593957427
-1.9043259327077133
-1.1230640115968566
3.076218814373999
0.04882887006942855
-1.8066681925688564
2.0019836728465705
1.416037232013428
-1.6113527122911422
0.9277485313191425
2.392614633401999
-0.7324330510414282
-0.34180209048599985
2.2949568932631417
0.34180209048599985
-0.8300907911802854
1.513694972152285
1.2207217517357138
-0.7324330510414282
2.0019836728465705
25.439841306172273
66.84672312504769
74.95231555657283
56.20202944991226
50.635538261997404
20.947585259784848
-34.131380178530556
-58.54581521324483
-43.50652323186084
-6.39658197909514
56.29968719005112
121.24208438239108
129.93362325474936
118.11703669794767
151.5159838254368
174.4655527580682
157.47310597390708
161.67238879987792
176.5163653009842
158.15671015487908
149.2698558022431
171.14518959334706
172.2194247348745
149.75814450293737
142.33615625238423
150.1487754634928
144.09399557488365
107.08171206225681
74.65934233615626
76.41718165865568
67.82330052643626
32.86182955672541
23.87731746395056
31.885252155336843
14.11154345006485
2.0019836728465705
14.306858930342566
10.10757610437171
-4.248111696040284
3.662165255207141
8.935683222705425
-3.662165255207141
-2.5879301136797133
7.080186160067139
-0.34180209048599985
-5.420004577706569
3.8574807354848555
2.490272373540856
-5.420004577706569
0.24414435034714274
4.052796215762569
-3.36919203479057
-2.392614633401999
3.662165255207141
-0.8300907911802854
-3.7598229953459983
2.0019836728465705
1.3183794918745708
-3.5645075150682843
0.04882887006942855
2.2949568932631417
-2.2949568932631417
-1.7090104524299992
2.0996414129854277
-0.6347753109025711
-2.490272373540856
1.1230640115968566
0.6347753109025711
-2.392614633401999
-0.14648661020828566
1.2207217517357138
-10.205233844510566
-38.818951705195694
-60.59662775616083
-68.01861600671397
-118.41000991836424
-207.2785534447242
-251.22453650720988
-269.6818493934539
-318.4130617227436
-344.68299382009616
-307.96368352788585
-250.7362478065156
-209.3293659876402
-180.12970168612193
-138.23453116655222
-86.96421759365225
-61.67086289768826
-52.881666285191116
-32.764171816586554
-19.58037689784085
-22.119478141451133
-15.185778591592278
-4.150453955901427
-7.568474860761425
-8.935683222705425
0.04882887006942855
-0.24414435034714274
-5.322346837567712
-0.14648661020828566
2.5879301136797133
-2.783245593957427
-1.416037232013428
3.36919203479057
-0.14648661020828566
-2.0996414129854277
2.2949568932631417
1.513694972152285
-1.9043259327077133
0.9277485313191425
2.490272373540856
-1.1230640115968566
-0.24414435034714274
2.5879301136797133
0.24414435034714274
-0.9277485313191425
1.8066681925688564
1.2207217517357138
-0.9277485313191425
0.8300907911802854
18.701457236591136
51.709773403524835
61.08491645685512
69.67879758907453
121.4373998626688
145.5588616769665
123.78118562600137
143.01976043335623
179.4460975051499
165.3833829251545
152.59021896696422
170.85221637293049
158.74265659571222
133.35164415960938
146.04715037766078
149.85580224307623
124.46478980697337
122.51163500419624
134.71885252155337
122.6092927443351
101.6128786144808
88.52674143587396
88.33142595559625
86.28061341268025
57.471580071717405
39.5025558861677
48.291752498664835
32.37354085603113
7.373159380483711
15.869382772564279
19.092088197146563
-0.34180209048599985
1.1230640115968566
12.84199282825971
0.6347753109025711
-5.615320057984283
7.080186160067139
3.8574807354848555
-6.787212939650568
1.6113527122911422
5.71297779812314
-4.736400396734569
-2.5879301136797133
5.420004577706569
-1.3183794918745708
-4.736400396734569
3.36919203479057
1.6113527122911422
-4.736400396734569
0.537117570763714
3.076218814373999
-3.2715342946517127
-1.8066681925688564
3.1738765545128556
-1.0254062714579995
-3.076218814373999
1.9043259327077133
0.7324330510414282
-3.1738765545128556
0.14648661020828566
1.8066681925688564
-2.0996414129854277
-1.2207217517357138
1.8066681925688564
-0.8300907911802854
-2.0996414129854277
1.0254062714579995
0.24414435034714274
-2.0996414129854277
0.04882887006942855
0.9277485313191425
-1.513694972152285
-0.9277485313191425
0.9277485313191425
-13.427939269092851
-69.48348210879682
-143.01976043335623
-168.60608834973678
-174.85618371862364
-221.1459525444419
-248.6854352635996
-229.93514915693905
-236.38056000610362
-254.6425574120699
-233.54848554207675
-208.8410772869459
-201.8097199969482
-190.1884489204242
-155.61760891126877
-98.87846189059282
-61.86617837796597
-54.639505607690545
-38.42832074464027
-19.18974593728542
-20.752269779507134
-19.18974593728542
-5.0293736171511405
-4.736400396734569
-10.400549324788281
-2.0996414129854277
1.9043259327077133
-5.224689097428855
-2.68558785381857
3.7598229953459983
-1.1230640115968566
-3.1738765545128556
3.076218814373999
1.416037232013428
-3.1738765545128556
1.1230640115968566
3.076218814373999
-1.8066681925688564
-0.43945983062485694
3.2715342946517127
-0.04882887006942855
-1.513694972152285
2.392614633401999
1.3183794918745708
-1.513694972152285
1.0254062714579995
2.2949568932631417
-0.6347753109025711
0.04882887006942855
5.127031357289998
8.74036774242771
7.763790341039139
17.43190661478599
56.7879758907454
84.13214312962539
63.33104448004883
59.42473487449455
91.8471046005951
82.0813305867094
53.467612726024264
71.53429465171283
75.34294651712825
36.475165941863125
25.342183566033416
36.475165941863125
23.974975204089418
26.22110322728313
58.936446173800256
65.6748302433814
56.29968719005112
75.63591973754482
96.14404516670481
113.82009613183794
175.24681467917907
258.2558937972076
292.92439154650185
259.8184176394293
170.46158541237506
49.56130312046998
-34.61966887922484
-38.03768978408484
-3.2715342946517127
25.342183566033416
49.26832990005341
60.49897001602197
49.17067215991455
33.74074921797513
26.90470740825513
24.756237125200276
22.90074006256199
19.092088197146563
23.682001983672848
32.471198596169984
27.783627069504846
23.974975204089418
33.64309147783627
31.9829098954757
16.748302433813993
25.732814526588847
41.5533684290837
22.314793621728846
12.158388647287708
30.322728313115128
18.994430457007706
-3.9551384756237127
8.935683222705425
14.795147631036851
-5.224689097428855
-2.0019836728465705
11.767757686732281
-1.1230640115968566
-7.470817120622568
6.982528419928283
3.5645075150682843
-8.05676356145571
1.6113527122911422
6.103608758678568
-5.517662317845426
-2.9785610742351416
6.005951018539712
-1.6113527122911422
-5.322346837567712
3.7598229953459983
1.7090104524299992
-31.885252155336843
-101.41756313420309
-162.6489662012665
-196.3408865491722
-249.5643549248493
-300.54169527733274
-307.866025787747
-310.69810025177384
-320.46387426565957
-304.6433203631647
-247.1229114213779
-162.35599298084992
-104.24963759822995
-85.30403601129167
-60.987258716716255
-35.010299839780274
-32.86182955672541
-28.66254673075456
-11.181811245899137
-8.935683222705425
-14.209201190203707
-4.541084916456855
0.537117570763714
-6.787212939650568
-3.9551384756237127
3.466849774929427
-1.6113527122911422
-3.9551384756237127
2.9785610742351416
1.513694972152285
-3.5645075150682843
1.0254062714579995
3.2715342946517127
-2.0019836728465705
-0.6347753109025711
3.5645075150682843
0.04882887006942855
-1.7090104524299992
2.392614633401999
1.3183794918745708
-1.8066681925688564
1.0254062714579995
2.392614633401999
-0.8300907911802854
-0.14648661020828566
2.2949568932631417
0.04882887006942855
-0.8300907911802854
11.279468986037996
39.40489814602884
55.51842526894026
45.947966735332265
63.03807125963226
107.76531624322881
106.39810788128482
92.23773556115053
131.78912031738764
159.32860303654536
146.4377813382162
159.81689173723964
180.32501716639965
162.35599298084992
158.25436789501794
186.67277027542534
185.01258869306477
155.91058213168535
147.51201647974364
154.4457160296025
145.94949263752193
111.86694132906081
85.10872053101396
87.06187533379111
73.68276493476768
36.182192721446555
26.318760967421987
31.885252155336843
13.916227969787137
3.662165255207141
14.892805371175708
9.521629663538567
-3.5645075150682843
4.541084916456855
8.252079041733426
-3.662165255207141
-1.7090104524299992
6.787212939650568
-0.8300907911802854
-4.736400396734569
3.9551384756237127
1.9043259327077133
-5.127031357289998
0.6347753109025711
3.5645075150682843
-3.466849774929427
-1.9043259327077133
3.466849774929427
-1.1230640115968566
-3.466849774929427
2.0996414129854277
0.9277485313191425
-3.36919203479057
0.24414435034714274
2.0019836728465705
-2.392614633401999
-1.416037232013428
2.0019836728465705
-0.8300907911802854
-2.197299153124285
1.1230640115968566
0.34180209048599985
-2.2949568932631417
0.04882887006942855
1.0254062714579995
-1.513694972152285
-0.9277485313191425
1.1230640115968566
-0.6347753109025711
-1.513694972152285
0.537117570763714
0.04882887006942855
-2.392614633401999
-2.783245593957427
-2.9785610742351416
-35.49858854047456
-131.98443579766536
-218.50919356069275
-223.78271152819104
-216.65369649805447
-223.09910734721905
-170.75455863279163
-95.55809872587167
-93.11665522240024
-155.91058213168535
-229.05622949568934
-271.34203097581445
-264.4083314259556
-224.66163118944075
-162.74662394140535
-99.56206607156481
-70.94834821087969
-60.01068131532769
-37.4517433432517
-23.779659723811704
-25.63515678644999
-16.943617914091707
-5.420004577706569
-9.228656443121995
-9.42397192339971
0.04882887006942855
-1.0254062714579995
-5.908293278400855
0.04882887006942855
2.490272373540856
-3.076218814373999
-1.0254062714579995
3.466849774929427
-0.7324330510414282
-2.197299153124285
2.783245593957427
1.416037232013428
-2.0019836728465705
1.3183794918745708
2.490272373540856
-1.2207217517357138
-0.04882887006942855
2.5879301136797133
0.04882887006942855
-0.9277485313191425
15.283436331731137
53.07698176546884
72.90150301365682
53.27229724574655
55.713740749217976
90.77286945906768
83.25322346837568
58.8387884336614
79.3469138628214
85.6946669718471
59.522392614633404
71.53429465171283
99.75738155184253
87.15953307392996
76.31952391851682
90.87052719920653
81.20241092545967
63.72167544060426
82.27664606698711
98.19485770962082
92.33539330128939
101.90585183489738
113.82009613183794
100.83161669336995
94.97215228503853
110.20675974670024
110.89036392767224
97.3159380483711
95.9487296864271
103.76134889753567
102.68711375600824
85.30403601129167
75.44060425726711
85.40169375143053
72.90150301365682
37.94003204394598
37.256427862973986
47.51049057755398
20.752269779507134
0.9277485313191425
7.470817120622568
-0.34180209048599985
-16.064698252841993
-14.599832150759136
-8.252079041733426
-14.50217441062028
-23.779659723811704
-21.045242999923705
-10.205233844510566
9.912260624093996
29.2484931715877
21.92416266117342
10.888838025482567
23.389028763256274
24.267948424505988
4.150453955901427
3.9551384756237127
13.13496604867628
1.7090104524299992
-3.7598229953459983
7.080186160067139
3.7598229953459983
-5.615320057984283
1.8066681925688564
5.127031357289998
-4.150453955901427
-2.0996414129854277
4.931715877012284
-1.3183794918745708
-4.150453955901427
2.9785610742351416
1.2207217517357138
-4.345769436179141
0.537117570763714
2.68558785381857
-2.9785610742351416
-1.513694972152285
2.783245593957427
-1.0254062714579995
-11.865415426871138
-26.22110322728313
-39.40489814602884
-79.93286030365454
-160.20752269779507
-205.81368734264134
-202.10269321736476
-224.5639734493019
-254.44724193179218
-243.60723277637902
-242.5329976348516
-267.3380636301213
-266.4591439688716
-226.22415503166246
-167.82482642862593
-125.44136720836194
-104.8355840390631
-72.60852979324025
-41.358052948805984
-37.84237430380713
-31.9829098954757
-13.13496604867628
-11.279468986037996
-16.16235599298085
-5.0293736171511405
0.04882887006942855
-7.861448081177996
-4.150453955901427
3.5645075150682843
-2.197299153124285
-4.248111696040284
3.2715342946517127
1.2207217517357138
-3.9551384756237127
1.2207217517357138
3.2715342946517127
-2.2949568932631417
-0.537117570763714
3.5645075150682843
-0.34180209048599985
-1.8066681925688564
2.5879301136797133
1.3183794918745708
-1.9043259327077133
1.3183794918745708
2.490272373540856
-1.1230640115968566
-0.04882887006942855
2.490272373540856
0.04882887006942855
-0.7324330510414282
10.888838025482567
35.98687724116884
49.46364538033112
40.86976424811169
57.471580071717405
97.70656900892652
93.11665522240024
81.10475318532082
124.8554207675288
155.22697795071335
152.98084992751964
202.39566643778133
280.52185854886704
298.68619821469446
260.013733119707
181.39925230792707
60.01068131532769
-22.803082322423133
-0.9277485313191425
54.54184786755169
81.5930418860151
103.66369115739681
120.94911116197451
109.8161287861448
81.69069962615396
60.8896009765774
63.03807125963226
67.33501182574197
44.09246967269398
31.885252155336843
43.79949645227741
27.783627069504846
3.7598229953459983
14.306858930342566
17.334248874647134
-2.2949568932631417
0.6347753109025711
12.45136186770428
-0.24414435034714274
-5.810635538261997
7.373159380483711
3.2715342946517127
-7.177843900205997
1.9043259327077133
5.615320057984283
-5.127031357289998
-2.2949568932631417
5.615320057984283
-1.8066681925688564
-4.736400396734569
3.662165255207141
1.3183794918745708
-4.931715877012284
0.8300907911802854
3.076218814373999
-3.5645075150682843
-1.7090104524299992
3.2715342946517127
-1.3183794918745708
-3.076218814373999
2.0996414129854277
0.537117570763714
-3.2715342946517127
0.34180209048599985
1.7090104524299992
-2.2949568932631417
-1.1230640115968566
1.9043259327077133
-0.9277485313191425
-2.0996414129854277
1.1230640115968566
0.14648661020828566
-2.197299153124285
0.04882887006942855
0.9277485313191425
-1.513694972152285
-0.8300907911802854
0.9277485313191425
-12.45136186770428
-61.28023193713283
-117.43343251697566
-125.24605172808423
-126.61326009002823
-181.49691004806593
-228.95857175555048
-242.63065537499045
-286.4789806973373
-336.577401388571
-324.37018387121384
-263.33409628442814
-200.4425116350042
-160.20752269779507
-127.49217975127794
-83.25322346837568
-54.346532387273975
-48.48706797894255
-33.93606469825284
-16.84596017395285
-18.017853055619135
-16.650644693675137
-4.541084916456855
-4.150453955901427
-9.033340962844282
-1.8066681925688564
1.6113527122911422
-4.443427176317998
-2.2949568932631417
3.1738765545128556
-1.0254062714579995
-2.8809033340962844
2.490272373540856
1.2207217517357138
-2.5879301136797133
1.2207217517357138
2.783245593957427
-1.513694972152285
-0.34180209048599985
2.8809033340962844
0.04882887006942855
-1.1230640115968566
2.0996414129854277
1.2207217517357138
-1.2207217517357138
0.9277485313191425
2.0019836728465705
-0.537117570763714
0.04882887006942855
12.158388647287708
31.68993667505913
30.71335927367056
24.17029068436713
60.401312275883114
97.70656900892652
85.20637827115281
86.37827115281911
122.41397726405738
121.14442664225223
102.39414053559167
120.36316472114137
122.90226596475166
95.75341420614939
100.34332799267567
117.82406347753108
102.39414053559167
93.50728618295567
111.18333714808881
112.45288776989395
109.1325246051728
131.98443579766536
143.5080491340505
127.29686427100023
118.5076676585031
115.38261997405966
96.6323338673991
72.90150301365682
50.53788052185855
27.392996108949415
13.916227969787137
14.404516670481422
30.029755092698558
43.99481193255512
33.545433737697415
20.84992751964599
25.342183566033416
22.705424582284277
8.44739452201114
13.623254749370565
26.807049668116274
16.064698252841993
8.349736781872283
13.525597009231708
1.416037232013428
-12.646677347981994
-7.861448081177996
-2.9785610742351416
-10.986495765621424
-14.50217441062028
-4.736400396734569
3.5645075150682843
18.11551079575799
35.010299839780274
21.63118944075685
1.9043259327077133
9.912260624093996
11.865415426871138
-2.8809033340962844
0.24414435034714274
9.228656443121995
-0.8300907911802854
-4.541084916456855
5.615320057984283
2.0996414129854277
-5.71297779812314
1.6113527122911422
4.052796215762569
-4.248111696040284
-1.6113527122911422
4.248111696040284
-1.6113527122911422
-3.5645075150682843
2.8809033340962844
-5.224689097428855
-54.54184786755169
-140.28534370946824
-196.92683299000535
-210.69657434958418
-251.12687876707102
-300.73701075761045
-309.4285496299687
-310.3074692912184
-311.1863889524681
-283.0609597924773
-220.75532158388648
-142.04318303196766
-92.62836652170596
-77.19844357976653
-54.15121690699626
-31.201647974364842
-30.22507057297627
-25.342183566033416
-9.42397192339971
-8.642710002288853
-12.939650568398566
-3.466849774929427
0.34180209048599985
-6.494239719233997
-3.076218814373999
3.1738765545128556
-2.0019836728465705
-3.36919203479057
3.076218814373999
1.1230640115968566
-3.1738765545128556
1.416037232013428
2.8809033340962844
-2.0996414129854277
-0.34180209048599985
3.2715342946517127
-0.24414435034714274
-1.3183794918745708
2.490272373540856
1.1230640115968566
-1.6113527122911422
1.1230640115968566
2.0019836728465705
-0.8300907911802854
0.14648661020828566
16.260013733119706
43.21355001144427
43.11589227130541
35.69390402075227
88.03845273517967
149.17219806210423
148.87922484168766
152.10193026626993
188.03997863736936
187.35637445639733
171.82879377431905
197.7080949111162
212.45441367208363
194.2900740062562
197.7080949111162
207.18089570458534
178.7624933241779
135.7930876630808
101.22224765392538
76.31952391851682
61.86617837796597
49.46364538033112
46.04562447547112
44.19012741283284
24.4632639047837
7.861448081177996
9.228656443121995
9.326314183260854
4.931715877012284
15.088120851453422
25.732814526588847
13.623254749370565
9.228656443121995
21.63118944075685
12.45136186770428
-2.5879301136797133
6.6895551995117115
9.521629663538567
-3.9551384756237127
-0.8300907911802854
7.959105821316854
-1.3183794918745708
-4.834058136873426
4.931715877012284
1.7090104524299992
-5.517662317845426
1.3183794918745708
3.7598229953459983
-4.052796215762569
-1.7090104524299992
3.9551384756237127
-1.6113527122911422
-3.5645075150682843
2.5879301136797133
0.7324330510414282
-3.7598229953459983
0.537117570763714
2.0996414129854277
-2.783245593957427
-1.2207217517357138
2.2949568932631417
-1.1230640115968566
-2.2949568932631417
1.416037232013428
0.24414435034714274
-2.490272373540856
0.14648661020828566
1.1230640115968566
-1.8066681925688564
-0.8300907911802854
1.2207217517357138
-0.8300907911802854
-1.6113527122911422
0.7324330510414282
0.04882887006942855
-1.6113527122911422
0.04882887006942855
0.537117570763714
-1.2207217517357138
-0.6347753109025711
0.537117570763714
-11.865415426871138
-65.38185702296482
-147.31670099946592
-200.4425116350042
-242.82597085526817
-314.60440985732816
-355.52300297550926
-336.3820859082933
-306.6941329060807
-279.838254367895
-238.4313725490196
-177.29762722209506
-114.99198901350424
-81.00709544518196
-64.60059510185397
-42.72526131074998
-28.27191577019913
-26.61173418783856
-18.40848401617456
-8.154421301594567
-9.42397192339971
-9.130998702983138
-1.8066681925688564
-1.7090104524299992
-4.931715877012284
-0.34180209048599985
1.6113527122911422
-2.392614633401999
-1.1230640115968566
2.392614633401999
-0.34180209048599985
-1.513694972152285
2.0019836728465705
1.3183794918745708
-1.3183794918745708
0.9277485313191425
1.9043259327077133
-0.7324330510414282
-0.04882887006942855
2.0019836728465705
0.14648661020828566
-0.43945983062485694
14.697489890897993
50.04959182116426
66.06546120393683
31.201647974364842
-8.545052262149996
-8.154421301594567
3.7598229953459983
24.853894865339132
80.2258335240711
110.69504844739453
95.85107194628824
105.51918822003509
119.67956054016938
91.35881589990082
78.95628290226597
100.63630121309224
93.31197070267795
77.4914168001831
100.0503547722591
113.82009613183794
102.39414053559167
113.9177538719768
134.32822156099795
132.8633554589151
141.84786755168994
167.82482642862593
172.51239795529108
151.41832608529793
124.8554207675288
119.67956054016938
124.26947432669566
87.7454795147631
42.33463035019455
41.358052948805984
38.33066300450141
11.47478446631571
10.400549324788281
21.43587396047913
5.517662317845426
-2.783245593957427
10.888838025482567
6.298924238956283
-6.494239719233997
2.9785610742351416
7.373159380483711
-5.0293736171511405
-2.490272373540856
6.6895551995117115
-1.3183794918745708
-5.322346837567712
4.052796215762569
1.8066681925688564
-5.517662317845426
0.7324330510414282
3.7598229953459983
-3.662165255207141
-2.0019836728465705
3.662165255207141
-1.2207217517357138
-3.5645075150682843
2.2949568932631417
0.9277485313191425
-3.5645075150682843
0.24414435034714274
2.0996414129854277
-2.490272373540856
-1.416037232013428
2.0996414129854277
-0.8300907911802854
-2.2949568932631417
1.3183794918745708
0.43945983062485694
-2.392614633401999
0.04882887006942855
1.1230640115968566
-1.7090104524299992
-0.9277485313191425
1.2207217517357138
-26.416418707560844
-124.07415884641794
-244.48615243762876
-291.9478141451133
-295.65880827038984
-323.588921950103
-329.057755397879
-284.0375371938659
-242.24002441443503
-216.65369649805447
-179.73907072556648
-131.98443579766536
-94.87449454489968
-81.69069962615396
-71.1436636911574
-43.99481193255512
-26.709391927977418
-27.49065384908827
-18.310826276035705
-6.298924238956283
-10.009918364232853
-10.205233844510566
-0.43945983062485694
-1.3183794918745708
-6.298924238956283
-0.14648661020828566
2.490272373540856
-3.36919203479057
-1.3183794918745708
3.466849774929427
-0.7324330510414282
-2.197299153124285
2.783245593957427
1.416037232013428
