ecg
3.9551384756237127
0.14648661020828566
-3.7598229953459983
2.490272373540856
2.68558785381857
-3.076218814373999
0.24414435034714274
3.662165255207141
-1.1230640115968566
-1.2207217517357138
3.2715342946517127
0.7324330510414282
-1.8066681925688564
1.9043259327077133
1.9043259327077133
-1.513694972152285
0.43945983062485694
2.490272373540856
-0.43945983062485694
-0.43945983062485694
2.2949568932631417
0.6347753109025711
-0.9277485313191425
27.1976806286717
112.06225680933852
177.39528496223392
125.92965590905622
44.09246967269398
42.43228809033341
64.60059510185397
83.35088120851454
142.92210269321737
188.23529411764707
172.31708247501336
159.52391851682307
166.26230258640422
142.43381399252308
116.74982833600366
125.63668268863965
121.73037308308537
101.80819409475852
112.74586099031052
130.71488517586022
118.80064087891967
96.92530708781567
83.83916990920882
79.54222934309911
72.21789883268482
53.467612726024264
54.44419012741283
65.18654154268711
37.35408560311284
10.986495765621424
23.096055542839704
20.16632333867399
-1.7090104524299992
5.322346837567712
14.892805371175708
-1.8066681925688564
-4.052796215762569
9.912260624093996
1.8066681925688564
-7.470817120622568
4.345769436179141
5.127031357289998
-6.591897459372854
-0.6347753109025711
6.201266498817426
-3.36919203479057
-4.248111696040284
4.834058136873426
0.14648661020828566
-5.322346837567712
2.0996414129854277
2.68558785381857
-4.443427176317998
-0.7324330510414282
3.466849774929427
-2.392614633401999
-2.783245593957427
2.783245593957427
-0.04882887006942855
-3.5645075150682843
1.1230640115968566
1.513694972152285
-2.8809033340962844
-0.537117570763714
2.0019836728465705
-1.6113527122911422
-1.9043259327077133
1.6113527122911422
-0.14648661020828566
-2.2949568932631417
0.537117570763714
0.7324330510414282
-28.174258030060273
-105.12855725947966
-169.58266575112535
-183.3524071107042
-222.12252994583048
-286.18600747692074
-297.2213321126116
-285.01411459525445
-299.9557488364996
-309.4285496299687
-270.951400015259
-189.70016021972992
-120.0701915007248
-91.26115815976196
-68.70222018768597
-41.45571068894484
-33.64309147783627
-31.103990234225986
-15.771725032425422
-9.228656443121995
-13.720912489509422
-7.373159380483711
-0.04882887006942855
-5.224689097428855
-5.322346837567712
2.0019836728465705
-0.24414435034714274
-4.150453955901427
1.2207217517357138
2.2949568932631417
-2.5879301136797133
-0.24414435034714274
3.076218814373999
-0.8300907911802854
-1.416037232013428
2.68558785381857
0.9277485313191425
-1.6113527122911422
1.513694972152285
2.0019836728465705
-1.2207217517357138
0.14648661020828566
20.752269779507134
56.7879758907454
58.25284199282826
43.11589227130541
84.91340505073624
130.42191195544365
117.92172121766994
115.0896467536431
138.7228198672465
125.63668268863965
106.98405432211796
125.83199816891737
122.21866178377967
88.72205691615167
83.74151216906996
83.05790798809797
53.36995498588541
39.69787136644541
51.22148470283055
43.99481193255512
34.22903791866941
50.34256504158083
56.006713969634546
46.14328221560998
57.37392233157855
74.07339589532312
72.99916075379568
75.14763103685054
84.91340505073624
81.69069962615396
72.60852979324025
73.09681849393453
81.00709544518196
83.54619668879225
70.06942854962998
65.08888380254825
76.31952391851682
60.49897001602197
30.615701533531702
39.893186846723125
49.56130312046998
18.40848401617456
5.908293278400855
22.705424582284277
10.986495765621424
-6.005951018539712
8.74036774242771
11.279468986037996
-6.787212939650568
-0.7324330510414282
10.302891584649425
-2.9785610742351416
-6.201266498817426
7.080186160067139
1.7090104524299992
-7.470817120622568
2.5879301136797133
4.834058136873426
-5.810635538261997
-1.7090104524299992
5.517662317845426
-2.490272373540856
-4.345769436179141
3.9551384756237127
0.6347753109025711
-5.0293736171511405
1.3183794918745708
2.783245593957427
-3.7598229953459983
-1.1230640115968566
3.1738765545128556
-3.7598229953459983
-21.338216220340275
-41.74868390936141
-55.420767528801406
-97.12062256809338
-179.73907072556648
-224.17334248874647
-221.1459525444419
-243.2166018158236
-262.5528343633173
-236.47821774624248
-225.83352407110704
-241.26344701304646
-227.88433661402303
-188.33295185778593
-148.00030518043792
-124.26947432669566
-109.52315556572823
-72.60852979324025
-39.5025558861677
-38.818951705195694
-31.787594415197987
-11.279468986037996
-12.060730907148852
-17.236591134508277
-3.7598229953459983
0.04882887006942855
-9.130998702983138
-3.36919203479057
4.345769436179141
-3.36919203479057
-4.443427176317998
4.345769436179141
0.8300907911802854
-4.541084916456855
2.0996414129854277
3.36919203479057
-3.076218814373999
-0.14648661020828566
4.150453955901427
-1.0254062714579995
-1.9043259327077133
3.1738765545128556
1.0254062714579995
-2.2949568932631417
1.7090104524299992
2.490272373540856
-1.6113527122911422
0.04882887006942855
2.8809033340962844
-0.24414435034714274
-0.7324330510414282
24.853894865339132
88.91737239642939
131.39848935683221
115.18730449378195
123.09758144502938
173.97726405737393
182.08285648889907
171.14518959334706
197.61043717097735
202.0050354772259
173.5866330968185
179.15312428473334
191.5556572823682
162.6489662012665
135.3047989623865
125.34370946822308
92.23773556115053
54.15121690699626
45.75265125505455
48.78004119935912
45.362020294499125
44.67841611352712
58.25284199282826
72.80384527351796
58.936446173800256
34.0337224383917
40.479133287556266
47.90112153810941
20.654612039368278
7.373159380483711
20.752269779507134
11.47478446631571
-3.9551384756237127
7.568474860761425
10.400549324788281
-5.0293736171511405
-0.9277485313191425
8.838025482566568
-1.8066681925688564
-5.420004577706569
5.810635538261997
1.9043259327077133
-6.39658197909514
1.7090104524299992
4.248111696040284
-4.736400396734569
-1.8066681925688564
4.541084916456855
-1.9043259327077133
-3.9551384756237127
3.1738765545128556
0.7324330510414282
-4.248111696040284
0.8300907911802854
2.392614633401999
-3.1738765545128556
-1.2207217517357138
2.68558785381857
-1.3183794918745708
-2.5879301136797133
1.8066681925688564
0.24414435034714274
-2.783245593957427
0.34180209048599985
1.3183794918745708
-2.0996414129854277
-0.9277485313191425
1.513694972152285
-17.82253757534142
-84.03448538948653
-161.4770733196002
-183.93835355153735
-188.6259250782025
-229.64217593652248
-246.34164950026704
-223.8803692683299
-236.08758678568705
-256.98634317540245
-229.8374914168002
-195.8525978484779
-186.18448157473105
-179.34843976501105
-148.5862516212711
-93.11665522240024
-58.54581521324483
-52.97932402532997
-35.889219501029984
-17.236591134508277
-20.45929655909056
-18.40848401617456
-3.8574807354848555
-4.834058136873426
-10.595864805065995
-1.2207217517357138
2.0019836728465705
-5.71297779812314
-2.2949568932631417
4.052796215762569
-1.8066681925688564
-3.2715342946517127
3.5645075150682843
1.3183794918745708
-3.2715342946517127
1.6113527122911422
2.9785610742351416
-2.197299153124285
-0.34180209048599985
3.36919203479057
-0.43945983062485694
-1.416037232013428
2.783245593957427
1.416037232013428
-1.513694972152285
1.3183794918745708
2.197299153124285
-0.9277485313191425
0.04882887006942855
22.412451361867703
75.73357747768368
122.21866178377967
151.90661478599222
191.45799954222935
172.9030289158465
54.83482108796826
-40.186160067139696
-43.311207751583126
-26.807049668116274
-1.416037232013428
55.127794308384836
74.75700007629511
46.14328221560998
46.63157091630426
69.28816662851911
65.96780346379796
65.08888380254825
81.98367284657053
76.71015487907225
65.57717250324254
84.22980086976425
97.70656900892652
93.70260166323338
107.96063172350652
127.88281071183337
124.75776302738994
120.85145342183566
128.56641489280537
122.90226596475166
100.92927443350881
81.39772640573739
75.9288929579614
75.73357747768368
62.745098039215684
54.24887464713512
64.01464866102083
55.32310978866255
26.025787747005417
25.92813000686656
38.525978484779124
20.16632333867399
8.05676356145571
17.13893339436942
5.322346837567712
-12.060730907148852
-5.322346837567712
0.34180209048599985
-2.392614633401999
14.209201190203707
28.076600289921416
8.642710002288853
-4.736400396734569
3.36919203479057
-1.6113527122911422
-7.470817120622568
8.349736781872283
13.232623788815136
-2.0019836728465705
-0.8300907911802854
8.44739452201114
-0.6347753109025711
-5.127031357289998
4.931715877012284
2.490272373540856
-5.615320057984283
1.0254062714579995
4.248111696040284
-3.9551384756237127
-2.197299153124285
4.150453955901427
-5.615320057984283
-36.86579690241855
-78.76096742198825
-108.2536049439231
-151.12535286488136
-233.35317006179903
-288.5297932402533
-298.49088273441674
-328.1788357366293
-354.15579461356526
-314.1161211566339
-232.18127718013275
-163.62554360265506
-132.3750667582208
-111.76928358892195
-72.31555657282368
-45.16670481422141
-43.50652323186084
-30.518043793392845
-12.549019607843137
-15.576409552147707
-16.064698252841993
-2.68558785381857
-2.5879301136797133
-9.130998702983138
-1.3183794918745708
2.8809033340962844
-4.638742656595713
-2.5879301136797133
4.052796215762569
-1.0254062714579995
-3.5645075150682843
2.9785610742351416
1.7090104524299992
-3.1738765545128556
1.1230640115968566
3.2715342946517127
-1.7090104524299992
-0.6347753109025711
3.2715342946517127
0.04882887006942855
-1.6113527122911422
2.392614633401999
1.6113527122911422
-1.6113527122911422
0.8300907911802854
10.693522545204852
25.439841306172273
32.471198596169984
57.37392233157855
123.09758144502938
157.27779049362937
144.97291523613336
167.6295109483482
198.00106813153278
173.68429083695736
154.34805828946364
169.38735027084763
155.8129243915465
132.66803997863738
149.36751354238194
152.3949034866865
121.24208438239108
111.76928358892195
112.84351873044938
86.8665598535134
63.72167544060426
62.2568093385214
60.79194323643854
55.127794308384836
53.95590142671855
69.38582436865796
82.0813305867094
54.932478828107115
26.123445487144274
36.96345464255741
37.64705882352941
10.302891584649425
8.349736781872283
20.068665598535134
4.736400396734569
-3.8574807354848555
10.205233844510566
6.103608758678568
-6.884870679789426
2.5879301136797133
7.470817120622568
-5.0293736171511405
-2.783245593957427
6.6895551995117115
-1.2207217517357138
-5.517662317845426
4.052796215762569
2.0019836728465705
-5.615320057984283
0.537117570763714
3.8574807354848555
-3.662165255207141
-2.0996414129854277
3.7598229953459983
-1.1230640115968566
-3.662165255207141
2.197299153124285
1.0254062714579995
-3.5645075150682843
0.24414435034714274
2.197299153124285
-2.490272373540856
-1.513694972152285
2.0996414129854277
-0.8300907911802854
-2.392614633401999
1.2207217517357138
0.43945983062485694
-2.392614633401999
0.04882887006942855
1.2207217517357138
-1.6113527122911422
-1.0254062714579995
1.2207217517357138
-0.7324330510414282
-1.6113527122911422
0.537117570763714
0.14648661020828566
-12.74433508812085
-38.03768978408484
-46.533913176165406
-54.54184786755169
-124.56244754711223
-205.32539864194706
-219.68108644235903
-229.93514915693905
-267.53337911039904
-265.28725108720533
-237.84542610818647
-246.92759594110018
-272.22095063706416
-256.8886854352636
-187.84466315709162
-116.16388189517052
-86.08529793240254
-67.7256427862974
-39.79552910658427
-29.736781872281988
-30.518043793392845
-16.45532921339742
-6.982528419928283
-12.84199282825971
-8.838025482566568
0.537117570763714
-3.8574807354848555
-6.39658197909514
1.6113527122911422
1.0254062714579995
-4.443427176317998
0.43945983062485694
3.466849774929427
-2.197299153124285
-1.3183794918745708
3.5645075150682843
0.04882887006942855
-2.197299153124285
2.2949568932631417
1.7090104524299992
-1.8066681925688564
0.9277485313191425
2.5879301136797133
-1.0254062714579995
-0.43945983062485694
14.50217441062028
37.256427862973986
35.596246280613414
27.392996108949415
71.33897917143511
125.24605172808423
122.6092927443351
120.55848020141909
151.32066834515908
144.97291523613336
118.99595635919738
135.40245670252537
141.45723659113452
107.5700007629511
91.26115815976196
82.7649347676814
39.79552910658427
6.6895551995117115
12.353704127565424
8.545052262149996
-2.0019836728465705
16.064698252841993
30.029755092698558
24.4632639047837
38.62363622491798
66.26077668421455
79.3469138628214
101.22224765392538
153.7621118486305
209.23170824750133
214.50522621499962
143.5080491340505
42.92057679102769
-18.21316853589685
-14.404516670481422
28.760204470893417
62.061493858243686
59.42473487449455
41.74868390936141
51.51445792324712
63.13572899977112
31.885252155336843
10.986495765621424
26.807049668116274
18.40848401617456
-3.5645075150682843
8.154421301594567
14.795147631036851
-4.443427176317998
-2.5879301136797133
11.377126726176853
-0.34180209048599985
-7.373159380483711
6.39658197909514
3.8574807354848555
-7.763790341039139
0.9277485313191425
6.201266498817426
-5.0293736171511405
-3.1738765545128556
5.810635538261997
-1.2207217517357138
-5.420004577706569
3.36919203479057
1.9043259327077133
-5.224689097428855
0.24414435034714274
3.466849774929427
-3.36919203479057
-2.197299153124285
3.36919203479057
-20.55695429922942
-102.7847714961471
-204.93476768139163
-246.92759594110018
-250.0526436255436
-281.40077821011675
-300.93232623788816
-277.103837644007
-262.5528343633173
-258.2558937972076
-223.78271152819104
-166.5552758068208
-118.41000991836424
-99.46440833142596
-87.55016403448539
-55.03013656824598
-32.37354085603113
-33.74074921797513
-23.682001983672848
-7.763790341039139
-11.767757686732281
-13.427939269092851
-1.0254062714579995
-1.0254062714579995
-8.05676356145571
-0.8300907911802854
3.36919203479057
-4.052796215762569
-2.392614633401999
4.150453955901427
-0.7324330510414282
-3.36919203479057
2.9785610742351416
2.0996414129854277
-2.783245593957427
1.2207217517357138
3.36919203479057
-1.513694972152285
-0.7324330510414282
3.1738765545128556
0.04882887006942855
-1.6113527122911422
2.2949568932631417
1.6113527122911422
-1.416037232013428
0.9277485313191425
2.2949568932631417
-0.7324330510414282
-0.24414435034714274
15.771725032425422
42.236972610055695
40.86976424811169
14.795147631036851
17.52956435492485
40.67444876783398
49.26832990005341
87.45250629434653
160.1098649576562
174.85618371862364
145.46120393682764
151.22301060502022
150.1487754634928
115.48027771419852
112.84351873044938
130.81254291599907
113.42946517128252
98.87846189059282
116.74982833600366
114.4060425726711
96.24170290684367
108.64423590447852
120.55848020141909
107.37468528267338
103.37071793698024
110.79270618753338
105.12855725947966
84.3274586099031
65.28419928282597
74.46402685587854
82.0813305867094
44.97138933394369
17.920195315480278
30.518043793392845
22.021820401312276
-0.6347753109025711
9.521629663538567
16.260013733119706
-2.8809033340962844
-2.0996414129854277
11.572442206454566
0.34180209048599985
-7.177843900205997
6.201266498817426
4.248111696040284
-7.373159380483711
0.7324330510414282
6.201266498817426
-4.638742656595713
-3.36919203479057
5.615320057984283
-0.9277485313191425
-10.79118028534371
-13.623254749370565
-14.599832150759136
-6.591897459372854
10.302891584649425
14.697489890897993
-3.9551384756237127
-26.61173418783856
-31.00633249408713
-15.381094071869994
9.619287403677424
26.709391927977418
20.752269779507134
6.787212939650568
6.6895551995117115
7.861448081177996
0.6347753109025711
0.43945983062485694
5.0293736171511405
0.8300907911802854
-2.197299153124285
2.2949568932631417
1.6113527122911422
-2.5879301136797133
0.04882887006942855
2.0996414129854277
-1.7090104524299992
-1.416037232013428
1.7090104524299992
-14.306858930342566
-80.12817578393225
-173.97726405737393
-214.50522621499962
-208.05981536583505
-221.92721446555277
-221.1459525444419
-199.17296101319906
-240.67750057221332
-320.6591897459373
-337.16334782940413
-268.5099565117876
-170.65690089265277
-112.74586099031052
-90.08926527809568
-60.30365453574426
-38.33066300450141
-37.4517433432517
-27.588311589227132
-11.181811245899137
-12.549019607843137
-14.11154345006485
-2.783245593957427
-1.513694972152285
-7.763790341039139
-1.8066681925688564
2.8809033340962844
-3.36919203479057
-2.68558785381857
3.466849774929427
-0.24414435034714274
-3.1738765545128556
2.2949568932631417
2.0996414129854277
-2.392614633401999
0.6347753109025711
3.076218814373999
-1.1230640115968566
-0.8300907911802854
16.357671473258563
44.09246967269398
45.654993514915695
34.61966887922484
75.9288929579614
130.91020065613793
120.16784924086366
96.33936064698253
106.69108110170139
88.62439917601282
52.881666285191116
63.819333180743115
74.65934233615626
49.46364538033112
43.99481193255512
56.7879758907454
42.13931486991684
30.127412832837415
43.604180971999696
37.94003204394598
23.389028763256274
43.70183871213855
64.69825284199283
59.815365835049974
65.8701457236591
84.81574731059739
84.3274586099031
76.8078126192111
81.00709544518196
77.88204776073853
75.9288929579614
98.87846189059282
122.21866178377967
122.99992370489052
114.4060425726711
106.69108110170139
99.95269703212024
83.93682764934768
57.08094911116198
55.03013656824598
65.18654154268711
39.600213626306555
12.45136186770428
9.619287403677424
-1.2207217517357138
-22.119478141451133
-38.33066300450141
-42.13931486991684
-35.889219501029984
-34.717326619363696
-34.32669565880827
-23.096055542839704
-5.127031357289998
11.670099946593423
23.19371328297856
42.92057679102769
77.58907454032196
76.12420843823911
28.95551995117113
9.521629663538567
19.18974593728542
6.6895551995117115
1.416037232013428
21.728847180895706
17.13893339436942
-3.5645075150682843
4.834058136873426
12.353704127565424
-3.7598229953459983
-3.466849774929427
9.42397192339971
0.24414435034714274
-6.982528419928283
4.736400396734569
3.8574807354848555
-16.748302433813993
-39.40489814602884
-58.936446173800256
-95.2651255054551
-175.53978789959564
-248.09948882276646
-250.9315632867933
-239.99389639124132
-256.6933699549859
-249.95498588540474
-218.6068513008316
-210.4036011291676
-213.52864881361106
-188.8212405584802
-140.18768596932938
-107.17936980239567
-105.42153047989623
-91.35881589990082
-50.24490730144198
-33.05714503700313
-37.06111238269627
-19.971007858396277
-6.005951018539712
-15.576409552147707
-12.353704127565424
2.0019836728465705
-3.7598229953459983
-9.228656443121995
2.197299153124285
2.5879301136797133
-6.39658197909514
-0.14648661020828566
5.127031357289998
-3.076218814373999
-2.68558785381857
4.834058136873426
0.24414435034714274
-3.7598229953459983
2.8809033340962844
2.8809033340962844
-2.9785610742351416
0.537117570763714
3.8574807354848555
-1.3183794918745708
-1.2207217517357138
12.256046387426567
29.9320973525597
31.592278934920273
33.74074921797513
81.00709544518196
130.42191195544365
116.84748607614252
105.61684596017395
141.55489433127337
142.53147173266194
106.78873884184024
103.95666437781338
99.65972381170367
66.26077668421455
62.15915159838254
80.12817578393225
67.0420386053254
57.471580071717405
83.4485389486534
91.74944686045625
77.39375906004425
90.57755397878996
120.46082246128023
143.9963378347448
164.79743648432137
173.09834439612422
158.05905241474022
115.18730449378195
50.34256504158083
-4.345769436179141
-18.506141756313422
6.6895551995117115
55.90905622949569
90.2845807583734
67.53032730601969
29.053177691309987
33.545433737697415
37.549401083390556
11.08415350576028
7.861448081177996
22.705424582284277
7.666132600900283
-4.736400396734569
10.205233844510566
8.349736781872283
-7.177843900205997
1.416037232013428
8.935683222705425
-4.541084916456855
-4.150453955901427
7.275501640344854
-0.14648661020828566
-6.494239719233997
3.662165255207141
3.1738765545128556
-6.005951018539712
-0.14648661020828566
4.736400396734569
-3.466849774929427
-3.076218814373999
4.052796215762569
-0.43945983062485694
-4.345769436179141
2.0996414129854277
1.8066681925688564
-3.8574807354848555
-0.24414435034714274
2.68558785381857
-2.2949568932631417
-2.0019836728465705
2.392614633401999
-0.34180209048599985
-2.783245593957427
1.0254062714579995
0.8300907911802854
-2.5879301136797133
-0.24414435034714274
1.513694972152285
-16.357671473258563
-66.94438086518655
-109.1325246051728
-102.88242923628596
-112.06225680933852
-167.14122224765393
-183.3524071107042
-162.45365072098878
-180.2273594262608
-194.38773174639505
-161.08644235904478
-148.48859388113223
-165.57869840543222
-159.42626077668422
-152.78553444724193
-168.89906157015335
-180.61799038681622
-167.33653772793164
-125.5390249485008
-91.35881589990082
-84.03448538948653
-61.28023193713283
-29.2484931715877
-28.076600289921416
-28.760204470893417
-9.130998702983138
-5.71297779812314
-15.088120851453422
-4.931715877012284
3.1738765545128556
-6.787212939650568
-5.420004577706569
4.931715877012284
-0.8300907911802854
-5.71297779812314
3.2715342946517127
3.076218814373999
-4.443427176317998
0.43945983062485694
4.638742656595713
-2.197299153124285
-1.8066681925688564
4.150453955901427
0.34180209048599985
-2.783245593957427
2.490272373540856
2.197299153124285
-2.490272373540856
0.6347753109025711
16.943617914091707
41.26039520866713
41.16273746852827
32.27588311589227
66.26077668421455
90.96818493934539
67.92095826657511
74.65934233615626
109.62081330586709
97.41359578850995
76.71015487907225
94.87449454489968
97.02296482795452
86.1829556725414
113.9177538719768
135.7930876630808
115.38261997405966
101.71053635461966
102.58945601586939
84.81574731059739
77.4914168001831
99.26909285114824
102.29648279545282
87.35484855420768
93.80025940337224
98.19485770962082
77.97970550087739
63.42870222018769
59.91302357518883
45.362020294499125
32.37354085603113
37.64705882352941
50.24490730144198
54.44419012741283
47.60814831769284
45.654993514915695
47.998779278248264
36.768139162279695
23.096055542839704
29.150835431448844
36.475165941863125
20.947585259784848
15.967040512703136
28.27191577019913
17.236591134508277
5.810635538261997
15.967040512703136
9.619287403677424
-5.517662317845426
6.884870679789426
18.310826276035705
5.224689097428855
9.42397192339971
26.416418707560844
10.498207064927138
-4.638742656595713
10.009918364232853
9.42397192339971
-6.982528419928283
0.9277485313191425
9.521629663538567
-4.052796215762569
-4.736400396734569
7.373159380483711
0.34180209048599985
-6.884870679789426
3.36919203479057
3.662165255207141
-6.005951018539712
-0.537117570763714
5.0293736171511405
-27.100022888532845
-104.05432211795224
-156.1058976119631
-118.01937895780881
-59.32707713435569
-64.69825284199283
-113.9177538719768
-200.6378271152819
-327.49523155565726
-401.9104295414664
-361.28480964370186
-271.14671549553674
-206.00900282291906
-174.4655527580682
-140.77363241016252
-92.82368200198367
-69.77645532921339
-66.45609216449226
-41.16273746852827
-19.775692378118563
-25.732814526588847
-20.361638818951704
-3.076218814373999
-7.373159380483711
-12.74433508812085
0.04882887006942855
1.416037232013428
-7.861448081177996
-1.3183794918745708
4.931715877012284
-3.36919203479057
-3.36919203479057
4.736400396734569
0.24414435034714274
-4.150453955901427
2.8809033340962844
3.076218814373999
-3.1738765545128556
0.34180209048599985
4.052796215762569
-1.3183794918745708
-1.416037232013428
3.466849774929427
0.6347753109025711
-2.0996414129854277
2.0996414129854277
2.0996414129854277
-1.8066681925688564
0.43945983062485694
18.701457236591136
48.68238345922026
48.97535667963683
36.768139162279695
72.99916075379568
102.7847714961471
82.17898832684826
88.72205691615167
122.51163500419624
112.45288776989395
99.95269703212024
127.39452201113909
130.03128099488822
105.81216144045166
110.79270618753338
110.01144426642253
76.90547035934996
64.9912260624094
77.39375906004425
70.36240177004655
68.89753566796368
98.29251544975968
113.2341496910048
106.98405432211796
113.33180743114366
114.30838483253224
95.46044098573282
84.22980086976425
79.44457160296025
61.768520637827116
39.893186846723125
25.342183566033416
26.318760967421987
35.10795757991913
32.37354085603113
35.10795757991913
44.48310063324941
29.63912413214313
10.888838025482567
24.267948424505988
34.81498435950255
16.16235599298085
17.82253757534142
35.889219501029984
16.45532921339742
-2.8809033340962844
13.427939269092851
12.74433508812085
-7.177843900205997
1.6113527122911422
11.963073167009995
-4.052796215762569
-5.517662317845426
8.74036774242771
0.8300907911802854
-7.959105821316854
4.052796215762569
4.638742656595713
-6.884870679789426
-0.7324330510414282
6.005951018539712
-3.5645075150682843
-4.150453955901427
4.834058136873426
0.04882887006942855
-5.420004577706569
2.197299153124285
2.5879301136797133
-4.443427176317998
-0.6347753109025711
3.466849774929427
-2.392614633401999
-2.783245593957427
2.783245593957427
-0.04882887006942855
-3.466849774929427
1.2207217517357138
1.416037232013428
-22.90074006256199
-75.9288929579614
-105.32387273975738
-96.53467612726024
-129.73830777447165
-196.43854428931107
-217.53261615930418
-230.91172655832762
-276.12726024261843
-292.826733806363
-265.3849088273442
-239.01731898985275
-227.88433661402303
-209.3293659876402
-155.91058213168535
-93.99557488364995
-69.9717708094911
-58.936446173800256
-33.15480277714199
-22.412451361867703
-26.61173418783856
-14.892805371175708
-3.7598229953459983
-10.595864805065995
-9.228656443121995
1.513694972152285
-2.0019836728465705
-6.6895551995117115
1.513694972152285
2.5879301136797133
-4.345769436179141
-0.34180209048599985
4.150453955901427
-1.7090104524299992
-2.0996414129854277
3.662165255207141
0.7324330510414282
-2.490272373540856
2.197299153124285
2.392614633401999
-2.197299153124285
0.14648661020828566
12.45136186770428
28.467231250476843
28.076600289921416
25.732814526588847
54.24887464713512
67.7256427862974
43.89715419241627
56.29968719005112
101.6128786144808
115.48027771419852
145.26588845654993
225.2475776302739
255.3261615930419
195.36430914778362
104.54261081864652
-1.416037232013428
-90.67521171892882
-88.03845273517967
-21.24055848020142
15.771725032425422
25.732814526588847
43.50652323186084
39.20958266575113
18.89677271686885
26.318760967421987
40.186160067139696
36.96345464255741
45.26436255436027
65.47951476310368
68.99519340810254
71.63195239185168
91.65178912031739
101.71053635461966
102.00350957503625
117.43343251697566
130.91020065613793
122.6092927443351
103.66369115739681
85.0110627908751
74.5616845960174
65.6748302433814
47.90112153810941
51.61211566338598
66.84672312504769
41.45571068894484
15.47875181200885
24.560921644922562
17.334248874647134
-1.513694972152285
14.697489890897993
26.807049668116274
4.345769436179141
2.490272373540856
20.752269779507134
6.6895551995117115
-7.568474860761425
8.642710002288853
8.74036774242771
-8.252079041733426
0.14648661020828566
9.521629663538567
-4.443427176317998
-5.322346837567712
7.373159380483711
0.24414435034714274
-7.275501640344854
3.466849774929427
3.9551384756237127
-6.298924238956283
-0.7324330510414282
5.224689097428855
-3.2715342946517127
-8.838025482566568
-11.572442206454566
-27.49065384908827
-71.33897917143511
-128.17578393224994
-139.30876630807964
-122.70695048447395
-149.4651712825208
-179.34843976501105
-167.33653772793164
-172.51239795529108
-197.31746395056078
-190.96971084153506
-187.94232089723047
-218.21622034027618
-238.9196612497139
-218.11856260013732
-164.21149004348823
-122.31631952391852
-110.40207522697796
-83.25322346837568
-43.79949645227741
-37.256427862973986
-37.06111238269627
-15.283436331731137
-8.74036774242771
-18.11551079575799
-7.959105821316854
2.2949568932631417
-7.373159380483711
-7.080186160067139
4.345769436179141
-0.6347753109025711
-6.6895551995117115
2.490272373540856
3.466849774929427
-4.638742656595713
-0.14648661020828566
4.834058136873426
-2.0019836728465705
-2.392614633401999
4.345769436179141
0.9277485313191425
-2.9785610742351416
2.490272373540856
2.68558785381857
-2.490272373540856
0.14648661020828566
3.36919203479057
-0.9277485313191425
-1.1230640115968566
19.58037689784085
61.37788967727169
78.85862516212711
65.57717250324254
98.6831464103151
162.74662394140535
167.92248416876478
155.3246356908522
180.52033264667736
178.17654688334477
147.6096742198825
158.84031433585108
174.36789501792936
148.0979629205768
132.27740901808195
138.13687342641336
118.11703669794767
90.77286945906768
85.98764019226367
74.07339589532312
52.78400854505226
52.881666285191116
64.9912260624094
63.72167544060426
52.588693064774546
44.67841611352712
46.826886396581976
47.998779278248264
35.98687724116884
39.79552910658427
54.053559166857404
31.68993667505913
9.228656443121995
22.803082322423133
19.678034637979707
-2.68558785381857
4.736400396734569
14.599832150759136
-2.2949568932631417
-4.443427176317998
9.912260624093996
1.7090104524299992
-7.666132600900283
4.443427176317998
5.127031357289998
-6.787212939650568
-0.7324330510414282
6.298924238956283
-3.466849774929427
-4.150453955901427
5.0293736171511405
0.04882887006942855
-5.517662317845426
2.0996414129854277
2.68558785381857
-4.541084916456855
-0.7324330510414282
3.5645075150682843
-2.392614633401999
-2.783245593957427
2.8809033340962844
-0.04882887006942855
-3.466849774929427
1.2207217517357138
1.513694972152285
-2.9785610742351416
-0.537117570763714
2.0996414129854277
-1.6113527122911422
-6.6895551995117115
-13.525597009231708
-36.37750820172427
-109.71847104600594
-209.03639276722362
-238.33371480888076
-212.84504463263906
-226.32181277180132
-243.11894407568474
-212.94270237277792
-202.6886396581979
-218.50919356069275
-196.43854428931107
-158.93797207598993
-147.70733196002135
-151.61364156557565
-140.67597467002366
-99.07377737087053
-64.69825284199283
-60.59662775616083
-46.33859769588769
-20.752269779507134
-19.971007858396277
-22.510109102006563
-6.6895551995117115
-2.9785610742351416
-11.767757686732281
-4.345769436179141
3.2715342946517127
-4.931715877012284
-4.834058136873426
4.345769436179141
0.04882887006942855
-4.834058136873426
2.5879301136797133
3.1738765545128556
-3.5645075150682843
0.04882887006942855
4.150453955901427
-1.416037232013428
-1.7090104524299992
3.662165255207141
0.8300907911802854
-2.392614633401999
2.0019836728465705
2.197299153124285
-1.9043259327077133
0.34180209048599985
2.8809033340962844
-0.6347753109025711
-0.7324330510414282
9.228656443121995
21.43587396047913
19.287403677424276
15.47875181200885
45.55733577477684
81.69069962615396
67.33501182574197
52.97932402532997
89.40566109712367
102.98008697642481
85.30403601129167
110.40207522697796
141.9455252918288
134.52353704127566
142.72678721293966
165.96932936598765
143.21507591363394
107.17936980239567
103.85900663767453
88.23376821545739
54.346532387273975
47.998779278248264
45.26436255436027
22.510109102006563
22.314793621728846
49.26832990005341
59.22941939421683
59.62005035477226
71.8272678721294
66.65140764476998
47.90112153810941
58.936446173800256
97.60891126878766
125.92965590905622
113.72243839169909
84.03448538948653
83.74151216906996
79.15159838254368
20.947585259784848
-49.365987640192266
-72.12024109254597
-42.62760357061112
2.490272373540856
25.146868085755703
23.096055542839704
7.470817120622568
-18.799114976729992
-34.424353398947126
-20.654612039368278
17.52956435492485
50.14724956130312
45.654993514915695
38.525978484779124
55.03013656824598
43.70183871213855
7.666132600900283
5.127031357289998
14.892805371175708
3.1738765545128556
6.6895551995117115
23.779659723811704
9.912260624093996
-5.127031357289998
8.545052262149996
9.033340962844282
-6.6895551995117115
0.24414435034714274
9.033340962844282
-3.5645075150682843
-4.931715877012284
6.787212939650568
-1.416037232013428
-39.014267185473415
-97.41359578850995
-139.6017395284962
-160.98878461890592
-203.17692835889218
-231.49767299916076
-216.26306553749905
-221.04829480430305
-247.1229114213779
-240.4821850919356
-219.48577096208132
-213.82162203402763
-215.87243457694362
-196.53620202944992
-134.62119478141452
-79.83520256351568
-68.31158922713054
-52.78400854505226
-24.756237125200276
-23.389028763256274
-26.61173418783856
-8.74036774242771
-3.466849774929427
-13.427939269092851
-5.615320057984283
3.662165255207141
-5.322346837567712
-5.908293278400855
4.443427176317998
0.14648661020828566
-5.615320057984283
2.490272373540856
3.7598229953459983
-3.8574807354848555
-0.14648661020828566
4.638742656595713
-1.513694972152285
-2.2949568932631417
3.8574807354848555
1.0254062714579995
-2.68558785381857
2.197299153124285
2.68558785381857
-2.0996414129854277
0.04882887006942855
14.209201190203707
33.545433737697415
38.91660944533455
67.92095826657511
176.22339208056763
279.44762340733956
277.39681086442357
214.60288395513848
128.9570458533608
16.943617914091707
-38.1353475242237
6.103608758678568
50.24490730144198
55.713740749217976
73.87808041504539
83.74151216906996
63.33104448004883
66.94438086518655
97.02296482795452
97.41359578850995
84.13214312962539
93.01899748226138
94.97215228503853
87.7454795147631
106.49576562142367
136.18371862363622
138.82047760738536
109.23018234531166
78.07736324101626
76.8078126192111
75.44060425726711
45.16670481422141
35.889219501029984
49.56130312046998
27.97894254978256
4.052796215762569
18.017853055619135
17.724879835202564
-3.8574807354848555
2.68558785381857
13.81857022964828
-2.197299153124285
-5.420004577706569
9.228656443121995
2.0996414129854277
-7.959105821316854
3.662165255207141
5.420004577706569
-6.591897459372854
-1.3183794918745708
6.298924238956283
-3.076218814373999
-4.638742656595713
4.736400396734569
0.537117570763714
-5.517662317845426
1.8066681925688564
2.9785610742351416
-4.345769436179141
-1.1230640115968566
3.662165255207141
-2.0996414129854277
-2.9785610742351416
2.783245593957427
0.04882887006942855
-3.5645075150682843
0.9277485313191425
1.7090104524299992
-2.8809033340962844
-0.7324330510414282
2.0996414129854277
-1.513694972152285
-2.0019836728465705
1.513694972152285
-0.04882887006942855
-24.267948424505988
-78.46799420157168
-117.62874799725337
-144.48462653543908
-216.3607232776379
-276.32257572289615
-265.3849088273442
-257.3769741359579
-270.1701380941482
-247.61120012207218
-212.5520714122225
-200.6378271152819
-198.00106813153278
-177.10231174181735
-122.41397726405738
-73.19447623407339
-60.2059967956054
-46.92454413672083
-23.682001983672848
-20.84992751964599
-23.096055542839704
-9.033340962844282
-3.662165255207141
-10.986495765621424
-5.127031357289998
2.5879301136797133
-4.052796215762569
-4.834058136873426
3.2715342946517127
0.43945983062485694
-4.345769436179141
1.7090104524299992
3.076218814373999
-2.8809033340962844
-0.34180209048599985
3.7598229953459983
-0.8300907911802854
-1.7090104524299992
3.076218814373999
1.1230640115968566
-2.0019836728465705
1.6113527122911422
2.197299153124285
-1.513694972152285
0.04882887006942855
3.662165255207141
2.8809033340962844
2.2949568932631417
21.045242999923705
68.99519340810254
93.2143129625391
70.75303273060197
81.88601510643167
127.39452201113909
121.33974212252994
104.34729533836881
135.40245670252537
141.16426337071795
107.08171206225681
106.10513466086825
111.76928358892195
78.46799420157168
57.66689555199512
65.18654154268711
48.48706797894255
22.705424582284277
23.291371023117417
15.185778591592278
-2.68558785381857
9.521629663538567
28.174258030060273
25.146868085755703
32.6665140764477
55.51842526894026
59.22941939421683
56.983291371023114
74.36636911573969
84.3274586099031
80.2258335240711
86.28061341268025
91.65178912031739
82.56961928740368
75.53826199740597
77.10078583962768
80.61646448462653
74.65934233615626
55.127794308384836
53.27229724574655
63.72167544060426
42.72526131074998
19.87335011825742
25.830472266727703
20.55695429922942
-6.591897459372854
-21.728847180895706
-20.361638818951704
-22.510109102006563
-24.072632944228275
-15.674067292286564
-2.8809033340962844
18.017853055619135
37.64705882352941
29.63912413214313
-4.150453955901427
-36.57282368200198
-42.33463035019455
-14.795147631036851
40.28381780727855
77.58907454032196
51.123826962691695
15.869382772564279
23.389028763256274
21.826504921034562
-0.7324330510414282
4.736400396734569
15.967040512703136
-0.43945983062485694
-4.638742656595713
9.81460288395514
2.9785610742351416
-17.334248874647134
-27.002365148393988
-32.86182955672541
-70.06942854962998
-157.6684214541848
-228.17730983443963
-235.79461356527045
-243.70489051651788
-267.24040588998247
-256.79102769512474
-233.54848554207675
-234.72037842374303
-243.11894407568474
-224.17334248874647
-165.3833829251545
-113.2341496910048
-99.17143511100939
-76.41718165865568
-39.11192492561227
-33.05714503700313
-35.20561532005799
-14.404516670481422
-6.6895551995117115
-17.041275654230564
-8.154421301594567
2.9785610742351416
-6.494239719233997
-7.373159380483711
4.443427176317998
0.24414435034714274
-6.591897459372854
2.2949568932631417
3.9551384756237127
-4.638742656595713
-0.7324330510414282
5.224689097428855
-1.416037232013428
-2.68558785381857
4.150453955901427
1.1230640115968566
-3.1738765545128556
2.0996414129854277
2.9785610742351416
-2.490272373540856
-0.04882887006942855
17.82253757534142
43.604180971999696
43.11589227130541
37.64705882352941
87.06187533379111
135.59777218280308
126.80857557030595
136.76966506446936
183.1570916304265
189.3095292591745
177.98123140306706
196.73151750972764
189.40718699931335
147.70733196002135
130.71488517586022
114.50370031280995
67.13969634546426
40.08850232700084
47.0222018768597
37.15877012283513
20.84992751964599
27.881284809643702
26.318760967421987
18.11551079575799
43.018234531166556
73.48744945448996
72.80384527351796
64.3076218814374
76.41718165865568
106.30045014114596
111.57396810864424
72.70618753337911
53.760585946440834
64.11230640115969
38.62363622491798
8.545052262149996
20.654612039368278
20.752269779507134
-2.2949568932631417
5.127031357289998
18.11551079575799
-0.14648661020828566
-5.420004577706569
10.79118028534371
3.466849774929427
-8.545052262149996
3.9551384756237127
6.6895551995117115
-6.982528419928283
-1.8066681925688564
7.275501640344854
-2.9785610742351416
-5.420004577706569
5.224689097428855
1.0254062714579995
-6.201266498817426
1.8066681925688564
3.662165255207141
-4.736400396734569
-1.416037232013428
4.150453955901427
-2.0996414129854277
-3.466849774929427
3.076218814373999
0.43945983062485694
-3.9551384756237127
0.9277485313191425
2.0019836728465705
-3.076218814373999
-0.9277485313191425
2.490272373540856
-14.306858930342566
-65.96780346379796
-119.48424505989166
-124.8554207675288
-128.2734416723888
-178.0788891432059
-203.3722438391699
-188.52826733806364
-208.05981536583505
-233.25551232166018
-213.6263065537499
-206.10666056305791
-222.90379186694133
-211.5754940108339
-176.02807660028992
-139.50408178835735
-119.09361409933624
-107.17936980239567
-70.55771725032426
-37.256427862973986
-37.64705882352941
-31.103990234225986
-10.009918364232853
-11.47478446631571
-17.334248874647134
-3.2715342946517127
0.7324330510414282
-9.228656443121995
-3.2715342946517127
4.931715877012284
-3.466849774929427
-4.736400396734569
4.443427176317998
0.8300907911802854
-4.736400396734569
2.392614633401999
3.8574807354848555
-3.1738765545128556
-0.14648661020828566
4.345769436179141
-1.2207217517357138
-2.0996414129854277
3.5645075150682843
1.2207217517357138
-2.2949568932631417
5.615320057984283
37.549401083390556
88.81971465629053
104.8355840390631
81.78835736629281
56.7879758907454
7.763790341039139
-35.49858854047456
-5.810635538261997
47.412832837415124
63.72167544060426
85.79232471198596
116.16388189517052
95.36278324559396
64.3076218814374
80.2258335240711
90.96818493934539
81.69069962615396
99.56206607156481
115.87090867475395
96.04638742656596
82.86259250782025
89.40566109712367
78.56565194171054
71.1436636911574
96.24170290684367
113.2341496910048
111.08567940794995
124.8554207675288
141.84786755168994
135.50011444266423
114.89433127336538
92.5307087815671
83.15556572823682
77.68673228046082
55.22545204852369
50.24490730144198
62.54978255893797
37.549401083390556
11.767757686732281
27.68596932936599
27.1976806286717
0.8300907911802854
6.591897459372854
19.58037689784085
0.43945983062485694
-5.322346837567712
11.08415350576028
3.466849774929427
-9.81460288395514
1.2207217517357138
4.150453955901427
-7.177843900205997
0.24414435034714274
10.009918364232853
-1.6113527122911422
-4.931715877012284
6.005951018539712
1.513694972152285
-6.201266498817426
2.0996414129854277
4.052796215762569
-4.834058136873426
-1.513694972152285
4.541084916456855
-2.0996414129854277
-3.7598229953459983
3.1738765545128556
0.537117570763714
-4.150453955901427
1.0254062714579995
2.2949568932631417
-10.10757610437171
-29.63912413214313
-40.67444876783398
-53.95590142671855
-119.28892957961395
-205.32539864194706
-227.39604791332874
-227.2983901731899
-266.0685130083162
-282.57267109178304
-252.98237582970933
-242.33768215457388
-245.16975661860076
-208.93873502708476
-150.53940642404822
-114.69901579308767
-109.8161287861448
-98.87846189059282
-59.32707713435569
-35.303273060196844
-37.84237430380713
-24.560921644922562
-7.666132600900283
-14.209201190203707
-14.50217441062028
-0.04882887006942855
-2.197299153124285
-9.521629663538567
0.04882887006942855
3.662165255207141
-5.224689097428855
-2.0019836728465705
4.931715877012284
-1.6113527122911422
-3.662165255207141
3.8574807354848555
1.513694972152285
-3.5645075150682843
1.9043259327077133
3.5645075150682843
-2.2949568932631417
-0.43945983062485694
3.662165255207141
-0.43945983062485694
-1.7090104524299992
2.783245593957427
1.3183794918745708
-1.9043259327077133
9.42397192339971
50.928511482413974
100.14801251239795
106.78873884184024
114.11306935225453
170.65690089265277
192.04394598306249
161.57473105973907
167.33653772793164
182.76646066987107
152.3949034866865
133.0586709391928
142.33615625238423
119.97253376058595
90.67521171892882
100.0503547722591
98.78080415045396
77.68673228046082
89.89394979781795
110.69504844739453
97.51125352864881
78.07736324101626
70.94834821087969
67.23735408560312
61.768520637827116
51.51445792324712
61.08491645685512
79.15159838254368
52.588693064774546
18.89677271686885
27.49065384908827
26.318760967421987
1.416037232013428
5.517662317845426
17.52956435492485
0.6347753109025711
-4.834058136873426
10.205233844510566
3.8574807354848555
-7.861448081177996
3.5645075150682843
6.591897459372854
-6.298924238956283
-1.9043259327077133
6.787212939650568
-2.490272373540856
-5.127031357289998
4.736400396734569
1.1230640115968566
-5.810635538261997
1.513694972152285
3.466849774929427
-4.345769436179141
-1.416037232013428
3.9551384756237127
-1.9043259327077133
-3.466849774929427
2.68558785381857
0.43945983062485694
-3.7598229953459983
0.7324330510414282
1.9043259327077133
-2.8809033340962844
-1.0254062714579995
2.2949568932631417
-1.2207217517357138
-2.197299153124285
1.513694972152285
0.04882887006942855
-32.764171816586554
-114.99198901350424
-181.00862134737164
-197.0244907301442
-224.27100022888533
-237.16182192721448
-193.41115434500648
-170.1686121919585
-183.54772259098192
-163.3325703822385
-137.8439002059968
-156.59418631265737
-166.5552758068208
-138.7228198672465
-121.53505760280765
-127.10154879072252
-123.29289692530709
-95.9487296864271
-66.94438086518655
-66.26077668421455
-67.0420386053254
-36.475165941863125
-17.43190661478599
-26.416418707560844
-17.236591134508277
-0.43945983062485694
-8.935683222705425
-12.158388647287708
2.5879301136797133
0.537117570763714
-8.838025482566568
0.537117570763714
5.0293736171511405
-5.0293736171511405
-2.2949568932631417
5.810635538261997
-1.0254062714579995
-4.150453955901427
4.150453955901427
2.197299153124285
-4.052796215762569
1.416037232013428
4.052796215762569
-2.2949568932631417
-0.8300907911802854
4.052796215762569
-0.24414435034714274
-2.2949568932631417
2.8809033340962844
1.7090104524299992
-2.0996414129854277
1.2207217517357138
10.986495765621424
24.267948424505988
27.295338368810558
39.40489814602884
86.08529793240254
108.54657816433966
99.85503929198138
132.66803997863738
164.21149004348823
132.27740901808195
103.4683756771191
103.07774471656367
69.19050888838025
28.857862211032273
30.22507057297627
19.971007858396277
-11.181811245899137
-6.298924238956283
13.427939269092851
11.279468986037996
24.560921644922562
58.936446173800256
64.40527962157626
53.467612726024264
67.53032730601969
93.11665522240024
131.49614709697107
196.63385976958878
238.2360570687419
202.98161287861447
115.48027771419852
29.443808651865414
-25.146868085755703
-26.709391927977418
17.236591134508277
63.42870222018769
82.56961928740368
75.44060425726711
70.06942854962998
77.97970550087739
64.20996414129854
29.150835431448844
24.560921644922562
37.4517433432517
23.58434424353399
17.43190661478599
29.63912413214313
12.939650568398566
-6.787212939650568
6.494239719233997
11.181811245899137
-14.795147631036851
-34.91264209964141
-32.56885633630884
-25.63515678644999
-17.627222095063708
-5.420004577706569
2.5879301136797133
19.385061417563133
47.412832837415124
43.79949645227741
13.330281528953995
10.693522545204852
19.287403677424276
3.8574807354848555
-2.0996414129854277
10.693522545204852
5.127031357289998
-8.545052262149996
-4.248111696040284
-1.3183794918745708
-26.318760967421987
-77.19844357976653
-107.66765850308995
-101.02693217364767
-123.19523918516823
-177.0046540016785
-190.8720531013962
-185.5985351338979
-209.13405050736247
-220.0717174029145
-203.76287479972532
-210.59891660944533
-226.41947051194018
-204.64179446097506
-162.6489662012665
-136.76966506446936
-136.6720073243305
-123.19523918516823
-71.8272678721294
-41.5533684290837
-46.43625543602655
-30.127412832837415
-8.349736781872283
-17.52956435492485
-18.310826276035705
0.43945983062485694
-2.392614633401999
-12.256046387426567
0.14648661020828566
4.736400396734569
-6.982528419928283
-2.490272373540856
6.6895551995117115
-2.0996414129854277
-4.931715877012284
5.0293736171511405
2.0019836728465705
-4.931715877012284
2.0996414129854277
4.443427176317998
-3.36919203479057
-0.8300907911802854
4.834058136873426
-0.7324330510414282
-2.5879301136797133
20.263981078812847
55.51842526894026
55.22545204852369
19.87335011825742
16.064698252841993
51.80743114366369
65.47951476310368
74.07339589532312
121.04676890211337
141.7502098115511
119.3865873197528
126.51560234988938
141.65255207141223
118.99595635919738
112.84351873044938
142.23849851224537
146.4377813382162
136.28137636377508
152.49256122682536
152.98084992751964
126.80857557030595
123.09758144502938
127.98046845197223
105.51918822003509
78.56565194171054
65.8701457236591
59.522392614633404
53.66292820630198
46.92454413672083
57.56923781185626
71.33897917143511
47.11985961699855
24.65857938506142
42.04165712977798
40.28381780727855
8.838025482566568
9.619287403677424
21.92416266117342
3.076218814373999
-4.052796215762569
12.256046387426567
5.517662317845426
-8.05676356145571
4.052796215762569
7.861448081177996
-6.494239719233997
-2.0996414129854277
7.763790341039139
-2.392614633401999
-5.810635538261997
5.224689097428855
1.6113527122911422
-6.39658197909514
1.416037232013428
3.9551384756237127
-4.638742656595713
-1.8066681925688564
4.443427176317998
-1.8066681925688564
-3.8574807354848555
2.9785610742351416
0.7324330510414282
-4.150453955901427
0.7324330510414282
2.2949568932631417
-3.076218814373999
-1.3183794918745708
2.490272373540856
-1.3183794918745708
-2.490272373540856
1.7090104524299992
0.24414435034714274
-2.68558785381857
0.24414435034714274
1.2207217517357138
-2.0019836728465705
-0.9277485313191425
1.3183794918745708
-16.748302433813993
-80.12817578393225
-154.6410315098802
-176.3210498207065
-188.8212405584802
-244.58381017776762
-261.1856260013733
-205.7160296025025
-168.02014190890364
-164.79743648432137
-168.70374608987564
-200.24719615472648
-236.8688487067979
-234.91569390402074
-187.55168993667505
-116.16388189517052
-73.3897917143511
-63.91699092088197
-43.89715419241627
-23.48668650339513
-25.439841306172273
-21.63118944075685
-5.908293278400855
-6.6895551995117115
-11.865415426871138
-1.9043259327077133
1.3183794918745708
-6.39658197909514
-2.392614633401999
3.9551384756237127
-2.0996414129854277
-3.466849774929427
3.466849774929427
1.0254062714579995
-3.466849774929427
1.8066681925688564
3.076218814373999
-2.197299153124285
-0.04882887006942855
15.576409552147707
36.67048142214084
35.303273060196844
28.760204470893417
66.84672312504769
102.29648279545282
82.86259250782025
79.44457160296025
113.2341496910048
104.73792629892424
78.37033646143283
94.87449454489968
95.2651255054551
57.95986877241169
47.51049057755398
50.73319600213626
28.174258030060273
22.21713588158999
46.14328221560998
46.43625543602655
36.0845349813077
54.83482108796826
66.84672312504769
57.471580071717405
62.84275577935454
71.43663691157397
60.401312275883114
58.74113069352254
77.00312809948882
81.00709544518196
76.12420843823911
87.45250629434653
95.85107194628824
94.09323262378882
104.05432211795224
122.12100404364081
126.0273136491951
102.58945601586939
72.12024109254597
75.83123521782254
82.66727702754254
47.11985961699855
29.541466392004274
47.412832837415124
29.150835431448844
-0.8300907911802854
11.181811245899137
15.283436331731137
-11.670099946593423
-16.748302433813993
-0.9277485313191425
-1.3183794918745708
5.0293736171511405
23.48668650339513
12.256046387426567
-5.420004577706569
6.494239719233997
9.81460288395514
-6.005951018539712
-1.3183794918745708
9.130998702983138
-2.197299153124285
-5.908293278400855
6.005951018539712
1.8066681925688564
-6.787212939650568
1.9043259327077133
4.443427176317998
-5.0293736171511405
-1.8066681925688564
4.834058136873426
-2.0019836728465705
-4.052796215762569
3.36919203479057
-3.36919203479057
-50.04959182116426
-135.89074540321965
-194.9736781872282
-208.6457618066682
-243.11894407568474
-271.2443732356756
-244.3884946974899
-229.54451819638362
-243.9002059967956
-222.90379186694133
-177.29762722209506
-154.6410315098802
-152.3949034866865
-139.4064240482185
-100.24567025253681
-70.26474402990769
-71.24132143129626
-60.2059967956054
-28.857862211032273
-21.92416266117342
-26.807049668116274
-10.79118028534371
-2.490272373540856
-12.646677347981994
-7.470817120622568
3.5645075150682843
-3.9551384756237127
-6.787212939650568
3.662165255207141
1.416037232013428
-5.71297779812314
1.3183794918745708
4.345769436179141
-3.36919203479057
-1.3183794918745708
4.638742656595713
-0.6347753109025711
-2.783245593957427
3.466849774929427
1.8066681925688564
-2.8809033340962844
1.416037232013428
3.1738765545128556
-1.7090104524299992
-0.34180209048599985
3.2715342946517127
-0.04882887006942855
-1.416037232013428
2.392614633401999
1.3183794918745708
-1.513694972152285
1.0254062714579995
15.381094071869994
39.99084458686198
49.17067215991455
67.0420386053254
122.6092927443351
138.0392156862745
103.07774471656367
107.47234302281224
119.09361409933624
79.93286030365454
60.79194323643854
84.91340505073624
79.63988708323797
65.38185702296482
90.47989623865111
98.78080415045396
79.83520256351568
101.31990539406424
151.0276951247425
184.0360112916762
206.20431830319677
200.05188067444877
136.86732280460822
53.760585946440834
-5.810635538261997
-48.291752498664835
-59.91302357518883
-14.013885709925994
43.79949645227741
59.522392614633404
53.36995498588541
51.31914244296941
41.5533684290837
27.002365148393988
23.48668650339513
32.86182955672541
42.04165712977798
40.28381780727855
43.11589227130541
54.346532387273975
45.362020294499125
24.17029068436713
33.93606469825284
48.584725719081405
25.146868085755703
15.381094071869994
34.91264209964141
20.263981078812847
-3.7598229953459983
11.279468986037996
15.869382772564279
-6.103608758678568
-1.0254062714579995
13.037308308537423
-1.9043259327077133
-7.568474860761425
8.252079041733426
3.1738765545128556
-8.74036774242771
2.490272373540856
6.39658197909514
-6.39658197909514
-2.5879301136797133
6.6895551995117115
-2.2949568932631417
-5.517662317845426
4.443427176317998
1.416037232013428
-5.908293278400855
1.1230640115968566
3.662165255207141
-4.150453955901427
-1.8066681925688564
3.8574807354848555
-1.6113527122911422
-3.5645075150682843
2.5879301136797133
-1.416037232013428
-39.20958266575113
-111.6716258487831
-156.1058976119631
-160.20752269779507
-195.65728236820019
-233.54848554207675
-218.02090485999847
-211.7708094911116
-231.69298847943847
-218.50919356069275
-193.02052338445105
-199.56359197375448
-220.75532158388648
-211.86846723125046
-151.22301060502022
-89.01503013656824
-70.36240177004655
-56.39734493018997
-28.857862211032273
-23.291371023117417
-27.295338368810558
-11.767757686732281
-3.5645075150682843
-12.353704127565424
-7.177843900205997
2.9785610742351416
-3.9551384756237127
-6.39658197909514
3.2715342946517127
1.2207217517357138
-5.322346837567712
1.2207217517357138
4.052796215762569
-3.076218814373999
-1.1230640115968566
4.150453955901427
-0.6347753109025711
-2.490272373540856
3.1738765545128556
1.7090104524299992
-2.392614633401999
1.3183794918745708
7.470817120622568
12.84199282825971
14.013885709925994
25.537499046311133
58.1551842526894
59.13176165407798
35.49858854047456
64.79591058213168
100.92927443350881
79.05394064240483
67.53032730601969
89.69863431754024
78.46799420157168
60.2059967956054
86.28061341268025
100.24567025253681
85.20637827115281
94.87449454489968
107.86297398336767
89.1126878767071
80.32349126420996
93.31197070267795
85.40169375143053
72.99916075379568
87.15953307392996
92.72602426184481
82.17898832684826
87.64782177462425
92.72602426184481
76.41718165865568
64.9912260624094
65.38185702296482
50.14724956130312
29.736781872281988
26.807049668116274
21.14290074006256
7.177843900205997
4.541084916456855
7.177843900205997
7.177843900205997
17.52956435492485
34.52201113908598
34.52201113908598
19.385061417563133
7.080186160067139
-0.43945983062485694
0.34180209048599985
12.45136186770428
22.60776684214542
23.48668650339513
21.24055848020142
23.389028763256274
38.818951705195694
51.61211566338598
42.72526131074998
51.22148470283055
73.19447623407339
45.654993514915695
12.549019607843137
29.053177691309987
30.029755092698558
1.0254062714579995
9.033340962844282
25.732814526588847
2.490272373540856
-6.005951018539712
14.209201190203707
5.908293278400855
-10.302891584649425
4.931715877012284
9.326314183260854
-8.154421301594567
-2.5879301136797133
9.42397192339971
-3.076218814373999
-6.884870679789426
6.494239719233997
1.8066681925688564
-42.04165712977798
-133.35164415960938
-219.9740596627756
-252.98237582970933
-267.4357213702602
-258.4512092774853
-214.7981994354162
-205.32539864194706
-231.88830395971618
-229.93514915693905
-202.39566643778133
-175.93041886015106
-163.82085908293277
-152.49256122682536
-105.81216144045166
-57.764553292133975
-51.709773403524835
-43.79949645227741
-17.724879835202564
-15.674067292286564
-22.90074006256199
-7.177843900205997
0.04882887006942855
-11.279468986037996
-5.908293278400855
4.931715877012284
-3.662165255207141
-6.494239719233997
4.443427176317998
1.7090104524299992
-5.71297779812314
1.7090104524299992
4.541084916456855
-3.5645075150682843
-1.1230640115968566
4.931715877012284
-0.8300907911802854
-2.9785610742351416
3.466849774929427
1.7090104524299992
-2.8809033340962844
6.201266498817426
34.81498435950255
65.8701457236591
65.8701457236591
72.21789883268482
123.09758144502938
139.4064240482185
109.52315556572823
115.57793545433738
126.51560234988938
94.77683680476082
88.33142595559625
121.53505760280765
118.89829861905852
93.99557488364995
94.5815213244831
83.15556572823682
60.30365453574426
75.9288929579614
96.72999160753795
82.56961928740368
75.44060425726711
93.60494392309452
98.6831464103151
92.43305104142824
96.04638742656596
96.72999160753795
86.57358663309682
76.90547035934996
77.4914168001831
78.56565194171054
60.59662775616083
26.514076447699704
3.7598229953459983
2.197299153124285
5.615320057984283
19.48271915770199
36.182192721446555
25.342183566033416
15.674067292286564
32.56885633630884
30.518043793392845
9.033340962844282
19.18974593728542
32.56885633630884
8.935683222705425
-1.2207217517357138
15.47875181200885
7.470817120622568
-7.666132600900283
5.322346837567712
9.228656443121995
-6.591897459372854
-2.0019836728465705
8.74036774242771
-2.490272373540856
-6.201266498817426
5.810635538261997
1.8066681925688564
-6.884870679789426
1.8066681925688564
4.541084916456855
-5.0293736171511405
-1.9043259327077133
4.834058136873426
-2.0019836728465705
-4.150453955901427
3.2715342946517127
0.8300907911802854
-4.541084916456855
0.9277485313191425
2.5879301136797133
-3.2715342946517127
-1.3183794918745708
2.783245593957427
-1.416037232013428
-2.68558785381857
1.9043259327077133
0.34180209048599985
-4.052796215762569
-2.8809033340962844
-1.7090104524299992
-33.93606469825284
-124.46478980697337
-195.65728236820019
-189.11421377889678
-193.99710078583962
-237.5524528877699
-241.8493934538796
-232.0836194399939
-260.40436408026244
-274.27176317998016
-238.0407415884642
-187.74700541695276
-159.13328755626765
-147.70733196002135
-115.28496223392081
-67.13969634546426
-49.365987640192266
-45.75265125505455
-24.4632639047837
-13.525597009231708
-20.45929655909056
-12.45136186770428
-0.6347753109025711
-7.275501640344854
-8.545052262149996
2.197299153124285
0.04882887006942855
-6.298924238956283
1.1230640115968566
3.662165255207141
-3.8574807354848555
-1.2207217517357138
4.345769436179141
-0.9277485313191425
-2.5879301136797133
3.36919203479057
1.513694972152285
-2.5879301136797133
1.6113527122911422
2.8809033340962844
-1.8066681925688564
-0.14648661020828566
11.670099946593423
25.92813000686656
24.756237125200276
19.385061417563133
36.96345464255741
47.21751735713741
33.838406958113985
56.20202944991226
116.55451285572595
144.09399557488365
159.9145494773785
193.50881208514534
159.62157625696193
55.127794308384836
-11.279468986037996
-31.885252155336843
-44.19012741283284
-13.81857022964828
45.947966735332265
59.03410391393912
42.13931486991684
48.38941023880369
50.04959182116426
43.21355001144427
66.3584344243534
89.40566109712367
77.58907454032196
66.84672312504769
74.26871137560083
71.33897917143511
70.94834821087969
94.38620584420539
108.74189364461738
104.1519798580911
106.98405432211796
109.23018234531166
98.29251544975968
86.96421759365225
79.73754482337682
78.6633096818494
73.87808041504539
51.02616922255284
43.311207751583126
52.97932402532997
34.91264209964141
17.43190661478599
31.103990234225986
27.588311589227132
-1.2207217517357138
-4.443427176317998
10.302891584649425
7.568474860761425
16.357671473258563
36.86579690241855
19.092088197146563
-3.1738765545128556
11.572442206454566
13.525597009231708
-7.275501640344854
-2.392614633401999
9.42397192339971
-3.076218814373999
-4.638742656595713
9.912260624093996
2.8809033340962844
-7.568474860761425
3.466849774929427
5.615320057984283
-6.298924238956283
-1.416037232013428
6.298924238956283
-19.678034637979707
-81.98367284657053
-132.66803997863738
-126.71091783016709
-114.01541161211567
-141.84786755168994
-151.7112993057145
-133.15632867933166
-151.80895704585336
-182.96177615014878
-181.49691004806593
-196.24322880903335
-234.62272068360417
-243.2166018158236
-219.19279774166475
-182.76646066987107
-157.57076371404594
-138.42984664682993
-90.2845807583734
-49.073014419775696
-49.073014419775696
-39.99084458686198
-14.209201190203707
-15.576409552147707
-21.63118944075685
-3.9551384756237127
0.537117570763714
-11.670099946593423
-4.443427176317998
5.0293736171511405
-4.931715877012284
-5.908293278400855
5.420004577706569
1.1230640115968566
-5.420004577706569
2.8809033340962844
3.7598229953459983
-4.638742656595713
-0.6347753109025711
4.834058136873426
-1.513694972152285
-2.0019836728465705
4.638742656595713
1.1230640115968566
-3.36919203479057
1.9043259327077133
2.5879301136797133
-2.490272373540856
0.14648661020828566
13.427939269092851
29.150835431448844
27.97894254978256
31.885252155336843
85.10872053101396
132.27740901808195
126.51560234988938
142.43381399252308
187.55168993667505
179.34843976501105
151.80895704585336
164.21149004348823
158.5473411154345
128.07812619211109
135.01182574196994
144.58228427557793
113.62478065156023
93.8979171435111
99.3667505912871
79.83520256351568
52.97932402532997
53.56527046616312
44.67841611352712
23.48668650339513
30.518043793392845
43.018234531166556
32.08056763561456
25.439841306172273
30.71335927367056
21.43587396047913
6.6895551995117115
9.81460288395514
27.97894254978256
43.40886549172198
44.580758373388264
47.998779278248264
56.20202944991226
42.236972610055695
14.795147631036851
13.13496604867628
26.318760967421987
21.728847180895706
30.127412832837415
49.658960860608836
26.318760967421987
-1.0254062714579995
12.939650568398566
14.306858930342566
-6.6895551995117115
1.416037232013428
14.795147631036851
-2.5879301136797133
-13.525597009231708
-7.177843900205997
-11.279468986037996
-14.11154345006485
-5.615320057984283
-3.662165255207141
-2.2949568932631417
16.16235599298085
26.025787747005417
7.763790341039139
0.04882887006942855
10.986495765621424
4.834058136873426
-5.0293736171511405
4.150453955901427
6.005951018539712
-4.736400396734569
-1.0254062714579995
5.908293278400855
-2.0019836728465705
-4.052796215762569
3.9551384756237127
0.8300907911802854
-4.736400396734569
1.3183794918745708
2.783245593957427
-3.662165255207141
-1.2207217517357138
3.076218814373999
-1.6113527122911422
-2.8809033340962844
2.0019836728465705
-7.861448081177996
-58.44815747310597
-134.62119478141452
-163.62554360265506
-154.73868925001906
-194.9736781872282
-247.1229114213779
-250.44327458609902
-266.2638284885939
-299.7604333562219
-285.4047455558099
-236.8688487067979
-190.28610666056306
-159.32860303654536
-135.1094834821088
-90.57755397878996
-52.97932402532997
-48.38941023880369
-38.23300526436255
-16.260013733119706
-15.576409552147707
-19.092088197146563
-5.517662317845426
-1.7090104524299992
-10.400549324788281
-4.150453955901427
3.466849774929427
-3.8574807354848555
-4.150453955901427
4.345769436179141
0.537117570763714
-4.638742656595713
1.9043259327077133
2.9785610742351416
-3.36919203479057
-0.04882887006942855
11.181811245899137
20.45929655909056
19.18974593728542
22.90074006256199
51.123826962691695
63.13572899977112
45.85030899519341
68.99519340810254
121.14442664225223
119.3865873197528
101.41756313420309
125.34370946822308
128.37109941252766
102.19882505531396
113.72243839169909
130.81254291599907
108.35126268406195
92.43305104142824
89.69863431754024
51.416800183108265
6.103608758678568
-3.5645075150682843
-14.697489890897993
-31.592278934920273
-17.43190661478599
0.14648661020828566
-6.201266498817426
-4.248111696040284
11.279468986037996
7.177843900205997
-1.3183794918745708
17.236591134508277
48.09643701838712
91.1635004196231
158.15671015487908
205.0324254215305
183.93835355153735
104.44495307850767
4.248111696040284
-77.4914168001831
-99.46440833142596
-59.522392614633404
-7.666132600900283
30.908674753948272
64.3076218814374
82.27664606698711
78.6633096818494
69.48348210879682
61.5732051575494
45.45967803463798
23.096055542839704
7.275501640344854
2.9785610742351416
7.959105821316854
15.771725032425422
24.17029068436713
34.61966887922484
39.40489814602884
36.475165941863125
43.11589227130541
48.291752498664835
35.49858854047456
49.26832990005341
75.34294651712825
42.33463035019455
6.591897459372854
25.732814526588847
24.560921644922562
-5.615320057984283
4.541084916456855
19.678034637979707
-3.36919203479057
-7.177843900205997
13.330281528953995
2.783245593957427
-10.986495765621424
5.71297779812314
7.666132600900283
-9.228656443121995
-1.416037232013428
9.033340962844282
-14.11154345006485
-56.1043717097734
-91.26115815976196
-112.64820325017166
-152.10193026626993
-213.33333333333334
-231.88830395971618
-214.70054169527734
-228.07965209430077
-245.7557030594339
-228.76325627527277
-218.4115358205539
-214.89585717555505
-184.9149309529259
-144.77759975585565
-114.21072709239338
-107.76531624322881
-105.61684596017395
-66.26077668421455
-32.08056763561456
-37.84237430380713
-30.22507057297627
-6.103608758678568
-10.986495765621424
-18.21316853589685
-0.8300907911802854
1.513694972152285
-11.377126726176853
-2.68558785381857
6.39658197909514
-4.736400396734569
-4.638742656595713
6.787212939650568
0.6347753109025711
-6.005951018539712
3.1738765545128556
3.7598229953459983
-4.736400396734569
0.14648661020828566
5.71297779812314
-1.6113527122911422
-2.2949568932631417
4.248111696040284
0.43945983062485694
-3.466849774929427
2.392614633401999
2.8809033340962844
-2.197299153124285
0.6347753109025711
6.787212939650568
8.935683222705425
8.642710002288853
23.19371328297856
64.01464866102083
80.71412222476539
58.8387884336614
79.93286030365454
135.3047989623865
136.76966506446936
124.36713206683451
154.34805828946364
160.30518043793393
136.37903410391394
147.21904325932707
156.39887083237966
129.05470359349965
123.09758144502938
143.9963378347448
136.96498054474708
117.53109025711451
118.01937895780881
114.50370031280995
98.09719996948196
89.7962920576791
98.78080415045396
104.24963759822995
77.39375906004425
47.21751735713741
56.1043717097734
60.108339055466544
26.123445487144274
12.84199282825971
26.514076447699704
12.939650568398566
-2.8809033340962844
10.79118028534371
11.377126726176853
-5.71297779812314
0.537117570763714
10.009918364232853
-2.9785610742351416
-5.127031357289998
7.080186160067139
1.2207217517357138
-6.884870679789426
2.8809033340962844
4.150453955901427
-5.615320057984283
-1.1230640115968566
5.0293736171511405
-2.68558785381857
-3.8574807354848555
3.8574807354848555
0.24414435034714274
-4.638742656595713
1.513694972152285
2.392614633401999
-3.7598229953459983
-0.9277485313191425
2.8809033340962844
-1.9043259327077133
-2.490272373540856
2.197299153124285
0.04882887006942855
-3.076218814373999
0.7324330510414282
1.2207217517357138
-2.392614633401999
-0.6347753109025711
1.7090104524299992
-1.3183794918745708
-1.7090104524299992
1.2207217517357138
-0.14648661020828566
-2.0019836728465705
0.24414435034714274
0.537117570763714
-14.892805371175708
-42.236972610055695
-42.04165712977798
-37.94003204394598
-117.82406347753108
-243.11894407568474
-300.8346684977493
-312.4559395742733
-326.61631189440754
-298.68619821469446
-235.50164034485388
-205.2277409018082
-211.18486305027847
-204.25116350041964
-154.4457160296025
-93.8979171435111
-68.50690470740825
-56.49500267032883
-32.471198596169984
-22.412451361867703
-25.830472266727703
-14.697489890897993
-4.345769436179141
-10.10757610437171
-8.154421301594567
1.7090104524299992
-1.9043259327077133
-6.39658197909514
1.0254062714579995
1.9043259327077133
-4.150453955901427
-0.24414435034714274
4.052796215762569
-1.3183794918745708
-1.8066681925688564
3.1738765545128556
0.43945983062485694
-2.490272373540856
1.9043259327077133
2.2949568932631417
-1.3183794918745708
0.8300907911802854
14.697489890897993
35.98687724116884
35.49858854047456
25.342183566033416
44.48310063324941
51.22148470283055
26.709391927977418
34.131380178530556
60.108339055466544
43.018234531166556
27.002365148393988
52.39337758449683
54.15121690699626
36.37750820172427
62.9404135194934
88.33142595559625
73.87808041504539
75.34294651712825
92.72602426184481
75.2452887769894
53.27229724574655
60.59662775616083
52.881666285191116
30.71335927367056
38.33066300450141
54.7371633478294
60.49897001602197
83.35088120851454
111.28099488822767
107.37468528267338
90.67521171892882
86.67124437323568
74.75700007629511
58.1551842526894
57.178606851300835
51.51445792324712
34.131380178530556
31.396963454642556
40.772106507972836
39.40489814602884
35.4009308003357
37.64705882352941
27.392996108949415
12.256046387426567
17.724879835202564
35.49858854047456
53.467612726024264
69.87411306935225
94.19089036392768
131.59380483710993
123.97650110627909
32.86182955672541
-72.5108720531014
-111.96459906919966
-73.29213397421225
-2.5879301136797133
44.97138933394369
51.02616922255284
42.33463035019455
50.44022278171969
51.80743114366369
31.396963454642556
39.69787136644541
59.62005035477226
29.053177691309987
2.8809033340962844
22.412451361867703
18.40848401617456
-6.884870679789426
5.0293736171511405
16.16235599298085
-4.931715877012284
-5.420004577706569
12.060730907148852
0.6347753109025711
-19.775692378118563
-25.537499046311133
-32.471198596169984
-68.11627374685283
-139.11345082780193
-185.01258869306477
-179.4460975051499
-187.25871671625848
-210.30594338902876
-201.1261158159762
-192.82520790417334
-208.93873502708476
-207.57152666514077
-183.74303807125963
-173.97726405737393
-192.33691920347906
-201.90737773708705
-152.59021896696422
-84.22980086976425
-66.55374990463112
-60.401312275883114
-28.369573510337986
-18.89677271686885
-29.9320973525597
-14.209201190203707
0.14648661020828566
-12.256046387426567
-10.302891584649425
5.322346837567712
-2.0019836728465705
-9.521629663538567
3.1738765545128556
3.7598229953459983
-6.982528419928283
-0.04882887006942855
6.6895551995117115
-2.783245593957427
-3.1738765545128556
5.322346837567712
0.24414435034714274
-4.541084916456855
3.076218814373999
3.466849774929427
-3.1738765545128556
0.7324330510414282
19.775692378118563
45.85030899519341
45.947966735332265
35.98687724116884
64.89356832227054
78.85862516212711
51.80743114366369
65.47951476310368
106.2027924010071
100.44098573281453
93.8979171435111
122.70695048447395
121.53505760280765
102.29648279545282
131.69146257724879
177.0046540016785
207.4738689250019
247.70885786221103
266.2638284885939
220.36469062333106
141.7502098115511
65.47951476310368
-9.912260624093996
-47.998779278248264
-15.088120851453422
34.22903791866941
51.51445792324712
56.7879758907454
61.5732051575494
57.56923781185626
47.11985961699855
36.768139162279695
48.877698939497975
66.06546120393683
43.11589227130541
20.55695429922942
27.588311589227132
15.674067292286564
-3.1738765545128556
12.646677347981994
22.510109102006563
3.36919203479057
7.275501640344854
24.853894865339132
7.568474860761425
-7.177843900205997
6.6895551995117115
4.443427176317998
-8.642710002288853
3.9551384756237127
12.158388647287708
-3.662165255207141
-3.662165255207141
8.545052262149996
-0.04882887006942855
-6.982528419928283
4.443427176317998
3.662165255207141
-6.39658197909514
0.04882887006942855
5.224689097428855
-3.8574807354848555
-3.2715342946517127
4.638742656595713
-0.537117570763714
-4.736400396734569
2.392614633401999
1.9043259327077133
-4.345769436179141
-0.14648661020828566
3.076218814373999
-2.490272373540856
-2.197299153124285
2.68558785381857
-0.537117570763714
-3.076218814373999
1.3183794918745708
1.0254062714579995
-2.8809033340962844
-0.24414435034714274
1.7090104524299992
-18.310826276035705
-71.1436636911574
-107.37468528267338
-89.1126878767071
-91.94476234073396
-145.07057297627222
-160.50049591821164
-145.5588616769665
-175.05149919890135
-203.95819028000304
-194.77836270695047
-212.45441367208363
-248.0018310826276
-238.0407415884642
-203.07927061875333
-177.1999694819562
-164.0161745632105
-141.7502098115511
-89.30800335698481
-51.90508888380255
-50.635538261997404
-36.475165941863125
-13.720912489509422
-18.017853055619135
-20.654612039368278
-3.5645075150682843
-2.392614633401999
-11.670099946593423
-2.197299153124285
4.345769436179141
-5.517662317845426
-4.052796215762569
4.931715877012284
-1.0254062714579995
-5.0293736171511405
3.466849774929427
2.68558785381857
-3.9551384756237127
1.1230640115968566
4.443427176317998
-2.197299153124285
-1.513694972152285
3.9551384756237127
0.04882887006942855
-2.392614633401999
2.9785610742351416
2.2949568932631417
-2.197299153124285
0.7324330510414282
17.627222095063708
44.77607385366598
45.069047074082555
33.05714503700313
63.91699092088197
87.25719081406882
74.26871137560083
97.60891126878766
135.59777218280308
121.14442664225223
109.23018234531166
133.15632867933166
122.70695048447395
87.64782177462425
86.67124437323568
81.98367284657053
54.053559166857404
52.881666285191116
63.03807125963226
41.651026169222554
22.803082322423133
29.443808651865414
20.45929655909056
5.420004577706569
19.971007858396277
33.44777599755856
29.736781872281988
41.065079728389414
60.401312275883114
60.8896009765774
60.30365453574426
73.48744945448996
78.07736324101626
76.90547035934996
86.1829556725414
89.30800335698481
81.39772640573739
79.24925612268254
80.71412222476539
74.36636911573969
56.006713969634546
30.71335927367056
21.533531700617992
26.025787747005417
18.11551079575799
15.47875181200885
24.560921644922562
17.236591134508277
-3.662165255207141
-26.318760967421987
-41.74868390936141
-44.580758373388264
-48.97535667963683
-47.705806057831694
-30.615701533531702
-20.752269779507134
-24.560921644922562
-25.146868085755703
-24.560921644922562
-23.389028763256274
-4.834058136873426
44.873731593804834
119.19127183947509
148.39093614099338
90.18692301823454
40.772106507972836
49.365987640192266
35.98687724116884
4.541084916456855
16.260013733119706
24.65857938506142
-1.1230640115968566
-1.416037232013428
16.357671473258563
-13.13496604867628
-87.15953307392996
-152.88319218738079
-175.53978789959564
-182.27817196917678
-209.23170824750133
-220.16937514305334
-201.41908903639276
-205.0324254215305
-223.8803692683299
-220.4623483634699
-211.28252079041732
-200.24719615472648
-183.05943389028764
-157.96139467460137
-110.49973296711681
-79.54222934309911
-80.2258335240711
-55.22545204852369
-21.728847180895706
-27.49065384908827
-28.564888990615703
-4.834058136873426
-5.0293736171511405
-17.041275654230564
-2.5879301136797133
5.127031357289998
-8.642710002288853
-5.0293736171511405
6.982528419928283
-2.2949568932631417
-6.787212939650568
5.127031357289998
2.8809033340962844
-5.908293278400855
1.8066681925688564
5.517662317845426
-3.7598229953459983
-1.8066681925688564
5.420004577706569
-0.43945983062485694
-3.36919203479057
3.9551384756237127
2.392614633401999
-3.36919203479057
5.810635538261997
39.20958266575113
77.78439002059967
75.2452887769894
67.62798504615854
113.82009613183794
141.35957885099566
120.65613794155794
134.81651026169223
169.87563897154192
164.40680552376594
164.11383230334937
192.72755016403448
186.47745479514762
158.3520256351568
159.9145494773785
150.8323796444648
115.87090867475395
106.30045014114596
110.69504844739453
88.52674143587396
59.32707713435569
40.08850232700084
17.82253757534142
2.0019836728465705
4.638742656595713
15.381094071869994
22.119478141451133
26.318760967421987
35.98687724116884
46.72922865644312
41.74868390936141
30.908674753948272
48.68238345922026
63.13572899977112
29.63912413214313
7.666132600900283
24.267948424505988
16.260013733119706
-5.127031357289998
7.568474860761425
14.306858930342566
-5.224689097428855
-2.783245593957427
11.377126726176853
-0.7324330510414282
-7.666132600900283
6.494239719233997
3.7598229953459983
-7.959105821316854
1.1230640115968566
6.103608758678568
-5.224689097428855
-3.1738765545128556
5.908293278400855
-1.3183794918745708
-5.420004577706569
3.466849774929427
1.8066681925688564
-5.224689097428855
0.43945983062485694
3.662165255207141
-3.466849774929427
-2.197299153124285
3.466849774929427
-1.0254062714579995
-3.466849774929427
2.0019836728465705
0.9277485313191425
-3.466849774929427
0.04882887006942855
2.0996414129854277
-2.2949568932631417
-1.416037232013428
2.0019836728465705
-0.8300907911802854
-2.2949568932631417
1.1230640115968566
0.43945983062485694
-18.21316853589685
-59.22941939421683
-86.76890211337454
-104.93324177920195
-172.9030289158465
-239.89623865110246
-235.79461356527045
-235.98992904554817
-272.02563515678645
-270.0724803540093
-237.06416418707562
-225.14991989013504
-228.27496757457848
-210.2082856488899
-151.32066834515908
-91.35881589990082
-70.75303273060197
-56.88563363088426
-31.103990234225986
-23.87731746395056
-26.514076447699704
-12.646677347981994
-4.248111696040284
-11.377126726176853
-7.470817120622568
1.8066681925688564
-3.466849774929427
-6.005951018539712
2.392614633401999
1.2207217517357138
-4.443427176317998
0.9277485313191425
3.5645075150682843
-2.5879301136797133
-1.3183794918745708
3.662165255207141
-0.14648661020828566
-2.0996414129854277
2.8809033340962844
1.8066681925688564
-2.0996414129854277
6.298924238956283
45.45967803463798
100.83161669336995
103.85900663767453
66.45609216449226
48.38941023880369
12.74433508812085
-29.053177691309987
-2.0996414129854277
48.584725719081405
55.51842526894026
65.47951476310368
97.90188448920424
90.38223849851225
68.50690470740825
89.1126878767071
100.83161669336995
83.25322346837568
89.69863431754024
102.1011673151751
80.81177996490425
67.13969634546426
82.96025024795911
84.42511635004196
77.29610131990539
90.67521171892882
93.11665522240024
77.19844357976653
80.03051804379339
92.33539330128939
91.45647364003968
93.80025940337224
105.32387273975738
112.45288776989395
105.81216144045166
86.37827115281911
88.81971465629053
102.68711375600824
68.89753566796368
24.853894865339132
27.392996108949415
28.467231250476843
7.861448081177996
17.52956435492485
33.838406958113985
10.10757610437171
-2.783245593957427
15.185778591592278
8.838025482566568
-11.963073167009995
-6.201266498817426
-0.34180209048599985
-10.205233844510566
-4.638742656595713
8.44739452201114
1.513694972152285
-0.14648661020828566
12.939650568398566
7.080186160067139
-5.322346837567712
3.2715342946517127
6.884870679789426
-4.541084916456855
-2.0019836728465705
6.201266498817426
-1.416037232013428
-4.736400396734569
3.9551384756237127
1.6113527122911422
-5.0293736171511405
0.8300907911802854
3.2715342946517127
-3.5645075150682843
-1.7090104524299992
3.36919203479057
-1.3183794918745708
-22.314793621728846
-65.77248798352025
-114.01541161211567
-178.7624933241779
-267.72869459067675
-299.9557488364996
-268.5099565117876
-268.7052719920653
-285.89303425650417
-258.0605783169299
-216.8490119783322
-189.79781795986878
-166.84824902723736
-136.86732280460822
-92.82368200198367
-64.79591058213168
-60.59662775616083
-41.651026169222554
-19.287403677424276
-21.728847180895706
-20.654612039368278
-4.931715877012284
-5.0293736171511405
-11.670099946593423
-1.9043259327077133
2.5879301136797133
-5.908293278400855
-3.076218814373999
4.248111696040284
-1.6113527122911422
-3.9551384756237127
3.5645075150682843
1.7090104524299992
-3.5645075150682843
1.416037232013428
3.466849774929427
-2.197299153124285
-0.6347753109025711
3.662165255207141
-0.14648661020828566
-1.8066681925688564
2.783245593957427
1.513694972152285
-1.9043259327077133
1.1230640115968566
2.392614633401999
-1.1230640115968566
-0.14648661020828566
11.47478446631571
27.881284809643702
26.709391927977418
28.857862211032273
78.85862516212711
119.97253376058595
99.17143511100939
97.41359578850995
134.71885252155337
122.8046082246128
91.1635004196231
108.44892042420081
113.72243839169909
89.01503013656824
100.63630121309224
120.36316472114137
99.85503929198138
89.7962920576791
109.71847104600594
105.7145037003128
91.74944686045625
105.32387273975738
105.22621499961852
82.47196154726483
82.27664606698711
90.47989623865111
78.6633096818494
68.79987792782482
69.38582436865796
68.31158922713054
61.182574196993976
48.97535667963683
56.29968719005112
72.70618753337911
51.51445792324712
29.736781872281988
48.291752498664835
45.069047074082555
10.205233844510566
10.986495765621424
24.267948424505988
3.5645075150682843
-7.959105821316854
1.9043259327077133
-5.420004577706569
-17.82253757534142
-13.037308308537423
-8.154421301594567
-11.572442206454566
-5.908293278400855
6.298924238956283
6.39658197909514
11.377126726176853
24.365606164644845
13.525597009231708
-1.8066681925688564
7.080186160067139
9.228656443121995
-14.50217441062028
-33.44777599755856
-25.049210345616846
-4.638742656595713
14.404516670481422
23.682001983672848
11.279468986037996
-3.8574807354848555
-5.127031357289998
-4.541084916456855
-2.68558785381857
9.81460288395514
16.064698252841993
4.443427176317998
0.04882887006942855
6.6895551995117115
2.490272373540856
-3.36919203479057
2.490272373540856
3.5645075150682843
-3.1738765545128556
-0.7324330510414282
3.466849774929427
-1.513694972152285
-3.1738765545128556
0.7324330510414282
-1.3183794918745708
-24.756237125200276
-71.43663691157397
-89.7962920576791
-83.83916990920882
-129.54299229419394
-184.5242999923705
-187.25871671625848
-208.45044632639048
-259.1348134584573
-266.0685130083162
-248.78309300373846
-254.93553063248646
-267.3380636301213
-244.8767833981842
-172.61005569542993
-104.34729533836881
-82.17898832684826
-64.40527962157626
-34.717326619363696
-28.467231250476843
-30.518043793392845
-13.525597009231708
-5.517662317845426
-13.916227969787137
-7.861448081177996
2.0996414129854277
-4.931715877012284
-6.494239719233997
3.466849774929427
0.9277485313191425
-5.322346837567712
1.3183794918745708
3.466849774929427
-3.466849774929427
-0.9277485313191425
4.443427176317998
-0.537117570763714
-2.197299153124285
18.017853055619135
55.713740749217976
69.19050888838025
49.073014419775696
54.7371633478294
80.03051804379339
55.81139848935683
27.100022888532845
52.78400854505226
62.061493858243686
41.651026169222554
62.2568093385214
87.55016403448539
65.57717250324254
52.97932402532997
69.67879758907453
65.57717250324254
69.48348210879682
129.73830777447165
194.87602044708933
218.31387808041504
197.12214847028307
107.17936980239567
-22.119478141451133
-86.76890211337454
-56.7879758907454
-2.197299153124285
39.99084458686198
71.8272678721294
73.58510719462882
61.08491645685512
71.33897917143511
86.57358663309682
84.52277409018082
84.81574731059739
94.28854810406654
94.77683680476082
78.56565194171054
54.15121690699626
45.947966735332265
52.295719844357976
45.26436255436027
43.11589227130541
57.471580071717405
46.14328221560998
18.11551079575799
26.318760967421987
40.38147554741741
17.82253757534142
8.74036774242771
22.412451361867703
7.177843900205997
-8.44739452201114
8.252079041733426
11.181811245899137
-3.9551384756237127
8.838025482566568
22.510109102006563
2.392614633401999
-4.345769436179141
11.670099946593423
4.345769436179141
-8.252079041733426
4.248111696040284
7.275501640344854
-6.787212939650568
-1.8066681925688564
7.568474860761425
-2.783245593957427
-5.420004577706569
5.322346837567712
1.1230640115968566
-6.298924238956283
1.7090104524299992
3.7598229953459983
-4.736400396734569
-1.513694972152285
4.345769436179141
-19.775692378118563
-85.40169375143053
-145.75417715724421
-150.8323796444648
-154.93400473029678
-200.05188067444877
-211.38017853055618
-177.39528496223392
-173.09834439612422
-173.09834439612422
-136.96498054474708
-130.03128099488822
-164.79743648432137
-184.13366903181506
-184.7196154726482
-176.02807660028992
-165.1880674448768
-146.2424658579385
-94.5815213244831
-51.416800183108265
-49.951934081025406
-39.99084458686198
-14.599832150759136
-16.16235599298085
-21.63118944075685
-4.443427176317998
-0.537117570763714
-11.963073167009995
-4.052796215762569
5.127031357289998
-4.834058136873426
-5.517662317845426
5.322346837567712
0.537117570763714
-5.71297779812314
2.783245593957427
3.8574807354848555
-4.248111696040284
-0.14648661020828566
4.931715877012284
-1.6113527122911422
-2.2949568932631417
4.052796215762569
0.9277485313191425
-3.076218814373999
2.0019836728465705
2.5879301136797133
-2.2949568932631417
0.34180209048599985
21.24055848020142
53.95590142671855
56.690318150606544
52.19806210421912
105.61684596017395
153.85976958876935
141.0666056305791
145.85183489738307
177.8835736629282
162.1606775005722
135.69542992294194
150.3440909437705
145.46120393682764
116.6521705958648
125.34370946822308
137.3556115053025
113.52712291142137
101.80819409475852
110.59739070725567
94.5815213244831
69.67879758907453
65.47951476310368
61.96383611810483
50.14724956130312
45.362020294499125
46.33859769588769
43.70183871213855
39.307240405889985
36.475165941863125
37.94003204394598
37.74471656366827
22.021820401312276
10.888838025482567
14.209201190203707
10.498207064927138
11.963073167009995
22.510109102006563
15.283436331731137
-4.443427176317998
-8.154421301594567
2.0996414129854277
1.416037232013428
-2.197299153124285
0.7324330510414282
-0.9277485313191425
5.322346837567712
19.58037689784085
14.013885709925994
3.5645075150682843
17.920195315480278
28.174258030060273
10.888838025482567
9.033340962844282
23.87731746395056
10.693522545204852
-7.177843900205997
-0.9277485313191425
-0.24414435034714274
-6.982528419928283
6.201266498817426
15.381094071869994
0.6347753109025711
-2.8809033340962844
8.154421301594567
2.0019836728465705
-5.908293278400855
3.466849774929427
4.541084916456855
-5.224689097428855
-0.8300907911802854
5.0293736171511405
-2.5879301136797133
-3.5645075150682843
3.7598229953459983
0.14648661020828566
-4.443427176317998
1.513694972152285
2.2949568932631417
-3.5645075150682843
-0.7324330510414282
2.8809033340962844
-15.47875181200885
-65.77248798352025
-110.01144426642253
-108.93720912489509
-122.12100404364081
-185.50087739375905
-213.13801785305563
-197.31746395056078
-216.26306553749905
-236.77119096665905
-214.60288395513848
-211.5754940108339
-231.98596169985504
-218.80216678110932
-175.73510337987335
-132.3750667582208
-112.74586099031052
-102.98008697642481
-66.26077668421455
-35.10795757991913
-37.549401083390556
-29.541466392004274
-8.349736781872283
-11.47478446631571
-17.041275654230564
-2.0996414129854277
0.43945983062485694
-9.81460288395514
-2.5879301136797133
5.127031357289998
-3.9551384756237127
-4.248111696040284
5.0293736171511405
0.34180209048599985
-4.834058136873426
2.783245593957427
3.2715342946517127
-3.7598229953459983
0.24414435034714274
4.638742656595713
-1.513694972152285
-1.9043259327077133
3.662165255207141
0.7324330510414282
-2.490272373540856
2.2949568932631417
4.931715877012284
5.71297779812314
8.05676356145571
25.049210345616846
60.2059967956054
61.67086289768826
44.873731593804834
82.86259250782025
118.89829861905852
102.98008697642481
111.37865262836652
144.1916533150225
129.73830777447165
106.10513466086825
115.67559319447624
101.12458991378652
66.65140764476998
65.47951476310368
56.7879758907454
13.13496604867628
-9.130998702983138
-2.2949568932631417
-4.541084916456855
7.080186160067139
47.31517509727627
67.82330052643626
70.55771725032426
94.38620584420539
118.60532539864195
132.47272449835967
160.69581139848935
199.0753032730602
224.17334248874647
190.57907988097963
92.23773556115053
10.888838025482567
-13.330281528953995
-5.127031357289998
29.541466392004274
64.20996414129854
50.928511482413974
17.334248874647134
19.775692378118563
27.881284809643702
3.7598229953459983
-14.50217441062028
-9.912260624093996
-8.154421301594567
-6.005951018539712
-1.9043259327077133
-6.494239719233997
-21.14290074006256
-51.61211566338598
-78.76096742198825
-93.8979171435111
-128.07812619211109
-156.4965285725185
-133.7422751201648
-92.62836652170596
-45.85030899519341
39.893186846723125
142.6291294728008
205.0324254215305
182.37582970931564
101.71053635461966
60.987258716716255
61.86617837796597
36.37750820172427
11.767757686732281
19.48271915770199
14.697489890897993
-17.334248874647134
-46.33859769588769
-52.295719844357976
-56.39734493018997
-103.56603341725796
-165.77401388570993
-187.94232089723047
-200.93080033569848
-229.1538872358282
-234.23208972304874
-222.22018768596934
-228.27496757457848
-225.73586633096818
-189.11421377889678
-151.41832608529793
-139.4064240482185
-142.8244449530785
-122.99992370489052
-76.12420843823911
-60.401312275883114
-66.65140764476998
-37.74471656366827
-13.330281528953995
-26.123445487144274
-20.84992751964599
1.513694972152285
-6.591897459372854
-15.088120851453422
2.2949568932631417
3.36919203479057
-10.400549324788281
-1.1230640115968566
7.470817120622568
-4.834058136873426
-4.541084916456855
6.982528419928283
0.14648661020828566
-6.103608758678568
4.052796215762569
4.150453955901427
-4.736400396734569
0.6347753109025711
5.615320057984283
-2.2949568932631417
-2.197299153124285
4.834058136873426
0.537117570763714
-3.2715342946517127
35.010299839780274
138.62516212710764
215.97009231708248
160.50049591821164
52.295719844357976
0.34180209048599985
-24.756237125200276
-17.627222095063708
58.25284199282826
122.12100404364081
123.29289692530709
123.19523918516823
127.78515297169452
99.56206607156481
83.54619668879225
109.32784008545052
118.89829861905852
110.69504844739453
128.9570458533608
144.77759975585565
139.01579308766307
145.94949263752193
158.5473411154345
149.17219806210423
120.0701915007248
82.27664606698711
64.20996414129854
63.91699092088197
45.069047074082555
39.307240405889985
61.182574196993976
45.45967803463798
10.205233844510566
17.82253757534142
24.65857938506142
0.14648661020828566
-0.24414435034714274
16.16235599298085
2.392614633401999
-7.763790341039139
8.154421301594567
6.103608758678568
-8.545052262149996
0.9277485313191425
7.959105821316854
-5.224689097428855
-4.150453955901427
6.982528419928283
-0.7324330510414282
-6.494239719233997
3.8574807354848555
2.8809033340962844
-5.908293278400855
0.04882887006942855
4.443427176317998
-3.662165255207141
-2.8809033340962844
4.052796215762569
-0.7324330510414282
-4.248111696040284
2.0996414129854277
1.513694972152285
-3.8574807354848555
-0.04882887006942855
2.5879301136797133
-2.392614633401999
-1.9043259327077133
2.2949568932631417
-0.537117570763714
-2.68558785381857
1.2207217517357138
0.8300907911802854
-2.5879301136797133
-0.14648661020828566
1.416037232013428
-1.6113527122911422
-1.3183794918745708
1.3183794918745708
-0.537117570763714
-18.310826276035705
-51.90508888380255
-65.8701457236591
-85.0110627908751
-162.25833524071106
-223.29442282749676
-222.41550316624705
-237.65011062790876
-248.29480430304417
-179.83672846570533
-103.27306019684139
-96.24170290684367
-133.15632867933166
-185.50087739375905
-222.22018768596934
-222.5131609063859
-194.9736781872282
-136.08606088349737
-78.07736324101626
-61.5732051575494
-52.39337758449683
-27.1976806286717
-19.971007858396277
-24.95155260547799
-11.767757686732281
-2.2949568932631417
-10.595864805065995
-7.763790341039139
2.783245593957427
-2.5879301136797133
-6.39658197909514
2.5879301136797133
2.0996414129854277
-4.638742656595713
0.537117570763714
4.150453955901427
-2.490272373540856
-1.7090104524299992
3.9551384756237127
0.04882887006942855
-2.68558785381857
2.5879301136797133
2.0019836728465705
-2.2949568932631417
3.466849774929427
32.56885633630884
73.29213397421225
73.58510719462882
61.37788967727169
99.17143511100939
116.6521705958648
80.71412222476539
79.44457160296025
101.02693217364767
75.2452887769894
52.10040436408026
67.43266956588083
54.932478828107115
23.58434424353399
31.592278934920273
38.72129396505684
20.16632333867399
26.61173418783856
50.635538261997404
50.34256504158083
53.07698176546884
74.85465781643397
72.80384527351796
57.86221103227283
70.85069047074083
85.49935149156939
82.96025024795911
90.67521171892882
102.68711375600824
98.09719996948196
96.92530708781567
113.03883421072709
126.0273136491951
119.09361409933624
99.46440833142596
98.97611963073167
107.08171206225681
75.83123521782254
33.05714503700313
30.127412832837415
33.64309147783627
5.420004577706569
-20.947585259784848
-21.045242999923705
-17.334248874647134
-16.357671473258563
-13.623254749370565
-9.619287403677424
-11.963073167009995
-33.74074921797513
-50.24490730144198
-40.67444876783398
-27.295338368810558
-12.45136186770428
17.627222095063708
69.48348210879682
111.57396810864424
84.62043183031967
16.16235599298085
-18.60379949645228
-16.357671473258563
-12.84199282825971
-12.646677347981994
-8.642710002288853
-6.298924238956283
12.060730907148852
42.33463035019455
37.06111238269627
16.45532921339742
27.783627069504846
31.103990234225986
5.127031357289998
3.2715342946517127
17.13893339436942
3.36919203479057
-5.810635538261997
8.74036774242771
6.103608758678568
-7.470817120622568
1.513694972152285
7.470817120622568
-11.670099946593423
-32.56885633630884
-39.307240405889985
-45.55733577477684
-83.6438544289311
-142.6291294728008
-166.84824902723736
-177.49294270237277
-221.43892576485848
-244.8767833981842
-225.34523537041275
-234.03677424277103
-265.48256656748305
-256.98634317540245
-213.13801785305563
-169.77798123140306
-150.24643320363165
-131.30083161669336
-81.49538414587624
-46.92454413672083
-48.68238345922026
-34.81498435950255
-11.767757686732281
-17.236591134508277
-19.87335011825742
-2.0019836728465705
-1.7090104524299992
-11.963073167009995
-1.6113527122911422
4.736400396734569
-6.103608758678568
-3.8574807354848555
5.71297779812314
-1.0254062714579995
-5.127031357289998
4.052796215762569
2.783245593957427
-4.443427176317998
1.1230640115968566
4.443427176317998
-2.5879301136797133
-1.416037232013428
4.443427176317998
0.04882887006942855
-2.490272373540856
2.9785610742351416
2.0996414129854277
-2.490272373540856
0.8300907911802854
8.252079041733426
14.892805371175708
15.576409552147707
19.87335011825742
37.74471656366827
34.717326619363696
18.89677271686885
43.70183871213855
70.85069047074083
54.83482108796826
68.21393148699168
143.89868009460594
199.85656519417105
223.09910734721905
237.06416418707562
176.41870756084535
57.178606851300835
1.1230640115968566
17.52956435492485
39.20958266575113
76.41718165865568
129.6406500343328
140.67597467002366
124.75776302738994
133.25398641947052
139.89471274891278
122.12100404364081
107.5700007629511
105.32387273975738
99.3667505912871
79.05394064240483
51.02616922255284
43.11589227130541
48.19409475852598
33.838406958113985
31.494621194781413
49.365987640192266
32.08056763561456
5.420004577706569
18.994430457007706
23.87731746395056
-0.34180209048599985
1.1230640115968566
15.674067292286564
0.7324330510414282
-6.982528419928283
8.74036774242771
4.834058136873426
-8.349736781872283
1.9043259327077133
7.177843900205997
-5.810635538261997
-3.1738765545128556
6.884870679789426
-1.513694972152285
-5.810635538261997
4.150453955901427
2.0019836728465705
-5.908293278400855
0.6347753109025711
3.9551384756237127
-5.615320057984283
-7.275501640344854
-1.0254062714579995
-1.7090104524299992
-0.8300907911802854
5.71297779812314
3.076218814373999
-2.8809033340962844
1.1230640115968566
2.8809033340962844
-2.2949568932631417
-1.1230640115968566
2.68558785381857
-0.8300907911802854
-2.490272373540856
1.513694972152285
0.537117570763714
-2.490272373540856
0.14648661020828566
1.3183794918745708
-5.224689097428855
-14.795147631036851
-19.48271915770199
-31.2993057145037
-87.15953307392996
-158.64499885557336
-171.63347829404134
-172.0241092545968
-230.61875333791104
-276.81086442359043
-271.635004196231
-285.01411459525445
-310.5027847714961
-285.4047455558099
-213.6263065537499
-143.41039139391165
-110.49973296711681
-93.01899748226138
-59.32707713435569
-37.06111238269627
-37.35408560311284
-25.732814526588847
-9.619287403677424
-13.427939269092851
-14.013885709925994
-1.513694972152285
-1.9043259327077133
-8.252079041733426
-0.7324330510414282
2.8809033340962844
-4.443427176317998
-2.2949568932631417
3.9551384756237127
-0.8300907911802854
-3.076218814373999
2.9785610742351416
1.6113527122911422
-2.8809033340962844
1.1230640115968566
2.9785610742351416
-1.7090104524299992
-0.537117570763714
7.470817120622568
13.330281528953995
11.767757686732281
16.16235599298085
41.16273746852827
56.006713969634546
43.40886549172198
59.522392614633404
105.42153047989623
105.81216144045166
92.72602426184481
127.49217975127794
139.99237048905164
107.08171206225681
102.49179827573053
108.64423590447852
83.25322346837568
80.03051804379339
110.10910200656139
104.24963759822995
73.19447623407339
63.72167544060426
41.065079728389414
-1.416037232013428
-16.260013733119706
-16.748302433813993
-30.127412832837415
-24.560921644922562
6.103608758678568
21.63118944075685
31.9829098954757
63.03807125963226
82.7649347676814
80.32349126420996
86.76890211337454
96.72999160753795
92.5307087815671
89.7962920576791
93.8979171435111
86.96421759365225
68.79987792782482
53.56527046616312
54.346532387273975
61.67086289768826
52.78400854505226
45.55733577477684
54.24887464713512
45.75265125505455
18.017853055619135
15.967040512703136
29.053177691309987
12.84199282825971
-5.224689097428855
-0.6347753109025711
-1.8066681925688564
-3.7598229953459983
6.005951018539712
6.787212939650568
-23.19371328297856
-82.56961928740368
-122.90226596475166
-110.40207522697796
-72.90150301365682
-25.24452582589456
34.0337224383917
95.75341420614939
137.74624246585793
113.2341496910048
50.44022278171969
36.0845349813077
43.11589227130541
16.55298695353628
5.127031357289998
22.21713588158999
11.963073167009995
-12.74433508812085
-13.916227969787137
-10.205233844510566
-37.256427862973986
-102.98008697642481
-154.15274280918592
-157.37544823376822
-168.21545738918135
-197.12214847028307
-193.99710078583962
-183.64538033112078
-205.32539864194706
-220.4623483634699
-206.69260700389106
-199.46593423361563
-210.50125886930647
-206.30197604333563
-158.3520256351568
-99.85503929198138
-86.96421759365225
-84.13214312962539
-45.26436255436027
-24.072632944228275
-35.4009308003357
-21.92416266117342
-1.3183794918745708
-12.84199282825971
-15.47875181200885
3.36919203479057
-0.24414435034714274
-11.47478446631571
1.2207217517357138
5.810635538261997
-6.982528419928283
-2.5879301136797133
7.275501640344854
-2.0019836728465705
-5.0293736171511405
5.420004577706569
2.197299153124285
-5.224689097428855
2.0996414129854277
4.638742656595713
-3.466849774929427
-0.8300907911802854
13.232623788815136
24.267948424505988
22.119478141451133
29.150835431448844
75.14763103685054
108.64423590447852
90.18692301823454
93.70260166323338
132.96101319905395
130.71488517586022
117.04280155642023
146.82841229877164
158.74265659571222
142.43381399252308
162.55130846112763
189.5048447394522
173.68429083695736
154.6410315098802
145.75417715724421
106.59342336156253
62.745098039215684
50.04959182116426
30.420386053253985
2.0019836728465705
6.494239719233997
21.533531700617992
17.43190661478599
22.803082322423133
45.26436255436027
50.53788052185855
37.256427862973986
27.1976806286717
31.201647974364842
43.70183871213855
47.21751735713741
62.745098039215684
97.51125352864881
83.83916990920882
31.103990234225986
25.439841306172273
36.86579690241855
10.009918364232853
0.04882887006942855
19.87335011825742
9.42397192339971
-8.74036774242771
6.103608758678568
9.912260624093996
-11.572442206454566
-12.549019607843137
-0.04882887006942855
-3.7598229953459983
0.14648661020828566
14.990463111314565
6.591897459372854
-8.349736781872283
-3.5645075150682843
-1.3183794918745708
-6.298924238956283
3.5645075150682843
11.963073167009995
0.7324330510414282
-2.9785610742351416
6.005951018539712
1.9043259327077133
-5.0293736171511405
2.0996414129854277
3.7598229953459983
-4.052796215762569
-1.2207217517357138
3.9551384756237127
-1.8066681925688564
-3.1738765545128556
2.783245593957427
0.43945983062485694
-3.662165255207141
0.7324330510414282
1.9043259327077133
-2.8809033340962844
-0.9277485313191425
2.2949568932631417
-12.060730907148852
-57.37392233157855
-104.8355840390631
-109.1325246051728
-117.3357747768368
-171.63347829404134
-193.89944304570076
-173.29365987640193
-190.6767376211185
-212.35675593194478
-188.52826733806364
-186.57511253528648
-214.89585717555505
-206.98558022430763
-173.78194857709622
-154.15274280918592
-153.9574273289082
-146.4377813382162
-99.85503929198138
-55.22545204852369
-50.04959182116426
-40.38147554741741
-15.869382772564279
-15.771725032425422
-21.43587396047913
-5.71297779812314
-0.6347753109025711
-11.181811245899137
-4.541084916456855
4.638742656595713
-3.9551384756237127
-5.322346837567712
4.736400396734569
0.9277485313191425
-5.420004577706569
2.197299153124285
3.8574807354848555
-3.662165255207141
-0.34180209048599985
4.834058136873426
-1.0254062714579995
-2.2949568932631417
3.662165255207141
1.0254062714579995
-2.9785610742351416
1.7090104524299992
2.68558785381857
-1.8066681925688564
0.04882887006942855
9.326314183260854
18.506141756313422
17.627222095063708
22.998397802700847
55.81139848935683
69.48348210879682
44.38544289311055
51.61211566338598
86.57358663309682
72.5108720531014
50.34256504158083
74.95231555657283
79.3469138628214
58.74113069352254
81.88601510643167
108.64423590447852
92.72602426184481
88.72205691615167
106.10513466086825
92.43305104142824
73.87808041504539
88.62439917601282
94.77683680476082
89.1126878767071
109.32784008545052
124.26947432669566
105.7145037003128
94.38620584420539
103.4683756771191
99.65972381170367
84.03448538948653
73.3897917143511
62.15915159838254
51.22148470283055
49.17067215991455
54.7371633478294
55.81139848935683
45.26436255436027
24.072632944228275
-2.0019836728465705
-17.627222095063708
-19.971007858396277
-19.287403677424276
-14.990463111314565
-7.275501640344854
-5.517662317845426
-11.08415350576028
-10.693522545204852
-4.736400396734569
-8.349736781872283
-13.037308308537423
-5.810635538261997
10.595864805065995
28.564888990615703
37.94003204394598
56.7879758907454
82.86259250782025
65.28419928282597
20.947585259784848
16.16235599298085
27.588311589227132
13.916227969787137
18.799114976729992
40.186160067139696
19.678034637979707
-3.2715342946517127
14.013885709925994
14.697489890897993
-7.470817120622568
1.1230640115968566
13.427939269092851
-3.7598229953459983
-6.494239719233997
9.521629663538567
-2.9785610742351416
-48.78004119935912
-100.34332799267567
-123.87884336614023
-131.39848935683221
-161.4770733196002
-162.74662394140535
-96.04638742656596
-41.651026169222554
-52.19806210421912
-114.89433127336538
-224.0756847486076
-328.76478217746245
-359.13633936064696
-307.5730525673304
-214.70054169527734
-151.0276951247425
-134.71885252155337
-103.56603341725796
-56.7879758907454
-47.31517509727627
-45.947966735332265
-19.971007858396277
-11.47478446631571
-22.119478141451133
-10.498207064927138
1.9043259327077133
-8.935683222705425
-8.74036774242771
4.736400396734569
-0.7324330510414282
-7.763790341039139
2.783245593957427
3.9551384756237127
-5.517662317845426
-0.43945983062485694
5.615320057984283
-2.2949568932631417
-2.8809033340962844
4.834058136873426
0.9277485313191425
-3.662165255207141
2.490272373540856
2.9785610742351416
-2.8809033340962844
0.43945983062485694
25.439841306172273
64.11230640115969
65.8701457236591
50.44022278171969
86.96421759365225
117.92172121766994
97.12062256809338
99.75738155184253
123.78118562600137
100.24567025253681
72.99916075379568
85.79232471198596
78.37033646143283
55.51842526894026
76.12420843823911
99.56206607156481
88.13611047531853
86.08529793240254
96.24170290684367
80.51880674448768
65.8701457236591
77.97970550087739
77.88204776073853
67.23735408560312
79.73754482337682
89.7962920576791
81.30006866559853
87.35484855420768
108.15594720378424
115.48027771419852
101.6128786144808
76.8078126192111
72.02258335240711
77.58907454032196
51.51445792324712
20.263981078812847
9.228656443121995
-1.7090104524299992
-14.404516670481422
-20.45929655909056
-18.21316853589685
-14.306858930342566
-7.959105821316854
1.8066681925688564
4.150453955901427
5.908293278400855
9.81460288395514
6.591897459372854
14.306858930342566
44.67841611352712
53.56527046616312
23.974975204089418
17.82253757534142
34.0337224383917
10.888838025482567
-32.27588311589227
-47.80346379797055
-35.596246280613414
-11.670099946593423
12.353704127565424
21.63118944075685
14.599832150759136
22.412451361867703
36.37750820172427
17.627222095063708
0.43945983062485694
12.939650568398566
11.377126726176853
-4.931715877012284
2.2949568932631417
10.009918364232853
-3.1738765545128556
-3.9551384756237127
7.373159380483711
0.43945983062485694
-6.39658197909514
3.466849774929427
3.5645075150682843
-5.615320057984283
-0.34180209048599985
4.736400396734569
-3.076218814373999
-3.2715342946517127
3.8574807354848555
-0.14648661020828566
-14.599832150759136
-29.834439612420844
-30.029755092698558
-38.1353475242237
-96.82764934767681
-149.56282902265966
-155.51995117112992
-185.69619287403677
-231.30235751888304
-229.93514915693905
-234.91569390402074
-282.96330205233846
-312.65125505455103
-287.74853131914244
-220.65766384374763
-158.15671015487908
-128.07812619211109
-92.43305104142824
-51.90508888380255
-44.38544289311055
-41.26039520866713
-18.60379949645228
-12.158388647287708
-19.775692378118563
-8.838025482566568
0.537117570763714
-8.349736781872283
-6.982528419928283
3.7598229953459983
-1.2207217517357138
-6.201266498817426
2.68558785381857
2.8809033340962844
-4.541084916456855
0.14648661020828566
4.638742656595713
-1.9043259327077133
-1.8066681925688564
10.10757610437171
18.994430457007706
15.576409552147707
11.767757686732281
23.096055542839704
35.10795757991913
27.588311589227132
29.9320973525597
57.27626459143969
52.10040436408026
30.029755092698558
56.20202944991226
73.48744945448996
49.85427634088655
71.72961013199054
141.35957885099566
181.30159456778821
194.87602044708933
184.81727321278706
98.87846189059282
-13.427939269092851
-54.15121690699626
-42.72526131074998
-22.803082322423133
19.18974593728542
59.815365835049974
58.44815747310597
47.31517509727627
57.471580071717405
59.42473487449455
57.86221103227283
78.95628290226597
92.72602426184481
83.4485389486534
85.0110627908751
101.71053635461966
109.71847104600594
108.74189364461738
104.44495307850767
99.75738155184253
95.2651255054551
83.6438544289311
91.74944686045625
115.38261997405966
86.37827115281911
35.10795757991913
38.03768978408484
42.92057679102769
10.302891584649425
5.908293278400855
24.267948424505988
7.080186160067139
-6.982528419928283
11.377126726176853
9.326314183260854
-9.033340962844282
1.513694972152285
10.498207064927138
-5.517662317845426
-5.0293736171511405
8.545052262149996
-0.24414435034714274
-7.763790341039139
4.541084916456855
3.8574807354848555
-6.982528419928283
-0.04882887006942855
5.615320057984283
-4.052796215762569
-3.5645075150682843
4.931715877012284
-0.43945983062485694
-5.0293736171511405
2.490272373540856
2.0996414129854277
-4.541084916456855
-0.14648661020828566
3.2715342946517127
-12.256046387426567
-45.362020294499125
-67.7256427862974
-65.47951476310368
-90.2845807583734
-146.82841229877164
-157.47310597390708
-143.3127336537728
-173.97726405737393
-198.3916990920882
-183.25474937056535
-197.21980621042192
-231.00938429846647
-227.88433661402303
-212.45441367208363
-206.49729152361334
-199.0753032730602
-169.58266575112535
-106.98405432211796
-63.42870222018769
-59.42473487449455
-42.822919050888835
-18.310826276035705
-21.826504921034562
-22.90074006256199
-4.638742656595713
-3.662165255207141
-13.037308308537423
-2.783245593957427
3.7598229953459983
-6.298924238956283
-4.150453955901427
5.322346837567712
-1.0254062714579995
-5.0293736171511405
3.662165255207141
2.490272373540856
-4.345769436179141
1.1230640115968566
4.443427176317998
-2.2949568932631417
-1.416037232013428
4.052796215762569
-0.14648661020828566
-2.5879301136797133
2.8809033340962844
2.0996414129854277
-2.2949568932631417
0.9277485313191425
2.9785610742351416
-1.1230640115968566
-0.537117570763714
10.986495765621424
25.342183566033416
23.48668650339513
24.17029068436713
67.82330052643626
107.96063172350652
88.52674143587396
82.56961928740368
122.8046082246128
119.77721828030823
88.81971465629053
106.78873884184024
119.77721828030823
94.09323262378882
93.31197070267795
103.85900663767453
74.17105363546197
51.22148470283055
62.45212481879911
50.928511482413974
27.783627069504846
42.72526131074998
56.20202944991226
43.79949645227741
48.97535667963683
68.4092469672694
71.72961013199054
84.62043183031967
119.58190280003052
134.62119478141452
118.5076676585031
101.80819409475852
105.22621499961852
110.89036392767224
85.6946669718471
59.815365835049974
70.06942854962998
66.26077668421455
30.71335927367056
28.66254673075456
43.89715419241627
18.40848401617456
0.6347753109025711
19.092088197146563
13.525597009231708
-7.275501640344854
4.834058136873426
12.84199282825971
-5.517662317845426
-3.9551384756237127
10.400549324788281
-0.537117570763714
-7.959105821316854
5.71297779812314
3.8574807354848555
-7.763790341039139
0.537117570763714
6.103608758678568
-4.834058136873426
-3.466849774929427
5.71297779812314
-0.9277485313191425
-5.420004577706569
3.1738765545128556
2.0019836728465705
-5.127031357289998
0.14648661020828566
3.5645075150682843
-3.1738765545128556
-2.2949568932631417
3.2715342946517127
-0.8300907911802854
-5.810635538261997
-5.127031357289998
-9.521629663538567
-47.80346379797055
-129.54299229419394
-181.7898832684825
-181.00862134737164
-205.81368734264134
-231.69298847943847
-197.80575265125506
-179.34843976501105
-213.13801785305563
-230.42343785763333
-219.2904554818036
-210.11062790875104
-207.4738689250019
-191.75097276264592
-137.45326924544136
-79.83520256351568
-63.6240177004654
-53.07698176546884
-26.709391927977418
-20.263981078812847
-25.537499046311133
-11.47478446631571
-2.392614633401999
-11.279468986037996
-7.568474860761425
3.076218814373999
-3.076218814373999
-6.591897459372854
2.9785610742351416
1.9043259327077133
-5.0293736171511405
0.8300907911802854
4.248111696040284
-2.783245593957427
-1.416037232013428
4.345769436179141
-0.04882887006942855
-2.68558785381857
2.8809033340962844
2.0019836728465705
-2.490272373540856
0.9277485313191425
18.11551079575799
45.26436255436027
49.17067215991455
47.412832837415124
83.25322346837568
96.53467612726024
71.04600595101854
87.15953307392996
116.74982833600366
101.71053635461966
105.0308995193408
146.4377813382162
152.10193026626993
138.9181353475242
158.05905241474022
162.25833524071106
137.1602960250248
133.0586709391928
126.41794460975052
76.12420843823911
21.92416266117342
-10.888838025482567
-50.44022278171969
-77.39375906004425
-66.06546120393683
-57.08094911116198
-61.67086289768826
-46.04562447547112
-23.87731746395056
-18.506141756313422
-6.103608758678568
25.439841306172273
54.83482108796826
89.40566109712367
138.13687342641336
158.84031433585108
121.53505760280765
43.99481193255512
-38.818951705195694
-81.78835736629281
-55.713740749217976
8.05676356145571
51.709773403524835
65.77248798352025
69.38582436865796
61.475547417410546
47.21751735713741
39.11192492561227
31.68993667505913
22.021820401312276
19.87335011825742
27.588311589227132
40.186160067139696
45.75265125505455
37.64705882352941
42.04165712977798
54.639505607690545
39.20958266575113
16.16235599298085
13.81857022964828
13.13496604867628
4.834058136873426
16.357671473258563
36.96345464255741
27.002365148393988
26.90470740825513
50.04959182116426
30.029755092698558
-1.2207217517357138
14.990463111314565
20.16632333867399
-5.908293278400855
-0.537117570763714
16.064698252841993
-1.513694972152285
-8.642710002288853
9.912260624093996
4.150453955901427
-32.95948729686427
-77.4914168001831
-99.95269703212024
-105.7145037003128
-143.89868009460594
-187.25871671625848
-189.70016021972992
-195.75494010833904
-216.94666971847104
-209.03639276722362
-193.41115434500648
-201.61440451667048
-200.4425116350042
-171.43816281376363
-144.48462653543908
-142.8244449530785
-149.2698558022431
-120.46082246128023
-70.75303273060197
-60.79194323643854
-64.11230640115969
-32.178225375753414
-14.11154345006485
-27.588311589227132
-17.334248874647134
1.9043259327077133
-9.42397192339971
-13.427939269092851
4.248111696040284
1.2207217517357138
-10.205233844510566
1.416037232013428
6.494239719233997
-6.201266498817426
-2.68558785381857
7.177843900205997
-1.3183794918745708
-4.931715877012284
5.224689097428855
2.5879301136797133
-5.0293736171511405
1.8066681925688564
4.736400396734569
-3.1738765545128556
-1.1230640115968566
19.48271915770199
44.580758373388264
42.04165712977798
10.986495765621424
-13.916227969787137
-18.310826276035705
7.373159380483711
76.12420843823911
140.67597467002366
133.15632867933166
108.35126268406195
134.81651026169223
144.97291523613336
120.46082246128023
131.2031738765545
149.75814450293737
131.59380483710993
131.69146257724879
161.08644235904478
154.34805828946364
127.88281071183337
130.3242542153048
127.00389105058366
102.68711375600824
99.65972381170367
118.41000991836424
121.04676890211337
92.72602426184481
58.936446173800256
55.32310978866255
60.8896009765774
39.5025558861677
31.787594415197987
47.11985961699855
28.369573510337986
2.5879301136797133
15.576409552147707
18.11551079575799
-3.662165255207141
0.9277485313191425
13.720912489509422
-1.2207217517357138
-6.39658197909514
8.545052262149996
3.1738765545128556
-8.154421301594567
2.68558785381857
6.005951018539712
-6.201266498817426
-2.197299153124285
6.39658197909514
-2.392614633401999
-5.127031357289998
4.345769436179141
1.2207217517357138
-5.615320057984283
1.3183794918745708
3.36919203479057
-4.150453955901427
-1.6113527122911422
3.7598229953459983
-1.6113527122911422
-3.36919203479057
2.490272373540856
0.537117570763714
-3.662165255207141
0.6347753109025711
1.9043259327077133
-2.68558785381857
-1.1230640115968566
2.0996414129854277
-1.2207217517357138
-2.197299153124285
1.416037232013428
0.14648661020828566
-2.2949568932631417
0.24414435034714274
1.0254062714579995
-1.8066681925688564
-0.8300907911802854
1.1230640115968566
-16.064698252841993
-74.26871137560083
-133.93759060044252
-134.13290608072023
-126.41794460975052
-156.9848172732128
-138.62516212710764
-66.55374990463112
-60.2059967956054
-121.92568856336308
-192.53223468375677
-280.03356984817276
-343.9993896391241
-327.29991607537954
-254.25192645151446
-173.68429083695736
-127.78515297169452
-109.1325246051728
-74.07339589532312
-43.018234531166556
-41.84634164950027
-33.252460517280845
-12.45136186770428
-12.939650568398566
-17.334248874647134
-3.8574807354848555
-0.34180209048599985
-9.326314183260854
-3.36919203479057
4.052796215762569
-3.5645075150682843
-4.248111696040284
4.248111696040284
0.6347753109025711
-4.443427176317998
2.0996414129854277
3.1738765545128556
-3.1738765545128556
-0.14648661020828566
4.052796215762569
-0.9277485313191425
-1.6113527122911422
9.130998702983138
18.799114976729992
15.381094071869994
13.81857022964828
42.13931486991684
75.53826199740597
64.11230640115969
52.588693064774546
87.25719081406882
92.43305104142824
59.22941939421683
69.19050888838025
86.67124437323568
60.108339055466544
51.123826962691695
70.85069047074083
56.20202944991226
36.27985046158541
56.20202944991226
64.11230640115969
52.39337758449683
70.06942854962998
89.21034561684596
76.02655069810025
71.33897917143511
86.8665598535134
86.8665598535134
85.10872053101396
102.29648279545282
104.93324177920195
95.06981002517739
110.69504844739453
137.94155794613565
144.58228427557793
126.51560234988938
99.46440833142596
89.60097657740138
83.4485389486534
56.20202944991226
46.72922865644312
55.32310978866255
30.518043793392845
3.36919203479057
7.568474860761425
5.0293736171511405
-11.670099946593423
-9.42397192339971
4.736400396734569
0.8300907911802854
-2.0996414129854277
7.959105821316854
4.638742656595713
8.44739452201114
33.545433737697415
29.443808651865414
2.68558785381857
7.080186160067139
16.260013733119706
-0.8300907911802854
-3.466849774929427
10.693522545204852
2.392614633401999
-7.373159380483711
4.541084916456855
5.517662317845426
-6.494239719233997
-0.7324330510414282
6.39658197909514
-4.541084916456855
-15.283436331731137
-21.24055848020142
-32.27588311589227
-65.6748302433814
-119.58190280003052
-140.09002822919052
-134.81651026169223
-166.45761806668193
-193.70412756542305
-176.5163653009842
-179.64141298542762
-203.66521705958647
-191.16502632181277
-176.5163653009842
-189.01655603875793
-179.9343862058442
-141.0666056305791
-117.72640573739223
-128.4687571526665
-140.87129015030138
-109.8161287861448
-61.96383611810483
-54.15121690699626
-53.66292820630198
-24.560921644922562
-13.232623788815136
-24.65857938506142
-12.646677347981994
1.6113527122911422
-9.81460288395514
-10.205233844510566
4.834058136873426
-0.43945983062485694
-8.74036774242771
2.5879301136797133
4.541084916456855
-6.005951018539712
-0.9277485313191425
6.201266498817426
-2.2949568932631417
-3.466849774929427
5.127031357289998
1.2207217517357138
-4.248111696040284
2.490272373540856
3.5645075150682843
-3.076218814373999
0.04882887006942855
4.248111696040284
-1.0254062714579995
-1.8066681925688564
23.389028763256274
73.3897917143511
95.55809872587167
82.56961928740368
110.10910200656139
155.03166247043563
131.59380483710993
93.99557488364995
100.34332799267567
83.25322346837568
44.67841611352712
51.31914244296941
62.9404135194934
46.72922865644312
59.32707713435569
94.97215228503853
94.87449454489968
86.1829556725414
107.86297398336767
130.22659647516593
149.95345998321508
187.6493476768139
226.02883955138475
226.71244373235675
166.16464484626536
70.55771725032426
-7.177843900205997
-29.736781872281988
0.04882887006942855
53.760585946440834
87.84313725490196
65.77248798352025
37.84237430380713
45.85030899519341
34.52201113908598
5.322346837567712
12.45136186770428
21.14290074006256
0.34180209048599985
-1.9043259327077133
13.330281528953995
2.68558785381857
-7.568474860761425
6.201266498817426
6.005951018539712
-7.373159380483711
-0.04882887006942855
7.275501640344854
-4.150453955901427
-4.345769436179141
5.908293278400855
-0.04882887006942855
-6.005951018539712
2.783245593957427
2.8809033340962844
-5.127031357289998
-0.43945983062485694
4.150453955901427
-2.8809033340962844
-2.9785610742351416
3.36919203479057
-0.24414435034714274
-3.8574807354848555
1.6113527122911422
1.6113527122911422
-3.36919203479057
-0.43945983062485694
2.392614633401999
-1.9043259327077133
-2.8809033340962844
-1.0254062714579995
-15.088120851453422
-68.4092469672694
-137.3556115053025
-152.29724574654765
-140.3830014496071
-177.1999694819562
-202.8839551384756
-170.94987411306934
-161.4770733196002
-173.87960631723507
-144.97291523613336
-125.34370946822308
-152.78553444724193
-165.3833829251545
-149.17219806210423
-148.87922484168766
-162.55130846112763
-150.93003738460365
-108.35126268406195
-77.10078583962768
-81.10475318532082
-75.53826199740597
-39.014267185473415
-23.87731746395056
-31.396963454642556
-16.357671473258563
-2.0996414129854277
-12.939650568398566
-11.181811245899137
3.662165255207141
-2.0996414129854277
-9.033340962844282
2.490272373540856
3.466849774929427
-6.39658197909514
-0.43945983062485694
5.810635538261997
-2.783245593957427
-3.1738765545128556
5.127031357289998
0.7324330510414282
-4.052796215762569
2.783245593957427
3.1738765545128556
-3.076218814373999
0.24414435034714274
6.298924238956283
5.71297779812314
5.517662317845426
19.58037689784085
44.19012741283284
40.38147554741741
21.826504921034562
47.0222018768597
79.54222934309911
63.233386739909974
60.79194323643854
104.54261081864652
111.47631036850538
87.45250629434653
104.34729533836881
117.23811703669794
90.87052719920653
85.40169375143053
100.83161669336995
89.99160753795681
82.0813305867094
98.97611963073167
94.87449454489968
81.00709544518196
99.75738155184253
114.60135805294881
101.80819409475852
98.78080415045396
104.1519798580911
89.99160753795681
73.87808041504539
71.33897917143511
61.67086289768826
44.67841611352712
36.37750820172427
32.178225375753414
27.002365148393988
27.100022888532845
25.146868085755703
14.50217441062028
8.74036774242771
13.525597009231708
26.025787747005417
35.10795757991913
28.66254673075456
30.615701533531702
41.5533684290837
28.369573510337986
8.154421301594567
11.377126726176853
17.724879835202564
9.033340962844282
17.52956435492485
37.256427862973986
23.291371023117417
13.037308308537423
32.27588311589227
22.21713588158999
-3.662165255207141
8.252079041733426
16.260013733119706
-4.638742656595713
-3.076218814373999
12.45136186770428
0.04882887006942855
-8.252079041733426
6.787212939650568
4.541084916456855
-8.44739452201114
0.8300907911802854
6.982528419928283
-8.642710002288853
-22.412451361867703
-29.2484931715877
-48.877698939497975
-105.81216144045166
-171.9264515144579
-176.22339208056763
-144.09399557488365
-140.3830014496071
-126.41794460975052
-88.72205691615167
-109.23018234531166
-188.72358281834136
-255.91210803387503
-288.62745098039215
-281.20546272983904
-245.36507209887847
-195.07133592736704
-127.29686427100023
-84.22980086976425
-78.37033646143283
-55.713740749217976
-26.318760967421987
-28.564888990615703
-27.783627069504846
-7.080186160067139
-6.103608758678568
-15.381094071869994
-3.466849774929427
3.2715342946517127
-7.666132600900283
-4.541084916456855
5.517662317845426
-1.8066681925688564
-5.615320057984283
4.052796215762569
2.392614633401999
-4.931715877012284
1.2207217517357138
4.638742656595713
-2.783245593957427
-1.3183794918745708
4.638742656595713
-0.14648661020828566
-2.783245593957427
3.076218814373999
2.0019836728465705
-2.5879301136797133
3.2715342946517127
28.66254673075456
63.42870222018769
62.9404135194934
50.53788052185855
81.88601510643167
96.6323338673991
74.65934233615626
99.07377737087053
