ecg
-3.7598229953459983
-3.5645075150682843
3.7598229953459983
0.14648661020828566
-3.662165255207141
2.2949568932631417
2.68558785381857
-2.783245593957427
0.24414435034714274
3.5645075150682843
-1.0254062714579995
-1.2207217517357138
3.076218814373999
0.7324330510414282
-1.7090104524299992
1.9043259327077133
2.0019836728465705
-1.416037232013428
0.34180209048599985
2.68558785381857
0.6347753109025711
0.6347753109025711
26.61173418783856
90.96818493934539
128.37109941252766
110.01144426642253
127.19920653086137
183.8406958113985
197.90341039139392
215.77477683680476
277.68978408484014
281.20546272983904
202.78629739833676
132.3750667582208
82.27664606698711
45.362020294499125
69.0928511482414
126.61326009002823
144.28931105516136
124.66010528725108
102.58945601586939
101.31990539406424
102.39414053559167
66.06546120393683
33.05714503700313
38.33066300450141
30.71335927367056
6.494239719233997
11.279468986037996
18.60379949645228
1.3183794918745708
-1.513694972152285
11.08415350576028
2.8809033340962844
-6.201266498817426
4.834058136873426
5.322346837567712
-5.908293278400855
-0.34180209048599985
6.005951018539712
-3.1738765545128556
-3.8574807354848555
4.736400396734569
0.14648661020828566
-5.127031357289998
2.0019836728465705
2.490272373540856
-14.013885709925994
-30.71335927367056
-26.416418707560844
-12.45136186770428
-12.74433508812085
-17.236591134508277
-7.959105821316854
14.209201190203707
31.592278934920273
25.24452582589456
9.619287403677424
8.545052262149996
9.619287403677424
1.6113527122911422
0.8300907911802854
5.71297779812314
1.416037232013428
-10.10757610437171
-22.119478141451133
-22.412451361867703
-33.64309147783627
-96.53467612726024
-156.78950179293508
-167.72716868848707
-195.46196688792247
-238.52903028915847
-231.79064621957733
-218.70450904097046
-240.67750057221332
-239.50560769054704
-202.20035095750362
-180.32501716639965
-181.1062790875105
-168.50843060959792
-124.36713206683451
-81.39772640573739
-73.78042267490653
-67.62798504615854
-36.37750820172427
-22.021820401312276
-28.467231250476843
-15.869382772564279
-2.2949568932631417
-11.181811245899137
-10.79118028534371
2.392614633401999
-1.6113527122911422
-8.154421301594567
1.7090104524299992
3.466849774929427
-5.322346837567712
-0.8300907911802854
5.224689097428855
-2.0019836728465705
-2.8809033340962844
4.345769436179141
1.0254062714579995
-3.466849774929427
2.197299153124285
3.076218814373999
-2.5879301136797133
0.04882887006942855
3.466849774929427
-0.9277485313191425
-1.513694972152285
3.076218814373999
1.0254062714579995
-1.9043259327077133
1.513694972152285
5.908293278400855
10.498207064927138
12.158388647287708
24.65857938506142
61.28023193713283
80.9094377050431
103.4683756771191
188.8212405584802
255.81445029373617
240.77515831235218
232.2789349202716
249.95498588540474
225.4428931105516
190.48142214084078
190.1884489204242
182.4734874494545
150.53940642404822
124.1718165865568
122.70695048447395
130.03128099488822
102.39414053559167
54.7371633478294
41.651026169222554
40.772106507972836
18.701457236591136
10.10757610437171
19.678034637979707
10.302891584649425
-1.416037232013428
7.568474860761425
8.252079041733426
-3.7598229953459983
0.24414435034714274
7.080186160067139
-1.9043259327077133
-3.7598229953459983
4.736400396734569
0.8300907911802854
-4.931715877012284
1.7090104524299992
2.8809033340962844
-3.9551384756237127
-1.0254062714579995
3.466849774929427
-1.8066681925688564
-2.783245593957427
2.490272373540856
0.14648661020828566
-3.36919203479057
0.8300907911802854
1.6113527122911422
-2.68558785381857
-0.8300907911802854
1.9043259327077133
-1.3183794918745708
-1.9043259327077133
1.3183794918745708
-0.04882887006942855
-2.2949568932631417
0.34180209048599985
0.8300907911802854
-4.638742656595713
-9.521629663538567
-7.763790341039139
-11.572442206454566
-43.311207751583126
-78.07736324101626
-77.78439002059967
-95.36278324559396
-160.20752269779507
-186.37979705500877
-171.53582055390248
-198.00106813153278
-228.86091401541162
-214.89585717555505
-216.8490119783322
-238.33371480888076
-221.1459525444419
-182.6688029297322
-158.44968337529565
-150.93003738460365
-136.6720073243305
-90.38223849851225
-51.22148470283055
-47.90112153810941
-37.06111238269627
-14.599832150759136
-15.771725032425422
-19.775692378118563
-4.638742656595713
-1.3183794918745708
-10.595864805065995
-3.466849774929427
4.150453955901427
-4.345769436179141
-4.541084916456855
4.443427176317998
0.24414435034714274
-4.736400396734569
2.5879301136797133
3.076218814373999
-3.662165255207141
0.04882887006942855
4.248111696040284
-1.513694972152285
-1.9043259327077133
3.5645075150682843
0.7324330510414282
-2.490272373540856
2.0996414129854277
2.392614633401999
-1.8066681925688564
0.34180209048599985
2.8809033340962844
-0.6347753109025711
-0.8300907911802854
12.158388647287708
35.010299839780274
41.651026169222554
37.256427862973986
75.2452887769894
130.03128099488822
123.97650110627909
111.08567940794995
152.3949034866865
166.5552758068208
139.30876630807964
152.78553444724193
173.87960631723507
147.51201647974364
132.1797512779431
145.65651941710536
130.5195696955825
108.74189364461738
121.14442664225223
124.1718165865568
101.22224765392538
94.97215228503853
113.33180743114366
120.36316472114137
91.55413138017853
59.522392614633404
65.57717250324254
68.79987792782482
33.15480277714199
16.16235599298085
28.95551995117113
16.064698252841993
-1.6113527122911422
11.08415350576028
12.84199282825971
-4.834058136873426
0.24414435034714274
10.595864805065995
-2.0996414129854277
-5.517662317845426
6.982528419928283
1.9043259327077133
-6.982528419928283
2.490272373540856
4.736400396734569
-5.420004577706569
-1.6113527122911422
5.224689097428855
-6.201266498817426
-26.416418707560844
-39.99084458686198
-35.20561532005799
-32.56885633630884
-52.6863508049134
-48.78004119935912
-19.58037689784085
-23.096055542839704
-31.00633249408713
-1.2207217517357138
38.03768978408484
54.44419012741283
42.92057679102769
32.6665140764477
40.772106507972836
34.81498435950255
12.74433508812085
11.08415350576028
16.55298695353628
-0.34180209048599985
-28.076600289921416
-46.533913176165406
-49.56130312046998
-69.9717708094911
-125.34370946822308
-156.39887083237966
-158.44968337529565
-192.04394598306249
-224.95460440985732
-218.50919356069275
-230.42343785763333
-268.41229877164875
-274.76005188067444
-241.8493934538796
-191.94628824292363
-156.20355535210194
-134.52353704127566
-89.50331883726253
-49.365987640192266
-47.998779278248264
-39.69787136644541
-14.697489890897993
-14.892805371175708
-21.14290074006256
-5.127031357289998
-0.04882887006942855
-11.08415350576028
-4.541084916456855
5.0293736171511405
-3.9551384756237127
-5.517662317845426
4.736400396734569
0.8300907911802854
-5.615320057984283
2.2949568932631417
4.052796215762569
-3.662165255207141
-0.34180209048599985
4.834058136873426
-1.2207217517357138
-2.5879301136797133
3.662165255207141
1.1230640115968566
-2.8809033340962844
1.9043259327077133
2.9785610742351416
-2.0019836728465705
0.04882887006942855
3.2715342946517127
-0.43945983062485694
-1.2207217517357138
22.705424582284277
80.03051804379339
118.21469443808652
109.42549782558937
134.2305638208591
196.73151750972764
198.8799877927825
174.17257953765164
195.75494010833904
202.0050354772259
177.39528496223392
194.09475852597848
221.24361028458077
198.58701457236592
161.18410009918364
137.55092698558022
119.67956054016938
101.80819409475852
76.51483939879454
66.94438086518655
70.75303273060197
44.77607385366598
17.43190661478599
24.560921644922562
22.412451361867703
2.0996414129854277
5.71297779812314
14.599832150759136
0.43945983062485694
-3.36919203479057
8.642710002288853
2.8809033340962844
-6.201266498817426
3.1738765545128556
5.127031357289998
-5.224689097428855
-1.3183794918745708
5.420004577706569
-2.2949568932631417
-4.052796215762569
3.8574807354848555
0.537117570763714
-4.736400396734569
1.3183794918745708
2.5879301136797133
-3.662165255207141
-1.1230640115968566
2.9785610742351416
-1.7090104524299992
-4.248111696040284
-2.392614633401999
-4.345769436179141
-10.205233844510566
-17.13893339436942
-15.869382772564279
-2.490272373540856
12.45136186770428
16.16235599298085
7.275501640344854
2.197299153124285
4.931715877012284
2.68558785381857
-1.0254062714579995
1.7090104524299992
2.392614633401999
-1.416037232013428
-0.43945983062485694
1.9043259327077133
-2.8809033340962844
-25.537499046311133
-61.28023193713283
-80.61646448462653
-116.16388189517052
-201.02845807583734
-255.13084611276417
-262.3575188830396
-303.47142748149844
-344.1947051194019
-314.3114366369116
-252.98237582970933
-204.25116350041964
-168.1177996490425
-134.4258793011368
-93.8979171435111
-68.89753566796368
-63.13572899977112
-43.018234531166556
-21.338216220340275
-22.803082322423133
-20.361638818951704
-5.420004577706569
-5.71297779812314
-11.279468986037996
-2.0019836728465705
1.7090104524299992
-5.810635538261997
-2.5879301136797133
3.9551384756237127
-1.7090104524299992
-3.5645075150682843
3.1738765545128556
1.2207217517357138
-3.36919203479057
1.416037232013428
3.076218814373999
-2.0019836728465705
-0.24414435034714274
3.466849774929427
-0.24414435034714274
-1.513694972152285
2.5879301136797133
1.416037232013428
-1.0254062714579995
17.13893339436942
79.44457160296025
145.65651941710536
140.48065918974595
118.21469443808652
157.47310597390708
181.20393682764936
158.44968337529565
175.24681467917907
207.37621118486305
183.54772259098192
157.08247501335165
162.06301976043335
140.18768596932938
104.34729533836881
103.56603341725796
101.41756313420309
77.10078583962768
72.5108720531014
84.13214312962539
77.39375906004425
61.182574196993976
47.80346379797055
41.943999389639124
43.018234531166556
36.0845349813077
43.50652323186084
62.9404135194934
41.651026169222554
10.302891584649425
19.58037689784085
21.826504921034562
-0.8300907911802854
2.197299153124285
15.185778591592278
0.24414435034714274
-5.908293278400855
8.74036774242771
3.9551384756237127
-7.861448081177996
2.490272373540856
6.494239719233997
-5.71297779812314
-2.490272373540856
6.494239719233997
-2.0019836728465705
-5.322346837567712
4.150453955901427
1.513694972152285
-5.615320057984283
0.9277485313191425
3.5645075150682843
-3.9551384756237127
-9.228656443121995
-26.318760967421987
-88.72205691615167
-218.4115358205539
-345.56191348134587
-359.62462806134124
-305.91287098496986
-280.6195162890059
-239.1149767299916
-155.3246356908522
-106.00747692072939
-84.91340505073624
-37.256427862973986
-6.982528419928283
-20.654612039368278
-24.072632944228275
-20.16632333867399
-43.70183871213855
-54.44419012741283
-26.90470740825513
-10.10757610437171
-22.90074006256199
-46.14328221560998
-69.58113984893568
-86.67124437323568
-106.39810788128482
-104.1519798580911
-55.713740749217976
-26.025787747005417
-36.96345464255741
-24.853894865339132
-2.0996414129854277
-13.232623788815136
-17.334248874647134
2.783245593957427
0.43945983062485694
-12.256046387426567
0.34180209048599985
6.494239719233997
-7.080186160067139
-3.5645075150682843
7.568474860761425
-1.513694972152285
-5.810635538261997
5.420004577706569
2.8809033340962844
-5.615320057984283
1.7090104524299992
5.224689097428855
-3.466849774929427
-1.416037232013428
5.322346837567712
-0.34180209048599985
-3.076218814373999
3.7598229953459983
2.0996414129854277
-3.1738765545128556
1.3183794918745708
3.466849774929427
-1.9043259327077133
-0.6347753109025711
3.466849774929427
-0.14648661020828566
-1.8066681925688564
2.392614633401999
1.416037232013428
-1.8066681925688564
1.1230640115968566
13.623254749370565
33.3501182574197
42.529945830472265
76.31952391851682
172.12176699473565
234.81803616388189
219.68108644235903
234.03677424277103
301.5182726787213
346.05020218204015
336.0891126878767
284.33051041428246
173.00068665598536
-72.41321431296254
-384.3320363164721
-530.5256733043412
-452.00885023270007
-305.91287098496986
-203.07927061875333
-138.13687342641336
-94.77683680476082
-74.17105363546197
-58.74113069352254
-38.03768978408484
-26.90470740825513
0.9277485313191425
144.28931105516136
404.93781948577094
586.7765316243228
559.5300221255817
407.67223620965893
259.23247119859616
173.97726405737393
131.39848935683221
93.01899748226138
66.16311894407569
55.03013656824598
38.91660944533455
22.705424582284277
20.263981078812847
17.236591134508277
7.373159380483711
5.908293278400855
8.349736781872283
2.8809033340962844
0.04882887006942855
3.8574807354848555
2.0996414129854277
-1.8066681925688564
0.9277485313191425
2.197299153124285
-1.6113527122911422
-0.9277485313191425
1.8066681925688564
-0.6347753109025711
-1.8066681925688564
1.0254062714579995
0.24414435034714274
-1.9043259327077133
0.04882887006942855
0.8300907911802854
-1.416037232013428
-0.9277485313191425
0.8300907911802854
-0.6347753109025711
-10.986495765621424
-29.346150911726557
-42.529945830472265
-88.52674143587396
-196.63385976958878
-270.951400015259
-272.02563515678645
-299.36980239566645
-351.8120088502327
-343.6087586785687
-285.50240329594874
-226.51712825207903
-184.32898451209277
-147.1213855191882
-97.70656900892652
-62.54978255893797
-54.346532387273975
-39.69787136644541
-20.361638818951704
-19.775692378118563
-19.092088197146563
-6.201266498817426
-4.345769436179141
-9.81460288395514
-2.9785610742351416
1.7090104524299992
-4.443427176317998
-3.076218814373999
3.1738765545128556
-0.537117570763714
-3.2715342946517127
24.853894865339132
108.64423590447852
203.86053253986418
234.81803616388189
243.80254825665673
275.9319447623407
260.013733119707
208.8410772869459
202.98161287861447
198.78233005264363
159.2309452964065
144.28931105516136
153.17616540779736
139.01579308766307
109.03486686503395
83.4485389486534
77.29610131990539
77.29610131990539
50.73319600213626
29.63912413214313
36.96345464255741
27.100022888532845
5.224689097428855
11.181811245899137
16.357671473258563
0.04882887006942855
-0.6347753109025711
10.400549324788281
1.416037232013428
-5.420004577706569
5.127031357289998
3.9551384756237127
-5.810635538261997
0.34180209048599985
5.322346837567712
-3.5645075150682843
-2.9785610742351416
4.443427176317998
-0.537117570763714
-4.443427176317998
2.2949568932631417
1.8066681925688564
-4.150453955901427
-0.14648661020828566
2.8809033340962844
-2.490272373540856
-2.0996414129854277
2.5879301136797133
-0.537117570763714
-2.9785610742351416
1.2207217517357138
0.9277485313191425
-2.68558785381857
-0.24414435034714274
1.6113527122911422
-1.7090104524299992
-1.416037232013428
1.416037232013428
-0.537117570763714
-3.8574807354848555
-5.0293736171511405
-5.127031357289998
-11.377126726176853
-24.853894865339132
-23.19371328297856
-6.494239719233997
0.6347753109025711
1.513694972152285
5.810635538261997
5.224689097428855
-7.568474860761425
-34.61966887922484
-110.40207522697796
-239.70092317082475
-307.5730525673304
-262.5528343633173
-215.18883039597162
-198.97764553292134
-155.22697795071335
-127.29686427100023
-161.2817578393225
-189.11421377889678
-172.51239795529108
-152.88319218738079
-155.71526665140763
-156.20355535210194
-117.53109025711451
-67.0420386053254
-53.85824368657969
-48.48706797894255
-23.48668650339513
-15.283436331731137
-22.90074006256199
-11.279468986037996
-0.43945983062485694
-9.42397192339971
-8.154421301594567
3.466849774929427
-1.513694972152285
-6.982528419928283
2.392614633401999
2.9785610742351416
-4.931715877012284
-0.04882887006942855
4.834058136873426
-2.0996414129854277
-2.2949568932631417
4.248111696040284
0.537117570763714
-3.076218814373999
2.490272373540856
2.68558785381857
-2.2949568932631417
0.43945983062485694
3.36919203479057
-1.0254062714579995
-1.1230640115968566
2.8809033340962844
0.537117570763714
-1.6113527122911422
1.8066681925688564
1.8066681925688564
-1.3183794918745708
0.43945983062485694
17.334248874647134
45.85030899519341
47.21751735713741
46.04562447547112
112.74586099031052
183.3524071107042
186.57511253528648
196.63385976958878
227.00541695277332
200.6378271152819
162.1606775005722
176.71168078126192
179.34843976501105
150.3440909437705
150.8323796444648
157.8637369344625
132.27740901808195
109.42549782558937
99.26909285114824
83.93682764934768
69.0928511482414
58.936446173800256
68.4092469672694
79.83520256351568
49.56130312046998
18.89677271686885
27.97894254978256
24.853894865339132
1.8066681925688564
6.884870679789426
16.55298695353628
0.04882887006942855
-3.662165255207141
10.10757610437171
2.8809033340962844
-14.11154345006485
-17.52956435492485
-15.771725032425422
-25.63515678644999
-48.48706797894255
-53.07698176546884
-28.95551995117113
-12.256046387426567
-14.892805371175708
-8.05676356145571
4.052796215762569
-6.298924238956283
-11.670099946593423
10.400549324788281
35.4009308003357
42.43228809033341
29.834439612420844
27.49065384908827
36.67048142214084
21.24055848020142
3.5645075150682843
12.45136186770428
12.549019607843137
-2.2949568932631417
1.7090104524299992
9.521629663538567
-1.3183794918745708
-3.8574807354848555
6.103608758678568
1.6113527122911422
-5.517662317845426
2.197299153124285
3.662165255207141
-23.389028763256274
-78.17502098115511
-120.46082246128023
-132.08209353780424
-173.29365987640193
-239.6032654306859
-251.32219424734873
-238.82200350957504
-259.23247119859616
-259.52544441901273
-216.55603875791562
-190.09079118028535
-199.7589074540322
-204.15350576028078
-160.40283817807278
-94.19089036392768
-67.0420386053254
-59.91302357518883
-33.3501182574197
-19.385061417563133
-26.709391927977418
-16.650644693675137
-2.197299153124285
-9.81460288395514
-11.08415350576028
2.0019836728465705
-0.43945983062485694
-7.861448081177996
1.0254062714579995
4.052796215762569
-4.638742656595713
-1.513694972152285
5.0293736171511405
-1.3183794918745708
-3.36919203479057
3.8574807354848555
1.513694972152285
-3.466849774929427
1.7090104524299992
3.36919203479057
-2.0996414129854277
-0.24414435034714274
20.16632333867399
50.83085374227512
49.26832990005341
34.52201113908598
78.85862516212711
133.35164415960938
125.24605172808423
124.36713206683451
162.25833524071106
157.37544823376822
127.98046845197223
142.72678721293966
150.1487754634928
122.02334630350195
119.58190280003052
132.1797512779431
111.6716258487831
96.6323338673991
110.79270618753338
104.54261081864652
81.00709544518196
80.81177996490425
87.25719081406882
79.05394064240483
73.3897917143511
77.88204776073853
78.37033646143283
63.33104448004883
42.04165712977798
44.48310063324941
56.006713969634546
36.768139162279695
20.16632333867399
22.90074006256199
7.275501640344854
-1.9043259327077133
23.48668650339513
29.834439612420844
4.150453955901427
5.0293736171511405
19.18974593728542
2.8809033340962844
-5.908293278400855
10.009918364232853
5.810635538261997
-8.154421301594567
2.392614633401999
7.861448081177996
-5.810635538261997
-3.1738765545128556
7.275501640344854
-1.416037232013428
-6.005951018539712
4.443427176317998
2.197299153124285
-31.494621194781413
-93.80025940337224
-136.6720073243305
-146.82841229877164
-184.42664225223163
-224.36865796902418
-208.74341954680705
-194.58304722667276
-207.76684214541848
-181.9851987487602
-129.54299229419394
-105.7145037003128
-68.4092469672694
10.10757610437171
69.38582436865796
103.37071793698024
154.15274280918592
195.55962462806133
200.83314259555962
197.21980621042192
197.7080949111162
187.06340123598076
147.8049897001602
92.72602426184481
67.43266956588083
60.59662775616083
25.63515678644999
-26.025787747005417
-66.65140764476998
-85.49935149156939
-98.58548867017625
-131.98443579766536
-158.93797207598993
-163.82085908293277
-184.32898451209277
-216.26306553749905
-228.86091401541162
-233.84145876249332
-244.58381017776762
-256.30273899443046
-234.72037842374303
-158.74265659571222
-100.34332799267567
-92.5307087815671
-66.45609216449226
-28.857862211032273
-32.6665140764477
-34.424353398947126
-7.959105821316854
-6.005951018539712
-19.48271915770199
-4.638742656595713
5.224689097428855
-9.42397192339971
-6.494239719233997
7.470817120622568
-1.6113527122911422
-7.666132600900283
5.0293736171511405
3.5645075150682843
-6.787212939650568
0.9277485313191425
6.103608758678568
-3.662165255207141
-2.392614633401999
5.810635538261997
-0.04882887006942855
-3.9551384756237127
3.7598229953459983
2.68558785381857
-3.662165255207141
1.0254062714579995
4.150453955901427
-1.9043259327077133
-0.43945983062485694
42.236972610055695
144.1916533150225
226.8101014724956
240.67750057221332
267.1427481498436
306.3035019455253
278.471046005951
230.91172655832762
221.43892576485848
201.22377355611505
156.9848172732128
132.57038223849852
131.10551613641564
119.3865873197528
85.0110627908751
58.643472953383686
61.5732051575494
59.22941939421683
31.885252155336843
22.021820401312276
30.22507057297627
16.064698252841993
1.9043259327077133
11.865415426871138
10.79118028534371
-3.1738765545128556
2.0019836728465705
8.74036774242771
-2.0996414129854277
-3.466849774929427
6.005951018539712
0.7324330510414282
-5.322346837567712
2.5879301136797133
3.1738765545128556
-4.638742656595713
-0.6347753109025711
3.9551384756237127
-2.392614633401999
-2.9785610742351416
3.076218814373999
-0.04882887006942855
-13.427939269092851
-28.760204470893417
-28.174258030060273
-24.65857938506142
-47.0222018768597
-55.81139848935683
-30.420386053253985
-23.291371023117417
-33.44777599755856
-14.306858930342566
10.205233844510566
3.076218814373999
0.6347753109025711
13.232623788815136
8.349736781872283
4.541084916456855
21.728847180895706
49.46364538033112
62.35446707866026
38.33066300450141
14.599832150759136
19.678034637979707
16.45532921339742
0.9277485313191425
5.224689097428855
11.279468986037996
-0.34180209048599985
-2.197299153124285
6.982528419928283
1.416037232013428
-4.931715877012284
2.9785610742351416
3.466849774929427
-35.889219501029984
-124.26947432669566
-191.75097276264592
-196.04791332875564
-219.48577096208132
-279.05699244678414
-303.66674296177615
-301.3229571984436
-303.47142748149844
-296.0494392309453
-254.44724193179218
-174.56321049820707
-108.35126268406195
-86.57358663309682
-65.8701457236591
-36.57282368200198
-31.201647974364842
-30.811017013809415
-13.427939269092851
-7.373159380483711
-14.697489890897993
-6.982528419928283
1.6113527122911422
-5.517662317845426
-5.71297779812314
3.2715342946517127
-0.24414435034714274
-5.224689097428855
1.9043259327077133
3.076218814373999
-3.2715342946517127
-0.14648661020828566
4.052796215762569
-1.2207217517357138
-1.8066681925688564
3.2715342946517127
0.8300907911802854
-2.2949568932631417
1.8066681925688564
4.736400396734569
5.71297779812314
7.666132600900283
26.90470740825513
71.33897917143511
83.74151216906996
69.0928511482414
110.01144426642253
157.8637369344625
141.35957885099566
134.32822156099795
161.18410009918364
147.8049897001602
133.0586709391928
189.01655603875793
251.12687876707102
256.10742351415274
222.12252994583048
151.32066834515908
56.39734493018997
12.549019607843137
42.33463035019455
81.20241092545967
91.94476234073396
85.0110627908751
89.7962920576791
97.80422674906538
64.9912260624094
28.66254673075456
35.79156176089113
34.61966887922484
7.861448081177996
8.44739452201114
20.068665598535134
3.466849774929427
-3.8574807354848555
10.693522545204852
5.322346837567712
-7.177843900205997
3.2715342946517127
7.177843900205997
-5.615320057984283
-2.2949568932631417
6.884870679789426
-1.8066681925688564
-5.322346837567712
4.443427176317998
1.6113527122911422
-5.71297779812314
1.0254062714579995
3.7598229953459983
-4.052796215762569
-1.9043259327077133
3.8574807354848555
-1.513694972152285
-3.5645075150682843
2.490272373540856
0.8300907911802854
-3.7598229953459983
0.43945983062485694
2.0996414129854277
-2.68558785381857
-1.3183794918745708
2.197299153124285
-1.1230640115968566
-2.392614633401999
1.416037232013428
0.34180209048599985
-2.392614633401999
0.14648661020828566
1.1230640115968566
-1.8066681925688564
-0.9277485313191425
1.2207217517357138
-24.4632639047837
-118.01937895780881
-236.77119096665905
-282.96330205233846
-287.74853131914244
-328.1788357366293
-347.7103837644007
-301.90890363927673
-248.6854352635996
-220.4623483634699
-196.73151750972764
-151.22301060502022
-95.55809872587167
-67.33501182574197
-56.59266041046769
-35.20561532005799
-21.728847180895706
-23.779659723811704
-16.260013733119706
-5.0293736171511405
-8.252079041733426
-9.033340962844282
-0.14648661020828566
-0.6347753109025711
-5.420004577706569
-0.04882887006942855
2.5879301136797133
-2.783245593957427
-1.2207217517357138
3.2715342946517127
-0.34180209048599985
-2.0019836728465705
2.490272373540856
1.513694972152285
-1.9043259327077133
1.0254062714579995
2.392614633401999
-1.1230640115968566
-0.24414435034714274
2.490272373540856
0.14648661020828566
-0.9277485313191425
1.7090104524299992
1.0254062714579995
-1.1230640115968566
0.6347753109025711
17.236591134508277
55.51842526894026
91.26115815976196
131.98443579766536
185.4032196536202
173.48897535667965
109.03486686503395
124.8554207675288
198.8799877927825
212.84504463263906
203.66521705958647
227.20073243305103
221.43892576485848
178.46952010376134
161.57473105973907
173.48897535667965
167.82482642862593
122.51163500419624
77.58907454032196
70.94834821087969
63.91699092088197
32.6665140764477
21.338216220340275
28.27191577019913
14.306858930342566
2.0996414129854277
11.963073167009995
9.912260624093996
-3.1738765545128556
2.392614633401999
8.154421301594567
-2.392614633401999
-2.783245593957427
5.908293278400855
0.24414435034714274
-4.931715877012284
2.68558785381857
2.68558785381857
-4.443427176317998
-0.24414435034714274
3.5645075150682843
-2.5879301136797133
-2.5879301136797133
2.9785610742351416
-0.24414435034714274
-3.36919203479057
1.416037232013428
1.3183794918745708
-18.60379949645228
-52.295719844357976
-57.56923781185626
-31.592278934920273
-24.4632639047837
-28.95551995117113
-6.201266498817426
33.44777599755856
55.61608300907912
43.40886549172198
20.55695429922942
15.869382772564279
14.990463111314565
5.127031357289998
3.5645075150682843
8.252079041733426
2.8809033340962844
-11.865415426871138
-28.857862211032273
-29.443808651865414
-36.0845349813077
-99.95269703212024
-168.60608834973678
-190.96971084153506
-228.4702830548562
-275.3459983215076
-266.5568017090105
-246.4393072404059
-262.748149843595
-273.8811322194247
-244.97444113832304
-185.20790417334248
-136.18371862363622
-116.26153963530938
-86.47592889295797
-48.19409475852598
-39.893186846723125
-37.74471656366827
-17.13893339436942
-10.400549324788281
-17.920195315480278
-8.44739452201114
0.9277485313191425
-7.275501640344854
-6.787212939650568
3.36919203479057
-0.7324330510414282
-5.810635538261997
2.2949568932631417
3.076218814373999
-3.9551384756237127
-0.04882887006942855
4.345769436179141
-1.7090104524299992
-2.0996414129854277
3.5645075150682843
0.6347753109025711
-2.68558785381857
2.0996414129854277
2.392614633401999
-2.0996414129854277
0.24414435034714274
2.8809033340962844
-0.8300907911802854
-0.9277485313191425
2.68558785381857
0.8300907911802854
-1.3183794918745708
16.260013733119706
75.14763103685054
135.7930876630808
129.54299229419394
115.9685664148928
163.3325703822385
183.54772259098192
154.15274280918592
166.16464484626536
190.96971084153506
166.84824902723736
156.3012130922408
180.9109636072328
170.94987411306934
137.06263828488594
129.25001907377737
127.98046845197223
111.18333714808881
92.92133974212253
93.11665522240024
102.7847714961471
82.96025024795911
45.85030899519341
42.33463035019455
46.72922865644312
21.045242999923705
8.545052262149996
20.947585259784848
11.963073167009995
-3.076218814373999
7.568474860761425
10.205233844510566
-4.443427176317998
-0.7324330510414282
8.545052262149996
-1.7090104524299992
-5.127031357289998
5.420004577706569
1.8066681925688564
-6.005951018539712
1.6113527122911422
4.052796215762569
-4.443427176317998
-1.7090104524299992
4.345769436179141
-1.8066681925688564
-3.7598229953459983
2.8809033340962844
0.7324330510414282
-3.9551384756237127
0.7324330510414282
2.197299153124285
-2.9785610742351416
-1.2207217517357138
2.490272373540856
-1.2207217517357138
-2.392614633401999
1.6113527122911422
0.24414435034714274
-2.68558785381857
0.24414435034714274
1.2207217517357138
-2.0019836728465705
-0.9277485313191425
1.3183794918745708
-0.9277485313191425
-1.6113527122911422
0.9277485313191425
0.04882887006942855
-6.982528419928283
-17.041275654230564
-23.48668650339513
-60.30365453574426
-166.5552758068208
-260.8926527809567
-266.65445944914933
-266.9474326695659
-307.96368352788585
-317.9247730220493
-286.2836652170596
-252.49408712901504
-224.17334248874647
-188.52826733806364
-132.27740901808195
-82.56961928740368
-65.28419928282597
-51.123826962691695
-28.66254673075456
-22.803082322423133
-23.48668650339513
-11.08415350576028
-4.931715877012284
-10.400549324788281
-6.005951018539712
1.1230640115968566
-3.5645075150682843
-4.834058136873426
2.197299153124285
0.6347753109025711
-3.7598229953459983
0.9277485313191425
2.783245593957427
-2.0019836728465705
-0.34180209048599985
3.1738765545128556
-0.34180209048599985
-1.513694972152285
2.392614633401999
1.1230640115968566
-1.7090104524299992
1.1230640115968566
2.0996414129854277
-0.9277485313191425
0.04882887006942855
2.2949568932631417
0.04882887006942855
-0.6347753109025711
1.8066681925688564
1.0254062714579995
-0.7324330510414282
7.080186160067139
52.588693064774546
131.10551613641564
169.6803234912642
187.25871671625848
258.4512092774853
307.76836804760813
284.33051041428246
278.37338826581214
293.7056534676127
261.1856260013733
200.05188067444877
154.4457160296025
134.03524834058138
116.26153963530938
75.63591973754482
44.580758373388264
42.822919050888835
31.787594415197987
12.549019607843137
14.892805371175708
17.13893339436942
3.36919203479057
1.8066681925688564
9.619287403677424
2.392614633401999
-3.2715342946517127
4.443427176317998
3.5645075150682843
-4.052796215762569
0.34180209048599985
4.052796215762569
-2.5879301136797133
-2.2949568932631417
3.36919203479057
-0.34180209048599985
-3.466849774929427
1.6113527122911422
1.3183794918745708
-3.1738765545128556
-0.14648661020828566
2.197299153124285
-1.9043259327077133
-2.5879301136797133
-0.8300907911802854
-3.1738765545128556
-20.361638818951704
-52.19806210421912
-53.467612726024264
-40.67444876783398
-79.63988708323797
-105.7145037003128
-62.35446707866026
-29.053177691309987
-21.826504921034562
17.82253757534142
79.05394064240483
110.9880216678111
87.94079499504082
44.580758373388264
31.9829098954757
30.908674753948272
13.623254749370565
7.763790341039139
15.576409552147707
7.666132600900283
-1.3183794918745708
6.103608758678568
6.201266498817426
-3.2715342946517127
0.24414435034714274
5.517662317845426
-24.17029068436713
-103.95666437781338
-180.4226749065385
-195.07133592736704
-204.05584802014192
-257.0840009155413
-287.26024261844816
-276.12726024261843
-279.838254367895
-274.95536736095215
-218.02090485999847
-153.66445410849164
-130.61722743572136
-135.20714122224766
-119.28892957961395
-71.33897917143511
-44.28778515297169
-44.873731593804834
-27.881284809643702
-10.400549324788281
-17.724879835202564
-15.967040512703136
-0.34180209048599985
-3.662165255207141
-10.498207064927138
0.43945983062485694
2.8809033340962844
-6.39658197909514
-1.6113527122911422
5.224689097428855
-2.197299153124285
-3.36919203479057
4.443427176317998
1.1230640115968566
-3.8574807354848555
2.197299153124285
3.1738765545128556
-2.8809033340962844
-0.04882887006942855
3.8574807354848555
-0.9277485313191425
-1.7090104524299992
3.1738765545128556
1.0254062714579995
-2.0996414129854277
1.7090104524299992
16.064698252841993
40.86976424811169
51.02616922255284
70.16708628976883
132.47272449835967
166.7505912870985
160.98878461890592
195.46196688792247
226.41947051194018
190.57907988097963
162.8442816815442
171.63347829404134
147.41435873960478
114.79667353322652
125.83199816891737
126.0273136491951
98.48783093003739
99.65972381170367
113.9177538719768
100.7339589532311
82.47196154726483
73.87808041504539
70.75303273060197
67.82330052643626
51.90508888380255
49.658960860608836
60.30365453574426
36.475165941863125
10.888838025482567
24.853894865339132
25.92813000686656
1.416037232013428
4.345769436179141
16.357671473258563
0.43945983062485694
-5.127031357289998
9.619287403677424
3.9551384756237127
-7.763790341039139
3.076218814373999
6.494239719233997
-6.005951018539712
-2.0996414129854277
6.6895551995117115
-2.2949568932631417
-5.224689097428855
4.443427176317998
1.2207217517357138
-12.939650568398566
-21.14290074006256
-18.799114976729992
-13.720912489509422
-13.916227969787137
-13.13496604867628
-11.670099946593423
-28.369573510337986
-54.15121690699626
-43.311207751583126
-17.041275654230564
-33.3501182574197
-47.412832837415124
-24.853894865339132
-18.701457236591136
-21.826504921034562
10.79118028534371
66.65140764476998
97.21828030823224
71.72961013199054
32.764171816586554
28.760204470893417
26.807049668116274
7.763790341039139
6.982528419928283
15.47875181200885
4.052796215762569
-2.392614633401999
7.568474860761425
4.638742656595713
-19.18974593728542
-48.78004119935912
-64.50293736171511
-86.08529793240254
-161.2817578393225
-241.6540779736019
-258.9394979781796
-265.3849088273442
-294.193942168307
-289.7016861219196
-248.6854352635996
-218.80216678110932
-213.52864881361106
-200.6378271152819
-145.85183489738307
-86.1829556725414
-68.50690470740825
-56.983291371023114
-28.95551995117113
-21.826504921034562
-27.1976806286717
-12.353704127565424
-2.68558785381857
-11.963073167009995
-8.154421301594567
3.076218814373999
-3.1738765545128556
-6.982528419928283
2.9785610742351416
2.0019836728465705
-5.322346837567712
0.6347753109025711
4.345769436179141
-2.8809033340962844
-1.6113527122911422
4.443427176317998
-0.04882887006942855
-2.783245593957427
3.076218814373999
2.0996414129854277
-2.5879301136797133
0.9277485313191425
3.1738765545128556
-1.416037232013428
-0.7324330510414282
2.9785610742351416
0.14648661020828566
-1.416037232013428
2.197299153124285
1.513694972152285
-1.416037232013428
0.7324330510414282
24.4632639047837
72.12024109254597
91.94476234073396
101.22224765392538
166.35996032654307
216.3607232776379
201.1261158159762
211.18486305027847
247.02525368123904
225.34523537041275
189.3095292591745
193.41115434500648
178.86015106431677
135.59777218280308
122.70695048447395
136.96498054474708
131.0078583962768
94.97215228503853
68.31158922713054
75.83123521782254
73.78042267490653
37.74471656366827
21.338216220340275
30.420386053253985
16.55298695353628
1.1230640115968566
12.256046387426567
12.060730907148852
-3.5645075150682843
1.513694972152285
9.71694514381628
-2.0996414129854277
-4.150453955901427
6.494239719233997
1.2207217517357138
-5.908293278400855
2.5879301136797133
3.7598229953459983
-5.0293736171511405
-1.0254062714579995
4.443427176317998
-2.392614633401999
-3.36919203479057
3.36919203479057
0.14648661020828566
-4.150453955901427
1.2207217517357138
2.0019836728465705
-3.2715342946517127
-0.7324330510414282
2.5879301136797133
-25.24452582589456
-102.00350957503625
-156.69184405279623
-112.94117647058823
-49.75661860074769
-43.70183871213855
-21.24055848020142
43.604180971999696
83.6438544289311
81.69069962615396
64.20996414129854
57.95986877241169
56.983291371023114
34.717326619363696
15.283436331731137
20.263981078812847
16.55298695353628
2.197299153124285
5.71297779812314
10.595864805065995
0.04882887006942855
-1.513694972152285
6.494239719233997
1.3183794918745708
-31.103990234225986
-96.43701838712138
-150.24643320363165
-180.12970168612193
-238.2360570687419
-286.9672693980316
-279.44762340733956
-280.32654306858933
-305.52224002441443
-297.12367437247275
-245.46272983901733
-179.4460975051499
-136.6720073243305
-115.77325093461509
-78.37033646143283
-44.873731593804834
-42.62760357061112
-34.717326619363696
-13.525597009231708
-13.232623788815136
-18.11551079575799
-4.834058136873426
-0.43945983062485694
-9.42397192339971
-3.8574807354848555
4.150453955901427
-3.1738765545128556
-4.541084916456855
3.9551384756237127
0.8300907911802854
-4.443427176317998
2.0019836728465705
3.466849774929427
-3.076218814373999
-0.24414435034714274
4.150453955901427
-0.8300907911802854
-1.9043259327077133
3.2715342946517127
1.0254062714579995
-2.392614633401999
1.6113527122911422
2.5879301136797133
-1.416037232013428
0.04882887006942855
25.63515678644999
78.17502098115511
98.78080415045396
86.28061341268025
124.8554207675288
176.41870756084535
162.6489662012665
155.3246356908522
192.4345769436179
193.41115434500648
174.36789501792936
199.9542229343099
216.1654077973602
186.57511253528648
166.65293354695964
163.43022812237734
140.28534370946824
104.8355840390631
72.41321431296254
49.85427634088655
40.772106507972836
35.20561532005799
45.55733577477684
61.08491645685512
40.57679102769512
15.185778591592278
26.123445487144274
28.174258030060273
4.638742656595713
4.541084916456855
16.260013733119706
2.490272373540856
-4.736400396734569
8.642710002288853
4.931715877012284
-6.884870679789426
2.0996414129854277
6.591897459372854
-4.931715877012284
-2.5879301136797133
6.103608758678568
-1.3183794918745708
-5.127031357289998
3.662165255207141
1.7090104524299992
-9.130998702983138
-11.47478446631571
-8.642710002288853
-23.87731746395056
-74.5616845960174
-115.38261997405966
-105.32387273975738
-105.42153047989623
-137.8439002059968
-124.07415884641794
-79.24925612268254
-80.51880674448768
-84.52277409018082
-47.998779278248264
-26.90470740825513
-13.623254749370565
50.635538261997404
129.1523613336385
157.6684214541848
139.69939726863507
120.94911116197451
123.39055466544595
104.34729533836881
54.7371633478294
36.57282368200198
42.13931486991684
21.728847180895706
6.591897459372854
18.506141756313422
13.81857022964828
-4.834058136873426
-1.513694972152285
4.248111696040284
-33.93606469825284
-129.73830777447165
-222.5131609063859
-252.7870603494316
-266.16617074845504
-298.68619821469446
-299.662775616083
-264.5059891660945
-244.09552147707333
-249.07606622415503
-238.4313725490196
-176.22339208056763
-104.54261081864652
-79.93286030365454
-66.84672312504769
-35.69390402075227
-25.537499046311133
-31.2993057145037
-15.967040512703136
-3.8574807354848555
-13.13496604867628
-9.912260624093996
2.8809033340962844
-2.9785610742351416
-7.959105821316854
2.5879301136797133
2.392614633401999
-5.908293278400855
0.04882887006942855
4.834058136873426
-2.783245593957427
-2.2949568932631417
4.638742656595713
0.14648661020828566
-3.2715342946517127
2.9785610742351416
2.68558785381857
-2.68558785381857
0.6347753109025711
3.5645075150682843
-1.1230640115968566
-0.8300907911802854
3.1738765545128556
0.34180209048599985
-1.7090104524299992
2.0996414129854277
1.8066681925688564
-1.416037232013428
0.7324330510414282
10.400549324788281
24.072632944228275
26.22110322728313
46.72922865644312
132.76569771877624
208.1574731059739
207.86449988555734
218.4115358205539
258.0605783169299
248.58777752346074
227.4937056534676
259.4277866788739
299.2721446555276
279.6429388876173
197.61043717097735
111.47631036850538
62.35446707866026
40.479133287556266
37.64705882352941
51.90508888380255
53.467612726024264
27.588311589227132
13.916227969787137
20.361638818951704
11.767757686732281
0.24414435034714274
7.763790341039139
8.642710002288853
-2.392614633401999
0.34180209048599985
6.6895551995117115
-1.1230640115968566
-3.36919203479057
4.248111696040284
1.1230640115968566
-4.345769436179141
1.416037232013428
2.783245593957427
-3.466849774929427
-1.1230640115968566
2.9785610742351416
-1.513694972152285
-2.68558785381857
2.0996414129854277
0.24414435034714274
-11.181811245899137
-24.4632639047837
-23.48668650339513
-17.236591134508277
-31.00633249408713
-40.772106507972836
-31.68993667505913
-48.68238345922026
-78.6633096818494
-57.178606851300835
-26.318760967421987
-41.5533684290837
-33.838406958113985
27.1976806286717
78.37033646143283
86.08529793240254
63.819333180743115
49.75661860074769
49.75661860074769
31.2993057145037
11.963073167009995
17.52956435492485
16.357671473258563
1.513694972152285
3.8574807354848555
10.400549324788281
0.24414435034714274
-2.5879301136797133
6.103608758678568
2.0996414129854277
-21.045242999923705
-59.71770809491112
-97.02296482795452
-142.43381399252308
-230.22812237735562
-303.2761120012207
-304.6433203631647
-301.3229571984436
-324.6631570916304
-319.87792782482643
-267.04509040970476
-192.2392614633402
-139.89471274891278
-115.18730449378195
-79.63988708323797
-46.72922865644312
-42.62760357061112
-34.81498435950255
-14.404516670481422
-13.037308308537423
-17.82253757534142
-5.810635538261997
-0.7324330510414282
-8.838025482566568
-4.150453955901427
3.9551384756237127
-2.197299153124285
-4.248111696040284
3.36919203479057
0.8300907911802854
-4.443427176317998
1.3183794918745708
3.466849774929427
-2.0019836728465705
0.04882887006942855
3.8574807354848555
-0.7324330510414282
-2.2949568932631417
2.490272373540856
0.9277485313191425
-2.0996414129854277
1.6113527122911422
2.783245593957427
-1.3183794918745708
2.392614633401999
35.010299839780274
84.81574731059739
79.73754482337682
34.717326619363696
58.936446173800256
123.68352788586252
131.2031738765545
128.07812619211109
158.93797207598993
152.29724574654765
123.09758144502938
145.85183489738307
167.4341954680705
143.60570687418937
137.55092698558022
151.41832608529793
130.71488517586022
106.8863965819791
115.9685664148928
118.80064087891967
100.24567025253681
91.55413138017853
108.44892042420081
118.31235217822538
84.13214312962539
48.68238345922026
57.764553292133975
58.057526512550545
22.998397802700847
14.404516670481422
27.49065384908827
10.693522545204852
-2.68558785381857
12.45136186770428
9.912260624093996
-6.591897459372854
2.2949568932631417
9.81460288395514
-4.345769436179141
-4.052796215762569
7.763790341039139
-0.14648661020828566
-6.6895551995117115
4.052796215762569
3.36919203479057
-6.103608758678568
-0.04882887006942855
4.834058136873426
-3.662165255207141
-3.1738765545128556
4.248111696040284
-0.537117570763714
-4.541084916456855
2.197299153124285
1.8066681925688564
-4.052796215762569
-0.14648661020828566
2.783245593957427
-2.490272373540856
-2.0996414129854277
2.490272373540856
-0.43945983062485694
-2.8809033340962844
1.2207217517357138
0.9277485313191425
-2.68558785381857
-0.24414435034714274
1.6113527122911422
-1.6113527122911422
-1.416037232013428
1.416037232013428
-0.43945983062485694
-2.0019836728465705
0.537117570763714
0.43945983062485694
-10.302891584649425
-40.28381780727855
-83.93682764934768
-146.63309681849393
-255.91210803387503
-354.9370565346761
-363.82391088731214
-334.23361562523843
-326.12802319371326
-309.916838330663
-256.30273899443046
-177.98123140306706
-116.74982833600366
-88.62439917601282
-65.28419928282597
-41.358052948805984
-33.3501182574197
-28.076600289921416
-14.697489890897993
-10.009918364232853
-12.549019607843137
-6.6895551995117115
-1.513694972152285
-5.224689097428855
-4.052796215762569
1.6113527122911422
-0.43945983062485694
-2.9785610742351416
1.0254062714579995
1.1230640115968566
-2.2949568932631417
0.04882887006942855
2.490272373540856
-0.34180209048599985
-0.24414435034714274
2.197299153124285
0.24414435034714274
-1.416037232013428
1.1230640115968566
1.3183794918745708
-0.6347753109025711
0.9277485313191425
2.0996414129854277
-0.14648661020828566
-0.34180209048599985
1.416037232013428
0.34180209048599985
-0.43945983062485694
1.1230640115968566
1.416037232013428
0.04882887006942855
11.08415350576028
78.17502098115511
199.85656519417105
266.65445944914933
260.8926527809567
289.0180819409476
324.6631570916304
296.7330434119173
261.8692301823453
249.3690394445716
223.39208056763562
175.73510337987335
120.26550698100252
87.15953307392996
75.63591973754482
51.416800183108265
28.564888990615703
28.564888990615703
23.682001983672848
8.154421301594567
8.44739452201114
12.646677347981994
2.783245593957427
-0.34180209048599985
6.6895551995117115
2.68558785381857
-3.36919203479057
2.392614633401999
3.466849774929427
-3.076218814373999
-0.7324330510414282
3.466849774929427
-1.513694972152285
-2.68558785381857
2.2949568932631417
0.24414435034714274
-3.076218814373999
0.7324330510414282
1.513694972152285
-2.392614633401999
-0.8300907911802854
1.7090104524299992
-4.443427176317998
-35.889219501029984
-94.48386358434425
-136.86732280460822
-172.41474021515222
-231.30235751888304
-239.99389639124132
-189.89547570000764
-180.81330586709393
-187.06340123598076
-135.7930876630808
-84.91340505073624
-58.44815747310597
15.381094071869994
116.94514381628137
177.1999694819562
213.6263065537499
247.61120012207218
260.3067063401236
224.36865796902418
142.92210269321737
86.57358663309682
76.61249713893339
54.54184786755169
26.318760967421987
29.053177691309987
28.174258030060273
7.373159380483711
6.39658197909514
15.674067292286564
-2.2949568932631417
-46.240939955748836
-97.80422674906538
-130.61722743572136
-162.1606775005722
-224.46631570916304
-263.2364385442893
-259.4277866788739
-281.88906691081104
-318.803692683299
-304.0573739223316
-242.24002441443503
-179.34843976501105
-149.07454032196537
-127.98046845197223
-80.81177996490425
-48.09643701838712
-49.17067215991455
-35.303273060196844
-12.84199282825971
-17.43190661478599
-19.385061417563133
-2.0996414129854277
-1.6113527122911422
-11.377126726176853
-2.0019836728465705
4.052796215762569
-6.005951018539712
-3.7598229953459983
5.615320057984283
-0.537117570763714
-4.443427176317998
3.7598229953459983
2.490272373540856
-4.345769436179141
0.8300907911802854
4.150453955901427
-2.392614633401999
-1.0254062714579995
4.541084916456855
0.14648661020828566
-2.5879301136797133
2.392614633401999
1.6113527122911422
-2.392614633401999
1.0254062714579995
3.2715342946517127
-0.8300907911802854
-0.537117570763714
14.990463111314565
45.45967803463798
62.15915159838254
73.19447623407339
141.9455252918288
224.7592889295796
226.71244373235675
211.96612497138932
244.3884946974899
243.11894407568474
203.5675593194476
203.95819028000304
209.91531242847333
173.29365987640193
138.23453116655222
127.39452201113909
118.89829861905852
98.39017318989853
70.75303273060197
65.08888380254825
68.01861600671397
39.99084458686198
16.748302433813993
25.342183566033416
19.87335011825742
1.1230640115968566
7.177843900205997
13.525597009231708
-1.0254062714579995
-2.0996414129854277
8.935683222705425
1.2207217517357138
-5.71297779812314
4.150453955901427
3.8574807354848555
-5.517662317845426
-0.04882887006942855
4.931715877012284
-3.1738765545128556
-3.076218814373999
4.052796215762569
-0.24414435034714274
-4.345769436179141
2.0019836728465705
1.9043259327077133
-3.7598229953459983
-0.34180209048599985
2.783245593957427
-2.2949568932631417
-2.197299153124285
2.2949568932631417
-0.34180209048599985
-2.783245593957427
1.0254062714579995
0.9277485313191425
-2.5879301136797133
-0.34180209048599985
1.513694972152285
-1.513694972152285
-1.416037232013428
1.3183794918745708
-0.34180209048599985
-1.9043259327077133
0.43945983062485694
0.43945983062485694
-1.7090104524299992
-0.24414435034714274
0.8300907911802854
-1.1230640115968566
-1.0254062714579995
0.6347753109025711
-0.34180209048599985
-1.3183794918745708
0.14648661020828566
0.14648661020828566
-33.545433737697415
-133.83993286030366
-233.25551232166018
-271.9279774166476
-316.752880140383
-373.8826581216144
-369.19508659494926
-317.82711528191044
-263.431754024567
-213.91927977416648
-166.94590676737621
-113.52712291142137
-73.48744945448996
-60.2059967956054
-45.654993514915695
-25.830472266727703
-21.826504921034562
-20.752269779507134
-8.838025482566568
-4.834058136873426
-9.521629663538567
-4.638742656595713
0.6347753109025711
-3.8574807354848555
-3.5645075150682843
2.2949568932631417
0.24414435034714274
-2.5879301136797133
1.513694972152285
1.7090104524299992
-2.392614633401999
0.04882887006942855
2.68558785381857
-0.537117570763714
-0.537117570763714
2.783245593957427
0.7324330510414282
-1.416037232013428
1.0254062714579995
1.3183794918745708
-1.0254062714579995
0.43945983062485694
2.392614633401999
0.24414435034714274
-0.24414435034714274
1.513694972152285
0.43945983062485694
-0.6347753109025711
1.0254062714579995
3.8574807354848555
7.959105821316854
18.310826276035705
72.99916075379568
178.5671778439002
234.81803616388189
222.80613412680248
248.09948882276646
286.38132295719845
260.11139085984587
232.7672236209659
242.14236667429617
232.2789349202716
195.36430914778362
155.8129243915465
130.03128099488822
113.9177538719768
78.46799420157168
43.99481193255512
39.893186846723125
33.44777599755856
13.720912489509422
12.158388647287708
17.334248874647134
5.517662317845426
0.24414435034714274
8.44739452201114
4.345769436179141
-3.5645075150682843
2.783245593957427
4.736400396734569
-3.2715342946517127
-1.1230640115968566
4.248111696040284
-1.3183794918745708
-3.2715342946517127
2.783245593957427
0.8300907911802854
-3.5645075150682843
0.537117570763714
2.0019836728465705
-2.68558785381857
-1.1230640115968566
2.197299153124285
-1.0254062714579995
-3.8574807354848555
-3.466849774929427
-4.638742656595713
-12.939650568398566
-27.68596932936599
-26.318760967421987
-2.8809033340962844
18.60379949645228
22.510109102006563
11.767757686732281
4.541084916456855
6.298924238956283
3.9551384756237127
-0.14648661020828566
2.197299153124285
2.9785610742351416
-0.9277485313191425
-0.34180209048599985
2.0019836728465705
-0.43945983062485694
-1.513694972152285
1.1230640115968566
0.34180209048599985
-1.8066681925688564
0.04882887006942855
0.7324330510414282
-20.84992751964599
-85.98764019226367
-149.4651712825208
-161.86770428015564
-186.7704280155642
-253.66598001068132
-279.154650186923
-268.60761425192646
-291.6548409246967
-310.9910734721904
-271.7326619363699
-201.41908903639276
-149.2698558022431
-127.00389105058366
-101.90585183489738
-62.745098039215684
-43.70183871213855
-40.67444876783398
-24.17029068436713
-11.767757686732281
-16.650644693675137
-12.74433508812085
-1.6113527122911422
-4.931715877012284
-7.861448081177996
0.6347753109025711
1.2207217517357138
-4.736400396734569
-0.34180209048599985
3.076218814373999
-2.490272373540856
-1.9043259327077133
3.36919203479057
0.24414435034714274
-2.0019836728465705
2.5879301136797133
2.0996414129854277
-2.0996414129854277
0.43945983062485694
2.5879301136797133
-1.0254062714579995
-0.6347753109025711
2.783245593957427
0.7324330510414282
-1.1230640115968566
1.513694972152285
1.2207217517357138
-1.1230640115968566
0.537117570763714
23.87731746395056
68.31158922713054
75.14763103685054
62.9404135194934
110.79270618753338
156.69184405279623
144.6799420157168
159.2309452964065
203.3722438391699
194.2900740062562
171.63347829404134
188.91889829861907
187.6493476768139
161.57473105973907
170.85221637293049
194.77836270695047
180.4226749065385
135.9884031433585
105.0308995193408
106.98405432211796
97.99954222934309
54.053559166857404
32.178225375753414
38.818951705195694
22.803082322423133
5.0293736171511405
15.576409552147707
14.892805371175708
-2.197299153124285
2.490272373540856
10.888838025482567
-1.416037232013428
-3.9551384756237127
7.177843900205997
1.7090104524299992
-15.47875181200885
-26.025787747005417
-24.4632639047837
-8.642710002288853
13.81857022964828
21.43587396047913
-12.45136186770428
-89.69863431754024
-145.5588616769665
-117.23811703669794
-66.74906538490883
-64.01464866102083
-55.420767528801406
-25.537499046311133
-35.010299839780274
-51.02616922255284
-23.389028763256274
-2.197299153124285
-1.2207217517357138
30.518043793392845
72.5108720531014
78.76096742198825
68.99519340810254
76.90547035934996
103.07774471656367
100.83161669336995
52.49103532463569
27.68596932936599
37.64705882352941
21.92416266117342
2.197299153124285
14.990463111314565
15.771725032425422
-3.5645075150682843
1.513694972152285
11.963073167009995
-1.7090104524299992
-7.959105821316854
-0.7324330510414282
-19.775692378118563
-90.67521171892882
-189.89547570000764
-243.70489051651788
-247.51354238193332
-272.6115815976196
-301.22529945830473
-289.6040283817807
-271.34203097581445
-263.9200427252613
-248.39246204318303
-200.4425116350042
-124.36713206683451
-79.73754482337682
-71.8272678721294
-47.90112153810941
-23.974975204089418
-28.564888990615703
-24.65857938506142
-5.615320057984283
-7.470817120622568
-14.013885709925994
-1.416037232013428
2.2949568932631417
-7.568474860761425
-2.5879301136797133
4.931715877012284
-2.9785610742351416
-4.443427176317998
4.443427176317998
1.2207217517357138
-4.248111696040284
2.392614633401999
3.662165255207141
-3.2715342946517127
-0.537117570763714
4.052796215762569
-0.9277485313191425
-1.8066681925688564
3.5645075150682843
1.3183794918745708
-2.392614633401999
1.513694972152285
2.392614633401999
-1.7090104524299992
0.04882887006942855
3.076218814373999
0.04882887006942855
-0.537117570763714
33.838406958113985
138.33218890669107
246.82993820096132
274.46707866025787
285.990691996643
321.9287403677424
302.6901655603876
244.77912565804533
226.51712825207903
230.32578011749447
206.88792248416877
152.00427252613107
105.12855725947966
90.38223849851225
73.58510719462882
41.74868390936141
30.22507057297627
31.494621194781413
16.650644693675137
6.787212939650568
13.623254749370565
9.42397192339971
-0.9277485313191425
4.052796215762569
6.982528419928283
-1.8066681925688564
-1.1230640115968566
5.0293736171511405
-0.24414435034714274
-3.5645075150682843
2.68558785381857
1.6113527122911422
-3.662165255207141
0.24414435034714274
2.5879301136797133
-2.490272373540856
-1.7090104524299992
2.392614633401999
-0.7324330510414282
-2.5879301136797133
1.3183794918745708
0.6347753109025711
-2.5879301136797133
-0.04882887006942855
1.416037232013428
-1.7090104524299992
-1.1230640115968566
1.3183794918745708
-0.6347753109025711
-1.8066681925688564
0.6347753109025711
0.24414435034714274
-1.7090104524299992
-0.04882887006942855
0.7324330510414282
-1.1230640115968566
-0.8300907911802854
0.6347753109025711
-0.537117570763714
-1.2207217517357138
0.24414435034714274
0.04882887006942855
-1.1230640115968566
-0.24414435034714274
0.24414435034714274
-0.9277485313191425
-0.6347753109025711
0.24414435034714274
-0.43945983062485694
-6.298924238956283
-16.650644693675137
-28.95551995117113
-85.49935149156939
-206.98558022430763
-292.04547188525214
-297.0260166323339
-315.1903562981613
-343.6087586785687
-312.5535973144122
-257.47463187609674
-221.34126802471962
-193.70412756542305
-156.20355535210194
-103.07774471656367
-65.8701457236591
-56.1043717097734
-40.38147554741741
-21.24055848020142
-20.752269779507134
-19.48271915770199
-6.591897459372854
-5.0293736171511405
-9.912260624093996
-2.783245593957427
1.6113527122911422
-4.345769436179141
-2.8809033340962844
2.8809033340962844
-0.9277485313191425
-3.2715342946517127
2.2949568932631417
1.8066681925688564
-2.197299153124285
1.2207217517357138
2.9785610742351416
-1.513694972152285
-0.8300907911802854
2.5879301136797133
0.14648661020828566
-1.2207217517357138
2.197299153124285
1.7090104524299992
-1.1230640115968566
0.7324330510414282
1.9043259327077133
-0.6347753109025711
-0.24414435034714274
9.912260624093996
26.807049668116274
29.150835431448844
31.9829098954757
88.91737239642939
154.05508506904707
140.67597467002366
122.12100404364081
177.29762722209506
224.46631570916304
238.9196612497139
279.05699244678414
287.26024261844816
206.00900282291906
114.99198901350424
61.5732051575494
15.967040512703136
8.349736781872283
60.694285496299685
105.12855725947966
104.54261081864652
91.65178912031739
98.29251544975968
109.42549782558937
84.3274586099031
46.14328221560998
46.533913176165406
49.658960860608836
20.752269779507134
10.10757610437171
23.19371328297856
11.181811245899137
-3.1738765545128556
9.326314183260854
10.009918364232853
-5.420004577706569
0.24414435034714274
9.033340962844282
-2.68558785381857
-4.736400396734569
6.39658197909514
1.0254062714579995
-6.298924238956283
2.490272373540856
3.7598229953459983
-5.127031357289998
-1.0254062714579995
4.541084916456855
-2.490272373540856
-3.5645075150682843
3.466849774929427
0.14648661020828566
-4.150453955901427
1.3183794918745708
2.0996414129854277
-3.36919203479057
-0.8300907911802854
2.5879301136797133
-1.7090104524299992
-2.2949568932631417
2.0019836728465705
0.04882887006942855
-2.68558785381857
0.7324330510414282
1.1230640115968566
-2.2949568932631417
-0.6347753109025711
1.416037232013428
-1.2207217517357138
-9.912260624093996
-24.560921644922562
-44.48310063324941
-106.78873884184024
-211.0872053101396
-259.52544441901273
-247.8065156023499
-270.0724803540093
-298.88151369497217
-277.9827573052567
-254.93553063248646
-247.41588464179446
-223.39208056763562
-175.05149919890135
-117.04280155642023
-83.6438544289311
-72.90150301365682
-48.877698939497975
-27.002365148393988
-27.97894254978256
-22.705424582284277
-7.080186160067139
-8.154421301594567
-12.353704127565424
-2.197299153124285
0.537117570763714
-6.591897459372854
-2.0019836728465705
3.8574807354848555
-2.2949568932631417
-3.1738765545128556
3.36919203479057
0.6347753109025711
-3.36919203479057
1.8066681925688564
2.8809033340962844
-2.0019836728465705
0.24414435034714274
3.36919203479057
-0.7324330510414282
-1.416037232013428
2.5879301136797133
0.9277485313191425
-1.416037232013428
1.8066681925688564
2.197299153124285
-1.1230640115968566
0.04882887006942855
2.0996414129854277
-0.24414435034714274
-0.537117570763714
1.9043259327077133
0.8300907911802854
-0.7324330510414282
1.1230640115968566
1.3183794918745708
-0.6347753109025711
0.24414435034714274
26.514076447699704
86.76890211337454
115.57793545433738
108.44892042420081
157.08247501335165
221.8295567254139
214.50522621499962
202.78629739833676
228.56794079499505
217.63027389944304
186.18448157473105
198.97764553292134
216.06775005722133
192.4345769436179
150.44174868390937
127.00389105058366
125.44136720836194
103.37071793698024
57.56923781185626
40.08850232700084
41.358052948805984
21.826504921034562
9.228656443121995
18.310826276035705
12.549019607843137
-1.1230640115968566
5.615320057984283
9.326314183260854
-2.392614633401999
-1.3183794918745708
6.884870679789426
-0.24414435034714274
-4.541084916456855
3.7598229953459983
2.197299153124285
-4.736400396734569
0.537117570763714
3.5645075150682843
-3.1738765545128556
-2.0996414129854277
3.2715342946517127
-5.224689097428855
-34.424353398947126
-65.6748302433814
-54.54184786755169
-25.830472266727703
-41.065079728389414
-51.709773403524835
-24.853894865339132
-20.361638818951704
-30.420386053253985
-7.959105821316854
20.45929655909056
24.365606164644845
24.267948424505988
42.13931486991684
66.94438086518655
62.45212481879911
30.029755092698558
18.017853055619135
23.58434424353399
11.08415350576028
1.416037232013428
10.693522545204852
8.252079041733426
-3.076218814373999
2.392614633401999
6.982528419928283
-2.5879301136797133
-2.392614633401999
5.224689097428855
-0.04882887006942855
-24.756237125200276
-68.01861600671397
-102.29648279545282
-136.6720073243305
-204.25116350041964
-246.14633401998933
-239.40794995040818
-259.91607537956816
-295.4634927901121
-286.0883497367819
-255.3261615930419
-228.37262531471734
-203.17692835889218
-167.6295109483482
-108.44892042420081
-66.06546120393683
-59.62005035477226
-43.99481193255512
-20.45929655909056
-21.43587396047913
-22.21713588158999
-6.005951018539712
-3.9551384756237127
-12.060730907148852
-3.466849774929427
2.8809033340962844
-5.420004577706569
-3.8574807354848555
4.541084916456855
-0.7324330510414282
-4.638742656595713
2.8809033340962844
2.392614633401999
-3.7598229953459983
0.7324330510414282
4.052796215762569
-1.7090104524299992
-1.3183794918745708
3.5645075150682843
0.14648661020828566
-2.197299153124285
2.2949568932631417
2.0019836728465705
-1.7090104524299992
0.8300907911802854
2.68558785381857
-0.9277485313191425
-0.6347753109025711
2.490272373540856
0.34180209048599985
-0.9277485313191425
20.361638818951704
85.98764019226367
146.73075455863278
135.89074540321965
121.92568856336308
161.18410009918364
163.62554360265506
128.76173037308308
148.29327840085452
177.59060044251163
159.32860303654536
157.47310597390708
179.54375524528876
162.35599298084992
134.13290608072023
139.01579308766307
144.09399557488365
125.83199816891737
102.7847714961471
101.22224765392538
110.10910200656139
84.91340505073624
45.069047074082555
42.43228809033341
44.28778515297169
18.017853055619135
9.326314183260854
21.24055848020142
9.81460288395514
-2.8809033340962844
8.74036774242771
8.935683222705425
-5.127031357289998
0.43945983062485694
8.154421301594567
-2.783245593957427
-4.248111696040284
5.810635538261997
0.6347753109025711
-5.810635538261997
2.490272373540856
3.36919203479057
-4.834058136873426
-0.8300907911802854
4.150453955901427
-11.08415350576028
-46.14328221560998
-73.29213397421225
-62.9404135194934
-56.29968719005112
-88.13611047531853
-91.8471046005951
-63.91699092088197
-82.7649347676814
-111.37865262836652
-90.38223849851225
-72.21789883268482
-63.33104448004883
-6.591897459372854
59.13176165407798
80.9094377050431
94.09323262378882
119.87487602044709
136.86732280460822
120.85145342183566
74.07339589532312
52.10040436408026
56.983291371023114
35.010299839780274
11.767757686732281
21.728847180895706
19.87335011825742
-0.14648661020828566
4.541084916456855
13.623254749370565
-5.71297779812314
-35.889219501029984
-57.56923781185626
-58.057526512550545
-62.745098039215684
-117.53109025711451
-202.10269321736476
-295.85412375066755
-396.9298847943847
-451.0322728313115
-414.50827801937896
-303.9597161821927
-187.74700541695276
-131.49614709697107
-106.59342336156253
-68.31158922713054
-46.240939955748836
-46.33859769588769
-30.127412832837415
-12.060730907148852
-16.943617914091707
-15.674067292286564
-1.513694972152285
-3.662165255207141
-9.912260624093996
-0.34180209048599985
2.5879301136797133
-5.615320057984283
-1.7090104524299992
4.736400396734569
-1.7090104524299992
-3.36919203479057
3.5645075150682843
1.1230640115968566
-3.466849774929427
1.8066681925688564
3.2715342946517127
-2.197299153124285
-0.24414435034714274
3.466849774929427
-0.537117570763714
-1.6113527122911422
2.5879301136797133
1.0254062714579995
-1.7090104524299992
1.6113527122911422
14.599832150759136
36.768139162279695
53.56527046616312
102.1011673151751
202.4933241779202
249.95498588540474
223.8803692683299
233.4508278019379
259.72075989929044
227.59136339360646
196.24322880903335
200.6378271152819
177.29762722209506
133.44930189974824
121.04676890211337
132.96101319905395
130.71488517586022
95.65575646601053
65.08888380254825
67.62798504615854
59.13176165407798
27.100022888532845
19.971007858396277
26.807049668116274
10.693522545204852
1.3183794918745708
12.646677347981994
8.05676356145571
-4.150453955901427
3.662165255207141
7.568474860761425
-3.7598229953459983
-2.0019836728465705
6.298924238956283
-0.8300907911802854
-4.638742656595713
3.662165255207141
1.9043259327077133
-4.931715877012284
0.537117570763714
3.36919203479057
-3.2715342946517127
-1.9043259327077133
3.2715342946517127
-0.9277485313191425
-3.2715342946517127
2.0019836728465705
0.8300907911802854
-3.2715342946517127
0.14648661020828566
1.9043259327077133
-2.197299153124285
-1.3183794918745708
1.9043259327077133
-0.8300907911802854
-2.197299153124285
1.0254062714579995
0.34180209048599985
-2.0996414129854277
0.04882887006942855
1.0254062714579995
-1.513694972152285
-1.0254062714579995
0.9277485313191425
-0.6347753109025711
-1.416037232013428
0.537117570763714
0.04882887006942855
-1.513694972152285
-0.14648661020828566
0.43945983062485694
-1.0254062714579995
-0.7324330510414282
0.537117570763714
-0.43945983062485694
-1.0254062714579995
0.14648661020828566
-0.04882887006942855
-1.1230640115968566
-0.24414435034714274
0.14648661020828566
-0.7324330510414282
-0.537117570763714
0.14648661020828566
-19.287403677424276
-101.22224765392538
-222.12252994583048
-290.18997482261386
-320.75684748607614
-384.5273517967498
-428.9616235599298
-385.0156404974441
-280.91248950942247
-183.93835355153735
-129.93362325474936
-97.41359578850995
-65.77248798352025
-48.38941023880369
-41.16273746852827
-26.709391927977418
-15.674067292286564
-15.967040512703136
-11.670099946593423
-3.8574807354848555
-5.127031357289998
-6.298924238956283
-0.7324330510414282
-0.24414435034714274
-3.466849774929427
-0.34180209048599985
2.0019836728465705
-1.3183794918745708
-0.9277485313191425
2.197299153124285
0.14648661020828566
-1.3183794918745708
1.513694972152285
1.416037232013428
-0.8300907911802854
0.6347753109025711
1.8066681925688564
-0.24414435034714274
-0.14648661020828566
1.7090104524299992
0.43945983062485694
-0.43945983062485694
1.416037232013428
1.2207217517357138
-0.24414435034714274
0.6347753109025711
16.84596017395285
48.09643701838712
60.01068131532769
84.81574731059739
172.51239795529108
231.10704203860533
203.86053253986418
184.13366903181506
182.86411841000992
132.47272449835967
86.1829556725414
89.99160753795681
73.48744945448996
37.06111238269627
42.92057679102769
52.78400854505226
32.37354085603113
38.23300526436255
71.63195239185168
77.78439002059967
78.17502098115511
98.39017318989853
95.65575646601053
70.36240177004655
62.15915159838254
50.73319600213626
13.037308308537423
-18.701457236591136
-36.0845349813077
-62.061493858243686
-76.51483939879454
-61.96383611810483
-48.78004119935912
-42.62760357061112
-22.998397802700847
-5.420004577706569
-3.466849774929427
9.912260624093996
47.51049057755398
86.28061341268025
109.03486686503395
103.17540245670253
61.5732051575494
3.662165255207141
-37.15877012283513
-46.72922865644312
-32.37354085603113
-1.1230640115968566
30.322728313115128
35.69390402075227
19.678034637979707
3.9551384756237127
-7.373159380483711
-7.568474860761425
15.576409552147707
51.51445792324712
74.85465781643397
73.29213397421225
70.94834821087969
93.40962844281681
93.99557488364995
48.877698939497975
37.549401083390556
57.178606851300835
29.2484931715877
1.513694972152285
22.510109102006563
20.654612039368278
-7.275501640344854
3.7598229953459983
17.43190661478599
-4.443427176317998
-6.6895551995117115
12.549019607843137
1.7090104524299992
-34.22903791866941
-78.6633096818494
-117.82406347753108
-156.3012130922408
-221.92721446555277
-276.2249179827573
-283.5492484931716
-289.79934386205844
-307.182421606775
-298.1002517738613
-252.88471808957047
-190.96971084153506
-153.37148088807507
-134.32822156099795
-87.84313725490196
-47.998779278248264
-49.17067215991455
-39.5025558861677
-13.13496604867628
-15.381094071869994
-21.826504921034562
-3.9551384756237127
0.04882887006942855
-12.060730907148852
-3.9551384756237127
5.908293278400855
-4.736400396734569
-5.615320057984283
5.71297779812314
0.537117570763714
-6.103608758678568
2.9785610742351416
4.150453955901427
-4.345769436179141
-0.04882887006942855
5.322346837567712
-1.7090104524299992
-2.490272373540856
4.248111696040284
0.8300907911802854
-3.1738765545128556
2.392614633401999
3.076218814373999
-2.392614633401999
0.04882887006942855
3.466849774929427
-0.7324330510414282
-1.2207217517357138
25.830472266727703
94.87449454489968
151.7112993057145
154.4457160296025
173.5866330968185
217.33730067902647
199.7589074540322
163.5278858625162
179.83672846570533
180.4226749065385
148.00030518043792
157.8637369344625
183.1570916304265
167.82482642862593
147.6096742198825
138.82047760738536
122.41397726405738
101.22224765392538
78.07736324101626
73.87808041504539
79.54222934309911
50.635538261997404
20.361638818951704
27.392996108949415
24.560921644922562
2.783245593957427
6.787212939650568
15.869382772564279
0.6347753109025711
-3.2715342946517127
9.42397192339971
2.9785610742351416
-6.494239719233997
3.5645075150682843
5.420004577706569
-5.517662317845426
-1.2207217517357138
5.71297779812314
-2.5879301136797133
-10.498207064927138
-15.088120851453422
-18.60379949645228
-28.66254673075456
-57.37392233157855
-60.79194323643854
-35.10795757991913
-41.5533684290837
-52.881666285191116
-19.092088197146563
22.803082322423133
35.010299839780274
30.811017013809415
39.20958266575113
58.44815747310597
51.90508888380255
22.90074006256199
16.16235599298085
21.14290074006256
7.763790341039139
1.0254062714579995
10.498207064927138
6.103608758678568
-3.5645075150682843
3.1738765545128556
5.908293278400855
-3.36919203479057
-1.416037232013428
5.127031357289998
-1.0254062714579995
-3.7598229953459983
3.076218814373999
1.2207217517357138
-4.150453955901427
0.537117570763714
2.68558785381857
-9.228656443121995
-34.424353398947126
-68.21393148699168
-116.16388189517052
-211.67315175097275
-320.46387426565957
-353.1792172121767
-334.62424658579386
-333.4523537041276
-331.69451438162815
-288.9204242008087
-206.5949492637522
-131.8867780575265
-97.60891126878766
-74.85465781643397
-46.72922865644312
-35.49858854047456
-32.86182955672541
-18.60379949645228
-9.912260624093996
-13.720912489509422
-8.935683222705425
-0.7324330510414282
-4.345769436179141
-5.71297779812314
1.0254062714579995
0.24414435034714274
-3.8574807354848555
0.6347753109025711
2.68558785381857
-1.9043259327077133
-0.7324330510414282
2.9785610742351416
-0.14648661020828566
-1.7090104524299992
2.0019836728465705
1.1230640115968566
-1.513694972152285
1.1230640115968566
2.2949568932631417
-0.7324330510414282
-0.14648661020828566
2.0996414129854277
0.14648661020828566
-0.6347753109025711
1.7090104524299992
1.1230640115968566
-0.7324330510414282
0.7324330510414282
6.787212939650568
16.357671473258563
21.826504921034562
60.108339055466544
168.60608834973678
258.646524757763
266.36148622873276
253.56832227054247
210.30594338902876
108.44892042420081
60.694285496299685
110.40207522697796
142.04318303196766
132.47272449835967
140.87129015030138
133.7422751201648
99.95269703212024
104.64026855878538
132.1797512779431
124.8554207675288
96.53467612726024
74.46402685587854
71.33897917143511
74.5616845960174
52.49103532463569
37.15877012283513
47.80346379797055
32.6665140764477
6.201266498817426
14.795147631036851
19.385061417563133
-0.6347753109025711
0.24414435034714274
13.037308308537423
0.9277485313191425
-6.201266498817426
7.080186160067139
4.345769436179141
-7.080186160067139
1.3183794918745708
6.103608758678568
-4.736400396734569
-2.9785610742351416
5.71297779812314
-1.1230640115968566
-5.127031357289998
3.2715342946517127
1.8066681925688564
-16.260013733119706
-34.32669565880827
-30.908674753948272
-22.998397802700847
-47.80346379797055
-72.70618753337911
-53.17463950560769
-36.27985046158541
-51.123826962691695
-36.475165941863125
0.6347753109025711
-3.36919203479057
-13.623254749370565
8.642710002288853
26.807049668116274
27.49065384908827
32.27588311589227
54.346532387273975
72.70618753337911
53.07698176546884
24.65857938506142
28.66254673075456
30.127412832837415
8.838025482566568
5.810635538261997
15.869382772564279
4.736400396734569
-3.36919203479057
7.568474860761425
5.615320057984283
-5.322346837567712
1.3183794918745708
6.201266498817426
-3.5645075150682843
-2.8809033340962844
5.127031357289998
-0.537117570763714
-9.521629663538567
-12.256046387426567
-23.291371023117417
-79.54222934309911
-184.81727321278706
-250.9315632867933
-244.68146791790647
-254.1542687113756
-288.62745098039215
-292.04547188525214
-280.91248950942247
-270.951400015259
-247.90417334248875
-200.93080033569848
-130.61722743572136
-81.88601510643167
-70.06942854962998
-50.928511482413974
-26.90470740825513
-26.514076447699704
-25.049210345616846
-8.44739452201114
-6.298924238956283
-12.84199282825971
-3.7598229953459983
2.0019836728465705
-5.908293278400855
-3.9551384756237127
3.9551384756237127
-1.2207217517357138
-4.345769436179141
2.9785610742351416
2.0996414129854277
-3.466849774929427
0.9277485313191425
3.7598229953459983
-1.8066681925688564
-1.0254062714579995
3.466849774929427
0.14648661020828566
-1.9043259327077133
2.392614633401999
1.7090104524299992
-1.8066681925688564
0.7324330510414282
2.392614633401999
-0.9277485313191425
-0.24414435034714274
2.5879301136797133
0.34180209048599985
-0.9277485313191425
1.7090104524299992
8.349736781872283
20.947585259784848
44.77607385366598
126.0273136491951
256.8886854352636
316.752880140383
303.764400701915
324.07721065079727
341.85091935606926
292.5337605859464
227.78667887388417
193.02052338445105
175.44213015945678
142.43381399252308
89.69863431754024
59.522392614633404
53.27229724574655
34.717326619363696
18.017853055619135
21.338216220340275
17.43190661478599
3.8574807354848555
6.005951018539712
10.205233844510566
0.8300907911802854
-0.9277485313191425
5.908293278400855
1.513694972152285
-3.5645075150682843
2.2949568932631417
2.783245593957427
-3.36919203479057
-0.43945983062485694
3.1738765545128556
-1.7090104524299992
-2.392614633401999
2.2949568932631417
0.04882887006942855
-2.9785610742351416
0.9277485313191425
1.3183794918745708
-2.392614633401999
-0.6347753109025711
1.6113527122911422
-1.416037232013428
-1.7090104524299992
1.3183794918745708
-0.14648661020828566
-19.775692378118563
-54.54184786755169
-53.85824368657969
-29.443808651865414
-48.19409475852598
-66.26077668421455
-32.178225375753414
5.322346837567712
21.826504921034562
34.131380178530556
47.998779278248264
57.56923781185626
44.580758373388264
20.55695429922942
16.260013733119706
17.627222095063708
6.39658197909514
2.9785610742351416
9.130998702983138
4.052796215762569
-2.0996414129854277
3.466849774929427
3.7598229953459983
-2.783245593957427
-0.14648661020828566
3.662165255207141
-6.591897459372854
-35.303273060196844
-68.50690470740825
-75.9288929579614
-89.40566109712367
-141.65255207141223
-175.1491569390402
-204.25116350041964
-307.96368352788585
-426.5201800564584
-442.34073395895325
-345.464255741207
-221.53658350499734
-150.05111772335394
-115.38261997405966
-76.71015487907225
-52.881666285191116
-48.877698939497975
-33.3501182574197
-16.16235599298085
-18.017853055619135
-16.260013733119706
-3.9551384756237127
-4.248111696040284
-9.130998702983138
-1.3183794918745708
1.7090104524299992
-4.736400396734569
-1.9043259327077133
3.5645075150682843
-1.2207217517357138
-2.783245593957427
2.8809033340962844
1.3183794918745708
-2.68558785381857
1.3183794918745708
2.68558785381857
-1.6113527122911422
-0.14648661020828566
2.9785610742351416
-0.14648661020828566
-1.2207217517357138
2.197299153124285
1.1230640115968566
-1.2207217517357138
1.1230640115968566
18.89677271686885
51.709773403524835
68.4092469672694
100.92927443350881
179.83672846570533
214.21225299458305
193.89944304570076
215.6771190966659
241.8493934538796
206.00900282291906
180.71564812695507
193.41115434500648
169.97329671168077
125.83199816891737
117.3357747768368
117.62874799725337
101.80819409475852
89.40566109712367
91.55413138017853
95.36278324559396
76.51483939879454
47.998779278248264
49.26832990005341
54.44419012741283
26.90470740825513
10.888838025482567
22.510109102006563
14.11154345006485
-2.0996414129854277
7.666132600900283
11.279468986037996
-3.7598229953459983
-1.1230640115968566
8.838025482566568
-0.9277485313191425
-5.322346837567712
5.322346837567712
2.392614633401999
-6.103608758678568
1.2207217517357138
4.345769436179141
-4.248111696040284
-2.0996414129854277
4.443427176317998
-6.494239719233997
-36.37750820172427
-64.20996414129854
-57.86221103227283
-51.61211566338598
-94.77683680476082
-125.5390249485008
-117.04280155642023
-137.25795376516365
-158.93797207598993
-127.5898374914168
-104.8355840390631
-112.84351873044938
-88.03845273517967
-47.60814831769284
-38.1353475242237
-15.967040512703136
35.303273060196844
60.401312275883114
70.06942854962998
106.2027924010071
136.18371862363622
133.5469596398871
125.24605172808423
135.7930876630808
151.7112993057145
125.83199816891737
69.48348210879682
54.54184786755169
59.91302357518883
29.9320973525597
11.572442206454566
26.416418707560844
17.43190661478599
-2.8809033340962844
8.44739452201114
13.916227969787137
-4.248111696040284
-1.8066681925688564
10.693522545204852
-0.7324330510414282
-16.55298695353628
-24.560921644922562
-47.31517509727627
-118.99595635919738
-232.0836194399939
-303.3737697413596
-315.28801403830016
-338.5305561913481
-363.33562218661785
-332.2804608224613
-255.71679255359732
-182.76646066987107
-148.5862516212711
-126.32028686961166
-80.03051804379339
-49.073014419775696
-49.365987640192266
-34.424353398947126
-13.037308308537423
-17.724879835202564
-18.799114976729992
-2.2949568932631417
-2.5879301136797133
-11.279468986037996
-1.3183794918745708
3.8574807354848555
-5.810635538261997
-3.1738765545128556
5.224689097428855
-1.0254062714579995
-4.248111696040284
3.8574807354848555
2.197299153124285
-3.9551384756237127
1.3183794918745708
4.052796215762569
-2.392614633401999
-1.0254062714579995
3.9551384756237127
-0.04882887006942855
-2.0996414129854277
2.8809033340962844
1.7090104524299992
-2.0996414129854277
1.1230640115968566
2.68558785381857
-1.2207217517357138
-0.34180209048599985
2.68558785381857
0.04882887006942855
-1.2207217517357138
28.369573510337986
117.53109025711451
206.30197604333563
222.80613412680248
240.67750057221332
302.78782330052644
313.1395437552453
269.8771648737316
253.2753490501259
246.6346227206836
207.18089570458534
152.98084992751964
120.55848020141909
114.01541161211567
95.2651255054551
55.713740749217976
37.74471656366827
37.84237430380713
21.63118944075685
9.130998702983138
15.869382772564279
12.060730907148852
-0.04882887006942855
4.443427176317998
8.349736781872283
-1.2207217517357138
-1.513694972152285
5.615320057984283
0.34180209048599985
-3.9551384756237127
2.783245593957427
2.2949568932631417
-3.8574807354848555
0.04882887006942855
3.076218814373999
-2.2949568932631417
-2.0996414129854277
2.5879301136797133
-0.43945983062485694
-2.9785610742351416
1.3183794918745708
1.0254062714579995
-2.68558785381857
-0.24414435034714274
1.6113527122911422
-1.7090104524299992
-1.416037232013428
1.416037232013428
-4.052796215762569
-32.86182955672541
-71.04600595101854
-60.59662775616083
-16.260013733119706
-4.345769436179141
-2.2949568932631417
19.971007858396277
41.26039520866713
43.89715419241627
25.732814526588847
11.279468986037996
13.427939269092851
10.205233844510566
1.513694972152285
4.248111696040284
6.591897459372854
-0.24414435034714274
-0.6347753109025711
4.150453955901427
0.43945983062485694
-17.920195315480278
-49.17067215991455
-71.43663691157397
-110.40207522697796
-202.0050354772259
-270.1701380941482
-277.00617990386814
-302.49485008010987
-342.04623483634697
-325.93270771343555
-268.1193255512322
-211.18486305027847
-173.48897535667965
-141.9455252918288
-93.80025940337224
-58.1551842526894
-52.295719844357976
-38.818951705195694
-18.11551079575799
-18.506141756313422
-19.385061417563133
-5.517662317845426
-3.2715342946517127
-10.205233844510566
-3.076218814373999
2.68558785381857
-4.443427176317998
-3.5645075150682843
3.8574807354848555
-0.34180209048599985
-3.8574807354848555
2.5879301136797133
2.392614633401999
-2.8809033340962844
0.6347753109025711
3.466849774929427
-1.416037232013428
-1.1230640115968566
3.2715342946517127
0.537117570763714
-1.6113527122911422
2.0996414129854277
1.8066681925688564
-1.6113527122911422
0.537117570763714
2.392614633401999
-0.6347753109025711
-0.34180209048599985
2.2949568932631417
0.43945983062485694
-1.0254062714579995
1.416037232013428
4.248111696040284
8.44739452201114
19.775692378118563
68.60456244754711
148.68390936140995
180.71564812695507
191.84863050278477
271.9279774166476
335.30785076676585
289.8970016021973
213.04036011291677
147.31670099946592
67.0420386053254
38.62363622491798
94.5815213244831
135.01182574196994
121.53505760280765
112.35523002975509
124.36713206683451
123.68352788586252
91.1635004196231
60.30365453574426
64.79591058213168
64.69825284199283
31.68993667505913
17.236591134508277
27.49065384908827
14.599832150759136
-0.24414435034714274
11.08415350576028
11.279468986037996
-4.052796215762569
1.0254062714579995
9.326314183260854
-2.197299153124285
-4.345769436179141
6.39658197909514
1.2207217517357138
-6.005951018539712
2.490272373540856
3.7598229953459983
-4.931715877012284
-1.0254062714579995
4.443427176317998
-2.2949568932631417
-3.36919203479057
3.36919203479057
0.24414435034714274
-15.576409552147707
-34.131380178530556
-33.05714503700313
-28.076600289921416
-57.764553292133975
-77.00312809948882
-56.20202944991226
-63.91699092088197
-91.45647364003968
-67.53032730601969
-36.768139162279695
-48.19409475852598
-40.186160067139696
-6.005951018539712
-6.884870679789426
-11.963073167009995
20.947585259784848
48.877698939497975
52.881666285191116
61.08491645685512
89.60097657740138
117.23811703669794
93.99557488364995
43.50652323186084
34.22903791866941
37.549401083390556
13.623254749370565
6.005951018539712
19.678034637979707
9.033340962844282
-4.248111696040284
7.763790341039139
8.74036774242771
-5.615320057984283
-0.04882887006942855
8.252079041733426
-23.58434424353399
-102.88242923628596
-184.62195773250934
-221.24361028458077
-249.27138170443274
-303.17845426108187
-331.108567940795
-313.8231479362173
-286.86961165789273
-265.28725108720533
-236.08758678568705
-174.9538414587625
-106.39810788128482
-78.85862516212711
-66.65140764476998
-38.42832074464027
-25.342183566033416
-29.63912413214313
-17.334248874647134
-4.638742656595713
-11.47478446631571
-10.400549324788281
1.3183794918745708
-2.0019836728465705
-7.373159380483711
1.1230640115968566
2.68558785381857
-4.736400396734569
-0.7324330510414282
4.345769436179141
-1.7090104524299992
-2.392614633401999
3.7598229953459983
0.8300907911802854
-2.9785610742351416
2.0019836728465705
2.68558785381857
-2.197299153124285
0.04882887006942855
3.1738765545128556
-0.6347753109025711
-1.1230640115968566
2.783245593957427
0.9277485313191425
-1.513694972152285
1.513694972152285
1.9043259327077133
-1.0254062714579995
8.349736781872283
66.74906538490883
170.26626993209734
224.27100022888533
222.12252994583048
260.79499504081787
299.9557488364996
273.9787899595636
254.6425574120699
264.4083314259556
246.6346227206836
199.36827649347677
149.07454032196537
118.99595635919738
103.07774471656367
69.0928511482414
38.91660944533455
37.64705882352941
30.518043793392845
11.377126726176853
11.767757686732281
16.260013733119706
3.8574807354848555
0.34180209048599985
8.642710002288853
3.2715342946517127
-3.7598229953459983
3.2715342946517127
4.150453955901427
-3.662165255207141
-0.537117570763714
4.248111696040284
-1.8066681925688564
-2.8809033340962844
2.9785610742351416
0.24414435034714274
-3.5645075150682843
1.0254062714579995
1.8066681925688564
-2.8809033340962844
-0.8300907911802854
2.197299153124285
-1.513694972152285
-2.0996414129854277
1.6113527122911422
0.04882887006942855
-20.361638818951704
-55.03013656824598
-54.15121690699626
-30.518043793392845
-52.78400854505226
-75.53826199740597
-40.67444876783398
-5.615320057984283
-1.3183794918745708
13.525597009231708
50.53788052185855
77.58907454032196
65.18654154268711
32.37354085603113
22.314793621728846
23.48668650339513
10.205233844510566
4.248111696040284
11.47478446631571
6.39658197909514
-1.9043259327077133
3.9551384756237127
5.420004577706569
-2.68558785381857
-0.537117570763714
4.541084916456855
-1.1230640115968566
-2.9785610742351416
2.8809033340962844
-11.865415426871138
-88.4290836957351
-217.2396429388876
-305.3269245441367
-332.6710917830167
-375.8358129243915
-411.4808880750744
-368.99977111467155
-271.7326619363699
-184.32898451209277
-139.89471274891278
-112.94117647058823
-74.5616845960174
-49.56130312046998
-45.45967803463798
-31.103990234225986
-14.795147631036851
-16.84596017395285
-15.47875181200885
-3.466849774929427
-3.7598229953459983
-8.642710002288853
-1.2207217517357138
1.8066681925688564
-4.345769436179141
-1.8066681925688564
3.466849774929427
-1.1230640115968566
-2.783245593957427
2.783245593957427
1.3183794918745708
-2.490272373540856
1.3183794918745708
2.68558785381857
-1.6113527122911422
-0.24414435034714274
2.9785610742351416
0.04882887006942855
-1.1230640115968566
2.197299153124285
1.2207217517357138
-1.2207217517357138
1.1230640115968566
1.9043259327077133
-0.7324330510414282
0.04882887006942855
2.0019836728465705
0.14648661020828566
-0.43945983062485694
25.439841306172273
99.56206607156481
159.62157625696193
153.0785076676585
165.77401388570993
222.02487220569162
218.89982452124818
181.49691004806593
192.14160372320134
191.5556572823682
154.93400473029678
158.3520256351568
179.4460975051499
154.73868925001906
122.21866178377967
110.3044174868391
96.6323338673991
81.39772640573739
70.94834821087969
78.6633096818494
90.87052719920653
62.745098039215684
26.61173418783856
29.443808651865414
28.076600289921416
5.517662317845426
6.591897459372854
17.041275654230564
2.783245593957427
-3.5645075150682843
9.130998702983138
4.638742656595713
-6.39658197909514
2.68558785381857
6.201266498817426
-4.931715877012284
-2.0996414129854277
5.908293278400855
-1.6113527122911422
-4.638742656595713
3.7598229953459983
1.416037232013428
-5.0293736171511405
0.8300907911802854
3.1738765545128556
-3.5645075150682843
-1.6113527122911422
3.36919203479057
-1.3183794918745708
-3.1738765545128556
2.0996414129854277
0.6347753109025711
-11.377126726176853
-24.560921644922562
-22.998397802700847
-22.119478141451133
-50.83085374227512
-68.99519340810254
-36.96345464255741
-2.8809033340962844
-1.9043259327077133
2.197299153124285
24.853894865339132
37.94003204394598
32.27588311589227
23.779659723811704
27.783627069504846
30.615701533531702
15.674067292286564
6.201266498817426
11.670099946593423
7.666132600900283
-0.8300907911802854
3.8574807354848555
5.908293278400855
-1.8066681925688564
-0.8300907911802854
4.345769436179141
-0.43945983062485694
-2.9785610742351416
2.490272373540856
1.1230640115968566
-16.064698252841993
-48.584725719081405
-81.20241092545967
-129.8359655146105
-227.2983901731899
-306.8894483863584
-307.08476386663614
-301.1276417181659
-331.88982986190587
-339.8977645532921
-288.43213550011444
-202.6886396581979
-137.94155794613565
-107.76531624322881
-76.51483939879454
-47.21751735713741
-40.772106507972836
-33.838406958113985
-16.260013733119706
-12.646677347981994
-15.869382772564279
-6.39658197909514
-1.1230640115968566
-7.177843900205997
-4.345769436179141
2.2949568932631417
-2.0019836728465705
-3.8574807354848555
2.490272373540856
1.3183794918745708
-3.076218814373999
0.9277485313191425
2.783245593957427
-1.7090104524299992
-0.537117570763714
3.076218814373999
0.04882887006942855
-1.416037232013428
2.0996414129854277
1.2207217517357138
-1.416037232013428
1.1230640115968566
2.2949568932631417
-0.7324330510414282
-0.04882887006942855
2.0996414129854277
0.24414435034714274
-0.6347753109025711
1.6113527122911422
1.0254062714579995
-0.6347753109025711
0.8300907911802854
19.092088197146563
55.32310978866255
74.17105363546197
109.62081330586709
206.7902647440299
267.4357213702602
252.10345616845962
266.65445944914933
304.6433203631647
286.9672693980316
247.3182269016556
226.8101014724956
209.71999694819561
174.17257953765164
114.01541161211567
71.24132143129626
62.45212481879911
45.362020294499125
22.60776684214542
23.096055542839704
22.60776684214542
6.787212939650568
5.0293736171511405
12.060730907148852
3.466849774929427
-2.0996414129854277
5.810635538261997
3.8574807354848555
-3.8574807354848555
1.1230640115968566
4.345769436179141
-2.783245593957427
-2.0019836728465705
3.662165255207141
-0.6347753109025711
-3.36919203479057
2.0019836728465705
1.2207217517357138
-3.2715342946517127
0.04882887006942855
2.0996414129854277
-2.197299153124285
-1.513694972152285
2.0019836728465705
-0.6347753109025711
-2.2949568932631417
1.0254062714579995
0.537117570763714
-2.197299153124285
-0.14648661020828566
1.1230640115968566
-1.513694972152285
-1.1230640115968566
1.0254062714579995
-0.537117570763714
-1.513694972152285
0.537117570763714
0.14648661020828566
-1.513694972152285
-0.24414435034714274
0.537117570763714
-1.0254062714579995
-0.7324330510414282
0.537117570763714
-0.43945983062485694
-1.0254062714579995
0.14648661020828566
-0.04882887006942855
-1.1230640115968566
-0.24414435034714274
0.14648661020828566
-10.986495765621424
-50.53788052185855
-96.82764934767681
-121.04676890211337
-173.5866330968185
-265.3849088273442
-306.2058442053864
-301.42061493858245
-325.5420767528801
-348.97993438620585
-313.1395437552453
-228.86091401541162
-149.4651712825208
-109.1325246051728
-84.81574731059739
-54.932478828107115
-39.307240405889985
-35.79156176089113
-22.510109102006563
-11.572442206454566
-14.013885709925994
-10.79118028534371
-1.9043259327077133
-3.8574807354848555
-6.298924238956283
-0.04882887006942855
0.6347753109025711
-3.7598229953459983
-0.537117570763714
2.5879301136797133
-1.416037232013428
-1.416037232013428
2.490272373540856
0.34180209048599985
-1.7090104524299992
1.7090104524299992
1.8066681925688564
-1.2207217517357138
0.537117570763714
2.2949568932631417
-0.34180209048599985
-0.34180209048599985
2.0996414129854277
0.6347753109025711
-0.8300907911802854
1.2207217517357138
1.3183794918745708
-0.537117570763714
0.537117570763714
1.7090104524299992
0.04882887006942855
0.04882887006942855
22.21713588158999
80.9094377050431
125.34370946822308
134.2305638208591
176.71168078126192
227.00541695277332
202.4933241779202
173.3913176165408
197.31746395056078
188.72358281834136
150.53940642404822
163.03959716182192
182.18051422903793
159.2309452964065
143.11741817349508
150.1487754634928
149.85580224307623
123.4882124055848
81.5930418860151
65.96780346379796
66.65140764476998
39.893186846723125
17.43190661478599
25.732814526588847
20.361638818951704
1.6113527122911422
7.275501640344854
13.525597009231708
-0.7324330510414282
-1.9043259327077133
8.74036774242771
1.416037232013428
-5.517662317845426
4.052796215762569
3.8574807354848555
-5.420004577706569
-0.14648661020828566
4.834058136873426
-2.9785610742351416
-3.076218814373999
4.052796215762569
-0.14648661020828566
-6.884870679789426
-6.103608758678568
-6.103608758678568
-15.674067292286564
-30.22507057297627
-26.318760967421987
-16.064698252841993
-36.475165941863125
-59.522392614633404
-38.91660944533455
-11.865415426871138
-18.40848401617456
-13.427939269092851
13.13496604867628
19.775692378118563
18.310826276035705
29.346150911726557
47.21751735713741
53.17463950560769
30.127412832837415
11.572442206454566
17.52956435492485
13.525597009231708
0.14648661020828566
5.127031357289998
9.619287403677424
-1.1230640115968566
-1.513694972152285
6.39658197909514
0.6347753109025711
-4.248111696040284
3.076218814373999
2.68558785381857
-4.150453955901427
-0.04882887006942855
3.466849774929427
-6.201266498817426
-31.68993667505913
-76.8078126192111
-134.13290608072023
-219.38811322194246
-318.120088502327
-347.90569924467843
-318.803692683299
-312.5535973144122
-321.2451361867704
-292.43610284580757
-216.65369649805447
-137.25795376516365
-97.99954222934309
-77.58907454032196
-49.17067215991455
-34.32669565880827
-33.3501182574197
-20.84992751964599
-9.228656443121995
-12.646677347981994
-10.498207064927138
-0.9277485313191425
-3.076218814373999
-6.6895551995117115
0.24414435034714274
1.6113527122911422
-3.7598229953459983
-0.537117570763714
3.2715342946517127
-1.416037232013428
-1.9043259327077133
2.783245593957427
0.7324330510414282
-2.0019836728465705
1.7090104524299992
2.0996414129854277
-1.513694972152285
0.24414435034714274
2.490272373540856
-0.34180209048599985
-0.537117570763714
2.197299153124285
0.8300907911802854
-0.8300907911802854
1.3183794918745708
1.513694972152285
-0.7324330510414282
0.24414435034714274
1.7090104524299992
-0.04882887006942855
-0.24414435034714274
27.100022888532845
93.99557488364995
126.0273136491951
100.14801251239795
133.0586709391928
228.27496757457848
267.3380636301213
273.8811322194247
307.96368352788585
308.9402609292744
256.4003967345693
205.32539864194706
181.9851987487602
168.89906157015335
128.85938811322194
75.9288929579614
57.08094911116198
50.53788052185855
27.002365148393988
16.943617914091707
23.19371328297856
13.037308308537423
1.7090104524299992
9.033340962844282
8.74036774242771
-2.197299153124285
1.1230640115968566
6.6895551995117115
-1.3183794918745708
-2.8809033340962844
4.443427176317998
0.8300907911802854
-4.150453955901427
1.7090104524299992
2.490272373540856
-3.5645075150682843
-0.8300907911802854
2.9785610742351416
-1.7090104524299992
-2.392614633401999
2.197299153124285
0.04882887006942855
-2.8809033340962844
0.7324330510414282
1.2207217517357138
-2.392614633401999
-0.7324330510414282
1.6113527122911422
-7.373159380483711
-35.20561532005799
-62.64744029907683
-63.13572899977112
-84.42511635004196
-149.95345998321508
-168.21545738918135
-133.83993286030366
-137.45326924544136
-144.8752574959945
-104.64026855878538
-80.9094377050431
-70.65537499046312
1.3183794918745708
97.3159380483711
147.21904325932707
166.16464484626536
178.17654688334477
180.71564812695507
150.1487754634928
87.7454795147631
54.15121690699626
54.053559166857404
34.52201113908598
14.209201190203707
21.826504921034562
19.385061417563133
1.416037232013428
4.931715877012284
12.45136186770428
-0.43945983062485694
-17.236591134508277
-35.98687724116884
-67.7256427862974
-136.4766918440528
-236.47821774624248
-293.60799572747385
-307.866025787747
-346.6361486228733
-387.3594262607767
-365.58175020981156
-273.2951857785916
-169.58266575112535
-118.89829861905852
-96.33936064698253
-60.8896009765774
-40.96742198825055
-41.84634164950027
-27.002365148393988
-10.400549324788281
-15.674067292286564
-14.599832150759136
-1.0254062714579995
-3.076218814373999
-9.130998702983138
-0.14648661020828566
2.68558785381857
-5.127031357289998
-1.513694972152285
4.345769436179141
-1.7090104524299992
-3.076218814373999
3.662165255207141
1.2207217517357138
-3.1738765545128556
1.9043259327077133
3.1738765545128556
-2.0996414129854277
-0.14648661020828566
3.36919203479057
-0.537117570763714
-1.416037232013428
2.68558785381857
1.1230640115968566
-1.7090104524299992
1.3183794918745708
2.0996414129854277
-1.0254062714579995
0.14648661020828566
29.346150911726557
94.67917906462196
134.13290608072023
149.2698558022431
215.97009231708248
275.2483405813687
256.8886854352636
243.99786373693445
262.45517662317843
239.70092317082475
195.36430914778362
184.42664225223163
194.68070496681162
185.11024643320363
131.98443579766536
78.46799420157168
64.3076218814374
51.22148470283055
25.146868085755703
21.338216220340275
25.24452582589456
9.912260624093996
3.076218814373999
12.060730907148852
6.39658197909514
-2.9785610742351416
4.150453955901427
6.005951018539712
-3.466849774929427
-0.8300907911802854
5.224689097428855
-1.3183794918745708
-3.466849774929427
3.466849774929427
0.9277485313191425
-4.052796215762569
0.9277485313191425
2.392614633401999
-3.076218814373999
-1.2207217517357138
2.68558785381857
-12.45136186770428
-63.03807125963226
-125.24605172808423
-153.2738231479362
-182.6688029297322
-245.7557030594339
-263.0411230640116
-227.39604791332874
-222.61081864652476
-217.33730067902647
-162.1606775005722
-125.14839398794537
-121.14442664225223
-82.86259250782025
-30.127412832837415
-7.373159380483711
29.541466392004274
92.72602426184481
130.5195696955825
162.06301976043335
224.66163118944075
279.838254367895
285.01411459525445
240.38452735179675
192.82520790417334
172.9030289158465
132.96101319905395
72.80384527351796
55.90905622949569
55.90905622949569
27.295338368810558
13.81857022964828
26.025787747005417
14.990463111314565
-1.416037232013428
9.521629663538567
11.670099946593423
-28.369573510337986
-95.55809872587167
-137.94155794613565
-137.45326924544136
-160.50049591821164
-237.84542610818647
-325.05378805218584
-384.23437857633326
-383.9414053559167
-332.7687495231556
-261.47859922178986
-174.0749217975128
-108.35126268406195
-89.01503013656824
-69.19050888838025
-38.42832074464027
-32.178225375753414
-32.178225375753414
-14.013885709925994
-7.080186160067139
-14.990463111314565
-7.568474860761425
1.513694972152285
-5.810635538261997
-6.201266498817426
3.466849774929427
0.04882887006942855
-5.322346837567712
1.9043259327077133
3.1738765545128556
-3.662165255207141
-0.34180209048599985
4.345769436179141
-1.0254062714579995
-2.0019836728465705
3.5645075150682843
1.0254062714579995
-2.490272373540856
1.7090104524299992
2.490272373540856
-1.7090104524299992
0.14648661020828566
2.9785610742351416
-0.43945983062485694
-0.9277485313191425
2.392614633401999
0.8300907911802854
-1.3183794918745708
1.416037232013428
7.275501640344854
15.674067292286564
35.596246280613414
113.13649195086595
243.31425955596245
305.4245822842756
284.7211413748379
295.4634927901121
318.90135042343786
283.25627527275503
235.8922713054093
215.09117265583276
197.0244907301442
159.52391851682307
105.0308995193408
71.8272678721294
64.01464866102083
43.40886549172198
22.412451361867703
24.4632639047837
21.045242999923705
5.71297779812314
6.591897459372854
11.865415426871138
2.0019836728465705
-1.2207217517357138
6.39658197909514
2.490272373540856
-3.8574807354848555
2.197299153124285
3.5645075150682843
-3.2715342946517127
-0.9277485313191425
3.5645075150682843
-1.416037232013428
-2.783245593957427
2.392614633401999
0.34180209048599985
-3.2715342946517127
0.6347753109025711
1.7090104524299992
-2.490272373540856
-0.8300907911802854
1.9043259327077133
-1.1230640115968566
-2.0019836728465705
1.2207217517357138
0.04882887006942855
-29.443808651865414
-99.3667505912871
-144.8752574959945
-150.3440909437705
-190.8720531013962
-230.7164110780499
-209.03639276722362
-196.1455710688945
-203.86053253986418
-150.53940642404822
-64.3076218814374
-14.795147631036851
27.783627069504846
60.8896009765774
26.318760967421987
-17.724879835202564
19.87335011825742
106.69108110170139
180.2273594262608
224.27100022888533
243.02128633554588
237.16182192721448
181.88754100862135
102.49179827573053
72.12024109254597
68.01861600671397
37.74471656366827
20.45929655909056
30.811017013809415
19.87335011825742
-4.638742656595713
-7.861448081177996
-9.912260624093996
-59.522392614633404
-167.53185320820936
-260.9903105210956
-289.8970016021973
-307.76836804760813
-333.74532692454414
-325.05378805218584
-282.76798657206075
-232.9625391012436
-198.97764553292134
-173.00068665598536
-118.99595635919738
-68.89753566796368
-60.694285496299685
-49.56130312046998
-21.92416266117342
-19.48271915770199
-24.95155260547799
-8.252079041733426
-1.513694972152285
-12.353704127565424
-6.103608758678568
4.248111696040284
-4.248111696040284
-6.298924238956283
4.345769436179141
1.1230640115968566
-5.810635538261997
1.9043259327077133
4.248111696040284
-3.662165255207141
-0.7324330510414282
4.834058136873426
-0.9277485313191425
-2.5879301136797133
3.7598229953459983
1.416037232013428
-2.9785610742351416
1.7090104524299992
3.076218814373999
-1.8066681925688564
-0.04882887006942855
3.36919203479057
-0.34180209048599985
-1.416037232013428
2.490272373540856
1.2207217517357138
-1.513694972152285
1.416037232013428
14.990463111314565
38.72129396505684
52.10040436408026
87.25719081406882
171.63347829404134
215.4818036163882
201.51674677653162
229.25154497596705
272.4162661173419
257.962920576791
240.18921187151903
248.29480430304417
236.47821774624248
199.9542229343099
155.1293202105745
123.68352788586252
107.76531624322881
73.58510719462882
39.893186846723125
38.03768978408484
32.764171816586554
12.158388647287708
11.08415350576028
17.334248874647134
4.931715877012284
-0.43945983062485694
8.74036774242771
4.443427176317998
-4.052796215762569
2.783245593957427
5.0293736171511405
-3.662165255207141
-1.3183794918745708
4.638742656595713
-1.3183794918745708
-3.5645075150682843
2.9785610742351416
0.8300907911802854
-3.9551384756237127
0.6347753109025711
2.2949568932631417
-2.8809033340962844
-1.2207217517357138
2.490272373540856
-1.9043259327077133
-18.994430457007706
-44.580758373388264
-48.19409475852598
-49.26832990005341
-91.26115815976196
-114.60135805294881
-99.56206607156481
-124.36713206683451
-158.5473411154345
-137.94155794613565
-124.07415884641794
-139.11345082780193
-114.4060425726711
-68.11627374685283
-52.97932402532997
-26.123445487144274
28.564888990615703
53.95590142671855
64.3076218814374
102.58945601586939
133.93759060044252
134.9141680018311
134.03524834058138
151.7112993057145
171.63347829404134
142.43381399252308
75.63591973754482
51.416800183108265
54.346532387273975
27.68596932936599
11.181811245899137
24.853894865339132
16.748302433813993
-2.2949568932631417
7.763790341039139
13.037308308537423
-6.39658197909514
-20.55695429922942
-39.5025558861677
-101.31990539406424
-216.55603875791562
-331.20622568093387
-373.0037384603647
-361.187151903563
-345.7572289616236
-328.08117799649045
-284.623483634699
-202.39566643778133
-125.92965590905622
-96.6323338673991
-76.22186617837797
-43.99481193255512
-33.64309147783627
-34.61966887922484
-17.920195315480278
-7.861448081177996
-14.990463111314565
-9.619287403677424
1.0254062714579995
-4.638742656595713
-7.177843900205997
2.2949568932631417
0.9277485313191425
-5.322346837567712
0.6347753109025711
3.662165255207141
-2.9785610742351416
-1.2207217517357138
4.248111696040284
-0.14648661020828566
-2.392614633401999
2.9785610742351416
1.8066681925688564
-2.392614633401999
1.0254062714579995
2.8809033340962844
-1.2207217517357138
-0.24414435034714274
2.8809033340962844
0.04882887006942855
-1.2207217517357138
2.0996414129854277
1.3183794918745708
-1.2207217517357138
13.81857022964828
79.54222934309911
174.75852597848478
214.9935149156939
226.22415503166246
281.7914091706722
310.69810025177384
278.9593347066453
268.90058747234303
286.2836652170596
273.8811322194247
211.67315175097275
132.66803997863738
90.47989623865111
74.95231555657283
48.48706797894255
30.127412832837415
31.592278934920273
22.412451361867703
7.763790341039139
10.79118028534371
12.256046387426567
1.416037232013428
1.2207217517357138
7.275501640344854
1.0254062714579995
-2.783245593957427
3.662165255207141
2.2949568932631417
-3.5645075150682843
0.537117570763714
3.076218814373999
-2.490272373540856
-1.7090104524299992
2.68558785381857
-0.7324330510414282
-2.783245593957427
1.513694972152285
0.8300907911802854
-2.68558785381857
0.04882887006942855
1.513694972152285
-1.8066681925688564
-1.3183794918745708
1.416037232013428
-1.3183794918745708
-23.779659723811704
-66.45609216449226
-88.72205691615167
-108.74189364461738
-167.4341954680705
-187.55168993667505
-145.5588616769665
-136.28137636377508
-139.69939726863507
-84.22980086976425
-22.412451361867703
22.60776684214542
108.54657816433966
206.7902647440299
241.06813153276875
192.2392614633402
110.69504844739453
71.72961013199054
64.40527962157626
39.014267185473415
21.43587396047913
28.467231250476843
20.263981078812847
3.2715342946517127
9.228656443121995
12.74433508812085
-8.642710002288853
-38.525978484779124
-64.69825284199283
-97.80422674906538
-172.0241092545968
-267.8263523308156
-310.600442511635
-313.92080567635617
-332.7687495231556
-343.41344319829096
-305.91287098496986
-226.41947051194018
-153.9574273289082
-122.90226596475166
-97.12062256809338
-57.86221103227283
-41.943999389639124
-41.358052948805984
-23.19371328297856
-10.693522545204852
-17.334248874647134
-12.158388647287708
-0.04882887006942855
-5.224689097428855
-8.349736781872283
1.513694972152285
1.0254062714579995
-5.71297779812314
0.14648661020828566
3.9551384756237127
-2.8809033340962844
-1.7090104524299992
4.248111696040284
-0.04882887006942855
-2.8809033340962844
2.68558785381857
1.9043259327077133
-2.5879301136797133
0.8300907911802854
3.076218814373999
-1.3183794918745708
-0.7324330510414282
2.8809033340962844
0.24414435034714274
-1.416037232013428
1.9043259327077133
1.3183794918745708
-1.3183794918745708
0.8300907911802854
2.197299153124285
-0.537117570763714
-0.04882887006942855
13.037308308537423
36.96345464255741
44.19012741283284
56.983291371023114
139.30876630807964
227.2983901731899
225.54055085069047
210.01297016861218
237.65011062790876
229.54451819638362
197.80575265125506
215.77477683680476
235.0133516441596
203.5675593194476
160.30518043793393
138.62516212710764
129.05470359349965
104.64026855878538
67.7256427862974
56.49500267032883
57.27626459143969
32.56885633630884
14.697489890897993
22.90074006256199
16.55298695353628
0.537117570763714
6.982528419928283
11.47478446631571
-1.513694972152285
-1.2207217517357138
7.959105821316854
0.34180209048599985
-4.931715877012284
4.052796215762569
2.8809033340962844
-5.0293736171511405
0.34180209048599985
4.150453955901427
-3.1738765545128556
-2.392614633401999
3.662165255207141
-0.7324330510414282
-3.7598229953459983
2.0019836728465705
1.3183794918745708
-4.736400396734569
-3.9551384756237127
-1.513694972152285
-27.881284809643702
-103.37071793698024
-161.9653620202945
-145.07057297627222
-131.2031738765545
-160.20752269779507
-152.10193026626993
-116.84748607614252
-124.36713206683451
-125.14839398794537
-82.27664606698711
-62.061493858243686
-58.8387884336614
-17.52956435492485
22.314793621728846
32.471198596169984
66.94438086518655
125.73434042877851
160.5981536583505
174.75852597848478
182.57114518959335
187.4540321965362
167.33653772793164
102.39414053559167
56.7879758907454
58.25284199282826
42.33463035019455
14.404516670481422
20.84992751964599
24.365606164644845
2.783245593957427
2.197299153124285
14.795147631036851
2.5879301136797133
-19.87335011825742
-43.40886549172198
-81.00709544518196
-151.61364156557565
-250.7362478065156
-306.79179064621957
-305.131609063859
-319.38963912413215
-349.0775921263447
-334.526588845655
-261.77157244220643
-173.78194857709622
-128.07812619211109
-108.83955138475623
-70.06942854962998
-42.04165712977798
-43.70183871213855
-31.592278934920273
-10.595864805065995
-14.697489890897993
-17.52956435492485
-2.0996414129854277
-1.3183794918745708
-10.400549324788281
-1.8066681925688564
4.248111696040284
-4.931715877012284
-3.466849774929427
5.127031357289998
-0.43945983062485694
-4.345769436179141
3.36919203479057
2.5879301136797133
-3.7598229953459983
0.9277485313191425
4.150453955901427
-1.9043259327077133
-1.3183794918745708
3.7598229953459983
0.14648661020828566
-2.197299153124285
2.490272373540856
1.9043259327077133
-2.0996414129854277
0.7324330510414282
2.8809033340962844
-0.8300907911802854
-0.43945983062485694
2.5879301136797133
0.34180209048599985
-1.1230640115968566
32.37354085603113
137.8439002059968
248.58777752346074
270.85374227512017
272.8068970778973
315.385671778439
317.436484321355
269.4865339131762
242.0447089341573
236.08758678568705
212.0637827115282
154.93400473029678
98.78080415045396
78.46799420157168
65.18654154268711
37.549401083390556
26.025787747005417
28.564888990615703
15.967040512703136
5.517662317845426
11.670099946593423
9.326314183260854
-0.9277485313191425
2.783245593957427
6.6895551995117115
-1.2207217517357138
-1.7090104524299992
4.638742656595713
0.34180209048599985
-3.466849774929427
2.0996414129854277
1.9043259327077133
-3.36919203479057
-0.24414435034714274
2.5879301136797133
-1.9043259327077133
-1.9043259327077133
2.197299153124285
-0.24414435034714274
-2.5879301136797133
0.9277485313191425
0.8300907911802854
-2.2949568932631417
-0.34180209048599985
1.416037232013428
-1.7090104524299992
-2.8809033340962844
-1.6113527122911422
-3.662165255207141
-25.24452582589456
-65.8701457236591
-81.39772640573739
-95.06981002517739
-161.9653620202945
-204.25116350041964
-178.46952010376134
-175.1491569390402
-184.42664225223163
-131.98443579766536
-71.53429465171283
-42.33463035019455
25.342183566033416
124.07415884641794
180.9109636072328
198.68467231250477
198.68467231250477
188.03997863736936
159.9145494773785
99.85503929198138
56.7879758907454
55.32310978866255
41.5533684290837
16.260013733119706
19.678034637979707
22.705424582284277
4.248111696040284
2.2949568932631417
12.939650568398566
3.1738765545128556
-4.443427176317998
6.201266498817426
-3.076218814373999
-74.26871137560083
-200.54016937514305
-298.68619821469446
-334.0383001449607
-371.5388723582818
-411.4808880750744
-394.000152590219
-306.0105287251087
-195.8525978484779
-131.98443579766536
-106.10513466086825
-71.1436636911574
-45.362020294499125
-43.89715419241627
-32.37354085603113
-13.330281528953995
-14.892805371175708
-16.55298695353628
-3.466849774929427
-1.9043259327077133
-9.033340962844282
-2.0996414129854277
3.076218814373999
-4.052796215762569
-3.076218814373999
3.9551384756237127
-0.24414435034714274
-3.662165255207141
2.68558785381857
2.2949568932631417
-2.8809033340962844
0.6347753109025711
3.466849774929427
-1.3183794918745708
-1.0254062714579995
3.1738765545128556
0.34180209048599985
-1.7090104524299992
2.0019836728465705
1.7090104524299992
-1.416037232013428
0.7324330510414282
11.377126726176853
27.1976806286717
28.66254673075456
43.50652323186084
118.80064087891967
180.71564812695507
174.75852597848478
185.89150835431448
215.97009231708248
190.1884489204242
164.79743648432137
190.28610666056306
192.53223468375677
165.48104066529336
170.85221637293049
180.81330586709393
155.03166247043563
122.02334630350195
107.47234302281224
105.7145037003128
92.04242008087282
60.49897001602197
51.02616922255284
57.08094911116198
33.05714503700313
11.279468986037996
21.533531700617992
18.017853055619135
-0.8300907911802854
5.322346837567712
12.939650568398566
-1.416037232013428
-3.076218814373999
8.642710002288853
1.416037232013428
-6.201266498817426
3.8574807354848555
4.150453955901427
-5.71297779812314
-0.43945983062485694
5.127031357289998
-2.9785610742351416
-3.466849774929427
4.150453955901427
0.04882887006942855
-4.541084916456855
1.8066681925688564
2.0996414129854277
-3.8574807354848555
-0.537117570763714
2.9785610742351416
-2.0996414129854277
-2.2949568932631417
2.392614633401999
-3.662165255207141
-32.178225375753414
-66.94438086518655
-56.7879758907454
-17.52956435492485
-8.252079041733426
-5.224689097428855
18.21316853589685
40.86976424811169
44.873731593804834
26.123445487144274
10.693522545204852
13.525597009231708
10.498207064927138
1.1230640115968566
4.150453955901427
7.080186160067139
-0.34180209048599985
-0.9277485313191425
4.443427176317998
0.537117570763714
-2.9785610742351416
2.0019836728465705
1.7090104524299992
-2.8809033340962844
-0.14648661020828566
2.2949568932631417
-33.15480277714199
-140.28534370946824
-254.34958419165332
-290.67826352330815
-304.54566262302586
-350.15182726787214
-366.07003891050584
-324.37018387121384
-260.013733119707
-204.05584802014192
-163.91851682307163
-117.82406347753108
-73.68276493476768
-57.764553292133975
-47.60814831769284
-26.709391927977418
-18.994430457007706
-21.24055848020142
-11.181811245899137
-3.5645075150682843
-8.642710002288853
-6.39658197909514
1.3183794918745708
-2.0996414129854277
-4.931715877012284
1.513694972152285
1.6113527122911422
-3.2715342946517127
0.24414435034714274
3.076218814373999
-1.513694972152285
-1.1230640115968566
2.9785610742351416
0.34180209048599985
-1.7090104524299992
1.9043259327077133
1.6113527122911422
-1.416037232013428
0.7324330510414282
2.392614633401999
-0.537117570763714
-0.34180209048599985
2.0996414129854277
0.43945983062485694
-0.8300907911802854
1.416037232013428
1.3183794918745708
-0.537117570763714
0.7324330510414282
1.7090104524299992
-0.04882887006942855
0.04882887006942855
36.768139162279695
140.28534370946824
225.73586633096818
227.20073243305103
232.37659266041047
256.595712214847
223.58739604791333
191.84863050278477
220.75532158388648
229.54451819638362
190.6767376211185
164.89509422446022
163.7232013427939
153.7621118486305
114.89433127336538
73.87808041504539
66.06546120393683
61.28023193713283
32.764171816586554
19.385061417563133
26.22110322728313
14.892805371175708
1.8066681925688564
10.205233844510566
10.205233844510566
-2.392614633401999
1.2207217517357138
7.861448081177996
-1.416037232013428
-3.36919203479057
5.127031357289998
1.1230640115968566
-4.736400396734569
1.9043259327077133
3.076218814373999
-3.8574807354848555
-0.9277485313191425
3.466849774929427
-1.9043259327077133
-2.8809033340962844
2.5879301136797133
0.14648661020828566
-3.2715342946517127
0.8300907911802854
1.6113527122911422
-2.68558785381857
-0.8300907911802854
1.9043259327077133
-10.986495765621424
-44.09246967269398
-66.26077668421455
-40.67444876783398
-1.3183794918745708
1.3183794918745708
-3.662165255207141
14.795147631036851
36.768139162279695
38.525978484779124
21.045242999923705
10.400549324788281
12.646677347981994
7.666132600900283
1.0254062714579995
4.834058136873426
5.224689097428855
-1.0254062714579995
0.14648661020828566
3.662165255207141
-0.537117570763714
-1.9043259327077133
2.197299153124285
-7.470817120622568
-63.03807125963226
-159.62157625696193
-225.05226214999618
-255.61913481345846
-310.40512703135727
-339.80010681315326
-304.35034714274815
-273.4905012588693
-267.8263523308156
-248.19714656290532
-195.26665140764476
-124.8554207675288
-82.56961928740368
-69.28816662851911
-47.0222018768597
-27.295338368810558
-27.68596932936599
-22.021820401312276
-7.568474860761425
-8.349736781872283
-11.767757686732281
-2.197299153124285
0.14648661020828566
-6.201266498817426
-1.9043259327077133
3.36919203479057
-2.0996414129854277
-2.5879301136797133
3.36919203479057
0.6347753109025711
-2.8809033340962844
1.7090104524299992
2.2949568932631417
-2.0019836728465705
0.14648661020828566
3.076218814373999
-0.6347753109025711
-1.0254062714579995
2.490272373540856
0.7324330510414282
-1.416037232013428
1.513694972152285
1.9043259327077133
-0.9277485313191425
0.34180209048599985
2.0996414129854277
-0.14648661020828566
-0.537117570763714
1.7090104524299992
0.7324330510414282
-0.6347753109025711
26.61173418783856
127.68749523155566
258.4512092774853
308.9402609292744
296.44007019150075
269.8771648737316
175.44213015945678
63.91699092088197
62.061493858243686
117.23811703669794
133.15632867933166
149.95345998321508
178.7624933241779
162.8442816815442
121.63271534294651
100.14801251239795
97.90188448920424
94.19089036392768
71.33897917143511
56.88563363088426
67.0420386053254
54.54184786755169
22.021820401312276
19.87335011825742
25.537499046311133
7.177843900205997
1.513694972152285
13.623254749370565
5.71297779812314
-4.834058136873426
5.322346837567712
6.591897459372854
-5.0293736171511405
-0.537117570763714
6.494239719233997
-2.490272373540856
-4.150453955901427
4.638742656595713
0.7324330510414282
-5.0293736171511405
1.7090104524299992
2.8809033340962844
-4.052796215762569
-1.0254062714579995
3.466849774929427
-2.0019836728465705
-2.8809033340962844
2.5879301136797133
0.14648661020828566
-3.36919203479057
0.9277485313191425
1.6113527122911422
-2.68558785381857
-0.8300907911802854
1.9043259327077133
-1.3183794918745708
-1.9043259327077133
1.416037232013428
0.04882887006942855
-2.197299153124285
0.43945983062485694
0.8300907911802854
-1.8066681925688564
-0.6347753109025711
1.0254062714579995
-1.0254062714579995
-1.3183794918745708
0.7324330510414282
-0.04882887006942855
-1.513694972152285
0.04882887006942855
-13.037308308537423
-91.06584267948425
-237.25947966735333
-338.23758297093156
-339.0188448920424
-338.5305561913481
-361.4801251239796
-334.62424658579386
-263.431754024567
-197.5127794308385
-155.61760891126877
-124.66010528725108
-84.71808957045853
-54.24887464713512
-46.533913176165406
-34.61966887922484
-17.724879835202564
-16.357671473258563
-16.357671473258563
-5.71297779812314
-3.2715342946517127
-8.154421301594567
-2.9785610742351416
1.513694972152285
-3.466849774929427
-2.8809033340962844
2.68558785381857
0.04882887006942855
-2.5879301136797133
1.9043259327077133
1.9043259327077133
-2.0019836728465705
0.34180209048599985
2.5879301136797133
-0.9277485313191425
-0.8300907911802854
2.392614633401999
0.43945983062485694
-1.1230640115968566
1.6113527122911422
1.513694972152285
-1.0254062714579995
0.537117570763714
2.0019836728465705
-0.14648661020828566
-0.14648661020828566
1.8066681925688564
0.6347753109025711
-0.43945983062485694
1.2207217517357138
1.2207217517357138
-0.24414435034714274
0.537117570763714
1.3183794918745708
0.04882887006942855
6.103608758678568
66.84672312504769
215.38414587624933
346.147859922179
364.605172808423
355.71831845578697
367.7302204928664
340.3860532539864
270.951400015259
199.36827649347677
150.73472190432594
120.36316472114137
83.35088120851454
52.6863508049134
44.97138933394369
35.010299839780274
17.920195315480278
15.381094071869994
16.55298695353628
6.494239719233997
2.783245593957427
7.959105821316854
3.7598229953459983
-1.6113527122911422
2.9785610742351416
3.466849774929427
-2.2949568932631417
-0.24414435034714274
2.9785610742351416
-1.2207217517357138
-2.0019836728465705
2.0996414129854277
0.14648661020828566
-2.5879301136797133
0.6347753109025711
1.2207217517357138
-2.0996414129854277
-0.7324330510414282
1.416037232013428
-1.1230640115968566
-15.674067292286564
-44.09246967269398
-67.82330052643626
-116.35919737544823
-202.0050354772259
-227.98199435416188
-189.01655603875793
-188.6259250782025
-195.95025558861676
-147.70733196002135
-113.72243839169909
-114.4060425726711
-80.81177996490425
-38.525978484779124
-33.74074921797513
-6.884870679789426
61.08491645685512
104.1519798580911
130.61722743572136
179.54375524528876
216.55603875791562
211.28252079041732
178.66483558403905
156.20355535210194
155.22697795071335
123.87884336614023
65.38185702296482
48.584725719081405
50.928511482413974
24.072632944228275
10.79118028534371
23.87731746395056
14.11154345006485
-2.5879301136797133
8.349736781872283
11.47478446631571
-4.345769436179141
-0.7324330510414282
9.326314183260854
-1.416037232013428
-5.420004577706569
5.810635538261997
-17.627222095063708
-113.62478065156023
-228.95857175555048
-253.2753490501259
-199.85656519417105
-195.46196688792247
-261.47859922178986
-323.7842374303807
-335.79613946746014
-298.68619821469446
-246.82993820096132
-187.6493476768139
-118.31235217822538
-78.56565194171054
-69.28816662851911
-47.51049057755398
-25.537499046311133
-27.100022888532845
-22.803082322423133
-6.6895551995117115
-7.568474860761425
-12.646677347981994
-2.197299153124285
1.1230640115968566
-6.591897459372854
-2.392614633401999
4.052796215762569
-2.197299153124285
-3.466849774929427
3.5645075150682843
1.0254062714579995
-3.466849774929427
1.9043259327077133
3.076218814373999
-2.392614633401999
-0.34180209048599985
3.36919203479057
-0.537117570763714
-1.416037232013428
2.8809033340962844
1.1230640115968566
-1.7090104524299992
1.513694972152285
2.197299153124285
-1.2207217517357138
0.04882887006942855
2.392614633401999
-0.04882887006942855
-0.537117570763714
17.13893339436942
66.55374990463112
110.01144426642253
116.6521705958648
153.2738231479362
225.54055085069047
238.82200350957504
228.27496757457848
266.36148622873276
276.81086442359043
227.39604791332874
199.46593423361563
198.68467231250477
172.80537117570765
128.17578393224994
98.58548867017625
96.82764934767681
90.57755397878996
53.56527046616312
29.736781872281988
34.424353398947126
23.19371328297856
5.517662317845426
12.45136186770428
14.404516670481422
-0.34180209048599985
0.9277485313191425
9.619287403677424
0.34180209048599985
-4.150453955901427
5.322346837567712
2.5879301136797133
-5.224689097428855
1.2207217517357138
4.150453955901427
-3.662165255207141
-1.9043259327077133
4.052796215762569
-1.2207217517357138
-3.662165255207141
2.490272373540856
0.9277485313191425
-3.662165255207141
0.34180209048599985
2.197299153124285
-2.5879301136797133
-1.3183794918745708
2.2949568932631417
-1.0254062714579995
-2.490272373540856
1.3183794918745708
0.43945983062485694
-2.783245593957427
-0.8300907911802854
0.14648661020828566
-9.033340962844282
-22.60776684214542
-19.971007858396277
-2.392614633401999
11.865415426871138
15.576409552147707
8.838025482566568
2.490272373540856
3.662165255207141
3.2715342946517127
-0.14648661020828566
0.7324330510414282
2.2949568932631417
-0.43945983062485694
-0.9277485313191425
1.2207217517357138
0.04882887006942855
-1.416037232013428
0.34180209048599985
-7.861448081177996
-72.70618753337911
-216.65369649805447
-343.90173189898525
-378.4725719081407
-384.8203250171664
-394.09781033035785
-361.08949416342415
-279.25230792706185
-186.0868238345922
-125.5390249485008
-96.53467612726024
-68.01861600671397
-45.069047074082555
-38.42832074464027
-29.2484931715877
-15.283436331731137
-13.037308308537423
-13.330281528953995
-5.224689097428855
-2.490272373540856
-6.103608758678568
-2.68558785381857
1.2207217517357138
-2.2949568932631417
-2.392614633401999
2.0019836728465705
0.24414435034714274
-2.0996414129854277
1.2207217517357138
1.7090104524299992
-1.3183794918745708
0.14648661020828566
2.197299153124285
-0.34180209048599985
-0.6347753109025711
2.0019836728465705
0.8300907911802854
