ExG_CH1;ExG_CH2;ExG_CH3;ExG_CH4;ExG_CH5;ExG_CH6
532;669;789;871;886;879
524;502;524;559;570;609
515;546;588;636;641;673
524;623;713;796;848;846
515;493;505;538;578;612
488;467;464;481;483;531
478;578;658;726;760;764
451;483;527;576;626;643
423;384;374;386;393;443
483;528;570;614;624;636
587;608;644;687;721;707
613;518;470;454;447;471
603;596;591;595;571;576
616;690;747;793;813;783
586;555;548;557;570;577
526;512;506;511;495;522
525;625;700;761;783;769
523;542;574;613;652;656
502;453;432;434;432;470
499;561;609;653;662;668
506;569;628;684;729;718
502;441;419;422;431;466
500;513;527;549;541;561
509;595;666;728;764;748
502;470;468;485;508;530
483;458;448;455;444;477
490;582;652;711;735;723
498;507;533;567;604;608
492;434;408;405;397;432
498;553;596;636;640;640
506;562;616;666;705;691
496;435;410;410;414;446
488;504;521;543;533;548
504;588;658;719;753;735
511;471;464;477;497;516
497;467;455;458;444;473
507;594;661;717;738;722
519;520;540;571;603;605
506;448;419;414;403;435
503;562;607;647;650;649
496;556;612;665;704;690
483;425;403;405;411;444
484;501;519;542;535;551
505;586;654;715;751;733
498;460;453;467;488;508
483;457;446;453;439;470
502;588;655;711;733;717
505;507;527;558;591;594
488;434;407;404;394;427
486;549;596;639;644;642
500;553;604;654;694;679
501;434;406;404;408;439
492;511;528;548;539;552
491;580;651;712;749;730
481;447;444;459;480;501
459;441;436;446;435;467
472;564;636;698;722;709
470;475;499;534;570;577
462;408;384;383;376;411
448;516;569;616;625;627
472;521;573;624;666;655
473;405;378;377;381;416
472;489;506;528;520;534
476;560;629;691;725;708
491;445;432;444;461;481
473;448;438;444;430;457
494;578;644;700;721;702
496;493;510;538;570;572
475;423;398;393;383;414
518;567;607;646;649;644
544;578;617;658;690;674
514;450;419;414;411;441
515;536;551;571;559;568
544;618;680;735;765;743
563;508;488;491;503;517
551;522;506;504;484;504
577;656;715;763;778;753
570;563;575;597;623;621
549;496;467;458;443;470
557;619;665;704;707;700
564;609;653;697;733;718
567;497;464;457;455;486
557;579;596;615;605;614
571;649;714;767;800;780
546;507;498;506;523;543
541;520;512;516;502;529
566;648;712;766;786;767
563;556;568;592;622;625
527;481;457;453;442;473
524;594;647;692;702;700
536;581;629;675;716;706
519;458;432;431;435;471
499;532;559;585;581;596
516;597;666;727;766;752
504;463;454;465;484;509
500;482;475;483;471;500
555;629;688;740;760;741
590;562;561;578;601;602
590;521;480;464;442;466
575;639;684;719;719;707
558;607;652;693;727;712
540;482;456;451;450;482
522;558;585;611;605;616
482;585;665;732;776;763
469;439;438;456;481;510
508;482;475;485;476;506
547;622;683;736;760;741
531;520;531;553;582;589
503;456;431;426;414;447
528;591;641;684;691;686
541;576;616;659;693;682
545;473;438;430;427;459
549;571;587;608;597;604
551;628;691;745;778;757
535;489;475;481;493;513
530;514;508;513;498;521
563;643;707;758;779;757
569;550;556;576;601;605
537;488;462;455;439;469
519;598;655;703;713;708
513;561;609;657;698;690
513;451;425;423;425;463
524;551;574;600;595;606
542;614;678;733;770;753
536;484;466;470;483;506
517;505;500;508;493;517
522;615;685;741;766;747
523;513;525;550;580;588
513;464;439;435;423;455
519;589;643;689;700;695
523;560;602;645;683;676
511;450;424;421;421;457
511;538;561;585;579;588
515;581;638;688;717;703
510;469;458;465;474;494
507;501;503;517;505;523
511;590;652;706;730;713
519;505;514;536;561;569
523;479;458;458;447;473
527;589;637;680;692;685
527;555;589;626;659;653
528;473;449;447;445;476
517;551;578;607;604;611
506;578;638;692;728;716
503;464;454;463;477;500
502;497;501;516;508;530
511;588;649;703;729;715
512;498;507;529;555;566
508;469;451;453;443;472
509;576;628;674;687;683
509;538;573;612;645;643
499;450;430;432;432;464
487;527;559;591;592;600
482;554;616;671;709;698
486;444;433;442;457;482
498;490;492;506;499;519
517;586;643;695;719;704
516;497;501;521;543;554
511;471;452;452;440;466
512;578;630;675;687;680
511;537;570;607;640;635
508;456;434;434;433;463
512;545;573;602;600;606
515;577;632;683;717;703
519;470;453;458;467;490
517;512;514;526;516;533
519;595;655;707;732;715
516;501;506;526;550;560
510;475;459;460;450;477
524;588;640;685;699;691
526;547;578;613;645;641
511;463;441;441;439;470
487;534;570;603;605;612
454;535;603;663;704;695
427;401;402;419;439;470
423;435;453;479;480;507
506;562;616;669;698;686
588;528;510;517;532;540
608;540;499;483;458;476
621;668;701;730;727;707
624;631;646;665;681;665
582;534;508;500;487;506
540;593;630;661;658;657
516;594;659;715;752;738
505;470;463;474;491;516
500;507;520;541;539;561
502;582;649;707;740;730
505;487;494;516;545;563
487;458;447;454;449;482
485;560;619;671;691;690
491;513;545;583;619;622
493;441;420;422;421;455
487;528;562;595;598;605
478;544;602;656;693;682
492;442;425;431;442;468
510;504;506;520;511;527
518;588;645;695;720;703
503;485;488;507;528;541
500;468;454;456;445;472
500;573;630;679;694;686
489;513;546;583;616;616
482;436;419;422;421;453
490;530;565;599;601;606
494;553;607;658;692;680
492;442;425;431;440;465
493;495;502;520;512;528
500;573;633;687;714;699
501;477;479;497;519;533
499;465;450;453;443;469
505;575;630;678;694;684
495;514;543;578;610;609
483;437;419;421;419;449
478;524;561;597;601;606
477;538;594;647;683;673
486;434;417;423;433;459
488;491;498;517;510;526
489;564;626;679;709;694
485;464;468;486;510;525
499;463;448;450;439;467
511;578;632;679;693;683
512;524;548;580;607;606
491;446;427;427;422;451
468;522;564;602;606;609
460;527;587;641;680;669
455;412;401;411;424;453
450;463;479;502;501;520
454;533;599;657;691;681
458;435;439;461;486;506
466;432;420;427;418;449
474;544;600;651;669;662
480;490;513;546;576;578
491;435;409;408;400;429
501;538;568;599;599;598
497;550;598;645;676;660
498;444;424;425;430;453
505;509;517;533;523;534
511;582;640;691;718;700
511;483;481;496;514;527
513;480;465;468;456;480
534;600;652;697;712;697
562;558;572;596;620;616
569;507;475;466;453;475
561;602;632;659;655;649
551;605;653;696;725;706
542;493;473;474;477;499
544;553;563;580;571;582
563;630;687;736;762;744
563;531;526;537;554;567
552;524;511;512;500;524
546;624;683;731;747;736
545;556;579;609;639;640
563;507;481;477;469;496
582;616;644;673;672;670
554;608;656;700;731;717
525;484;468;472;479;505
513;534;552;574;571;587
519;596;661;716;750;738
532;501;498;514;535;555
528;499;488;493;485;512
521;599;658;709;729;720
514;526;550;582;613;618
526;475;452;450;444;475
557;591;621;652;653;652
572;609;647;685;714;698
552;498;475;472;473;495
518;542;560;580;573;585
503;588;657;714;747;734
509;484;486;504;526;547
518;491;482;489;481;509
537;606;661;710;729;718
533;537;555;583;611;615
526;479;458;455;447;476
516;568;609;646;651;652
507;562;612;659;694;684
508;458;439;443;449;479
517;529;543;564;558;573
530;597;654;705;735;721
543;504;495;506;522;538
553;519;503;504;489;512
549;622;676;723;738;723
541;546;564;590;616;617
530;486;466;464;456;483
522;576;618;656;662;662
513;566;614;662;697;687
515;465;445;448;454;483
519;534;550;572;567;580
527;596;654;707;738;724
529;495;489;501;519;536
516;496;490;496;487;511
514;594;655;707;728;716
505;513;535;566;596;602
497;457;440;442;437;468
501;554;597;638;646;647
512;555;599;643;678;670
532;470;444;442;444;472
545;552;562;579;570;579
543;609;665;713;740;723
531;500;494;504;518;534
518;501;496;504;493;516
520;599;660;712;733;720
522;523;540;568;597;602
532;482;458;456;449;476
556;597;632;665;668;665
545;586;626;665;695;684
516;470;452;453;456;485
485;520;547;575;573;587
481;562;630;690;726;717
486;457;456;474;495;519
496;475;470;480;474;501
523;590;646;695;715;703
515;511;526;551;578;584
477;444;430;433;428;457
471;534;584;628;640;641
490;531;576;621;657;651
512;450;425;425;428;457
517;532;546;567;560;571
514;582;639;690;719;705
516;480;471;481;494;512
521;500;492;498;486;506
536;607;663;710;728;711
529;525;538;562;588;590
515;474;455;455;445;471
524;579;621;660;667;664
533;569;608;649;680;671
521;468;446;447;449;478
494;526;552;579;576;588
500;573;636;690;725;714
512;474;466;477;494;515
519;498;491;499;489;512
517;592;652;702;723;709
502;502;519;546;574;581
466;437;427;433;429;460
434;511;570;622;639;643
440;489;540;592;633;634
506;435;406;407;411;445
599;579;574;584;570;575
634;665;695;727;742;718
629;572;543;534;530;535
636;605;585;576;549;555
613;690;742;783;791;762
563;573;591;614;636;634
529;506;497;501;495;520
531;598;652;697;712;710
523;568;614;660;701;697
520;471;455;459;467;501
505;539;567;596;599;614
482;563;631;690;731;725
469;444;444;462;484;513
458;455;462;481;480;510
476;554;619;675;704;696
490;478;490;517;546;559
496;449;428;428;421;450
497;554;599;640;650;648
506;537;573;612;644;638
501;447;424;425;424;454
489;520;545;573;570;579
487;557;617;671;706;694
494;454;444;454;469;490
495;482;480;491;481;502
494;572;633;686;709;694
504;493;503;527;552;560
515;468;446;444;432;458
512;571;616;657;666;661
475;521;567;611;645;640
450;413;402;411;416;450
452;489;522;556;559;573
474;538;598;654;692;683
489;442;430;439;454;477
495;479;475;485;474;496
513;582;637;686;706;689
514;499;505;525;547;553
519;474;451;448;434;457
531;585;628;667;674;665
510;545;582;621;651;643
476;436;422;426;429;459
462;504;539;573;575;586
460;533;599;658;698;689
457;421;416;430;449;476
457;451;455;473;468;493
468;545;607;663;690;679
469;457;468;493;521;533
459;423;407;412;404;434
455;523;576;624;639;637
459;491;531;573;608;606
466;412;391;393;395;427
456;491;520;552;551;561
456;524;584;640;675;665
462;419;408;419;432;455
496;476;470;481;469;488
523;585;636;682;701;681
522;500;502;518;537;541
501;464;446;444;430;453
482;555;610;657;668;661
473;511;552;594;628;624
484;432;412;415;416;447
503;529;554;582;580;586
522;575;626;674;705;690
542;484;461;462;467;485
553;534;526;530;514;526
559;627;679;724;741;718
558;537;538;553;570;575
550;510;489;485;470;492
553;616;664;705;714;703
554;579;609;643;672;665
554;498;473;469;465;492
553;585;610;636;632;636
555;616;668;716;747;732
559;510;492;494;502;523
557;550;550;559;547;563
560;635;693;742;765;746
550;536;542;560;582;592
539;506;490;492;481;508
545;612;665;709;723;717
551;574;605;639;671;668
548;494;471;468;466;496
541;577;607;635;634;639
539;602;658;707;741;729
534;490;476;481;491;515
529;528;533;546;538;557
537;613;673;724;750;735
541;520;523;542;565;577
530;495;479;480;470;497
530;599;652;698;712;706
532;554;586;621;653;651
531;478;455;453;451;482
531;567;596;625;625;629
529;591;644;693;727;713
518;475;460;466;476;500
507;511;519;535;528;547
511;590;653;707;736;721
526;503;505;524;548;561
539;496;476;474;462;490
559;617;663;705;715;705
567;579;601;630;656;650
547;496;471;467;460;487
521;569;604;635;635;638
519;585;642;693;728;715
519;474;460;467;477;502
512;516;525;542;535;553
515;593;656;710;739;725
528;504;506;524;547;561
530;493;475;476;465;493
529;598;651;697;712;704
524;545;574;608;639;638
525;473;450;449;445;475
522;562;594;625;626;629
517;577;631;681;715;702
513;466;450;455;465;490
523;522;527;542;533;550
530;602;660;712;738;723
530;506;506;522;543;557
522;490;476;477;466;492
540;605;657;702;716;706
542;555;579;610;639;637
541;487;461;457;451;479
529;573;606;636;636;638
521;583;637;686;719;706
500;461;448;455;465;492
489;502;517;538;533;552
491;572;638;696;728;717
493;472;477;498;524;542
492;462;451;456;449;480
501;572;628;677;696;689
526;532;554;584;614;615
540;479;449;443;435;463
564;592;615;640;634;632
577;619;659;698;722;702
514;478;465;467;472;493
433;476;506;535;535;553
415;519;601;670;712;706
444;426;436;465;498;523
484;442;428;435;431;465
520;574;621;667;683;677
532;532;546;573;599;599
543;480;448;439;427;452
536;575;604;632;627;624
528;582;631;674;703;685
524;474;454;455;459;481
536;538;545;560;549;561
573;631;682;727;750;730
571;536;528;537;551;561
522;505;497;501;488;512
472;571;643;700;722;715
441;479;521;566;607;616
443;408;399;410;416;454
448;500;545;589;602;613
431;495;555;611;655;652
452;401;385;394;407;441
540;517;512;524;513;527
612;643;675;710;725;702
635;575;547;541;542;544
647;594;560;543;512;522
647;706;746;777;776;749
609;621;639;659;677;666
562;529;513;510;500;521
536;600;647;686;692;690
517;584;644;696;736;727
510;468;458;467;480;512
502;521;540;566;567;587
496;577;644;703;741;734
492;469;473;493;520;543
493;469;463;471;467;499
498;573;633;685;708;703
496;505;528;560;593;601
499;450;429;429;424;457
498;548;586;623;627;630
498;549;597;643;677;668
496;446;426;429;435;463
485;502;519;541;537;551
486;563;626;682;715;702
488;460;459;476;497;516
490;465;457;465;455;482
496;570;629;680;700;689
484;495;518;550;580;585
471;430;413;417;413;443
482;532;573;612;619;621
498;541;584;630;665;653
510;449;425;424;427;454
491;507;523;543;536;548
489;565;627;681;712;698
504;469;464;478;495;512
510;481;470;476;463;487
517;589;644;693;710;695
515;517;535;562;589;591
506;459;438;437;428;456
501;555;596;634;639;638
496;546;594;640;674;664
498;446;426;429;434;462
491;510;528;552;547;560
491;566;629;684;717;704
491;460;457;473;492;512
485;466;460;470;461;488
481;561;625;679;701;690
471;479;504;536;568;576
462;422;406;411;407;440
469;523;567;610;619;622
475;519;565;612;648;641
481;426;404;407;411;441
480;496;513;536;531;544
479;551;612;667;700;686
477;444;440;454;472;492
472;453;448;458;449;475
474;552;614;667;689;677
470;473;493;524;554;561
478;430;409;410;403;432
496;543;581;619;625;623
509;544;581;622;653;642
522;458;430;426;425;450
533;542;553;568;558;563
544;606;658;705;730;710
552;508;494;498;508;521
546;523;512;514;498;516
545;621;679;726;742;723
550;546;559;582;606;607
557;506;480;475;462;486
562;612;650;685;688;682
561;599;638;676;706;694
557;502;478;474;474;500
554;574;591;611;604;612
560;628;685;735;765;749
566;525;514;520;533;551
557;538;531;536;523;545
555;633;693;742;761;745
550;548;563;588;615;620
538;496;477;476;468;496
532;592;639;680;689;688
534;574;617;660;694;688
540;483;460;460;462;494
547;564;581;602;597;608
546;613;670;721;752;738
543;505;495;502;516;536
534;519;515;522;512;534
535;613;674;725;747;731
535;530;545;570;597;603
533;488;467;465;456;484
537;593;638;677;685;683
531;570;611;651;685;677
520;470;450;451;454;485
516;544;567;593;590;601
522;592;652;705;739;727
526;486;477;485;500;521
527;510;506;514;504;526
530;606;666;716;738;722
517;515;529;556;582;590
510;471;453;454;446;474
531;585;629;670;679;676
542;571;606;644;675;667
526;474;450;449;450;479
505;538;565;591;589;599
512;583;643;697;732;720
533;486;473;480;493;515
541;521;513;519;506;527
542;616;673;720;740;722
533;526;536;559;583;589
521;481;462;462;452;479
514;579;629;672;684;680
514;551;591;632;667;662
512;459;439;440;442;474
512;539;563;590;588;598
517;583;641;694;728;716
515;475;464;472;485;507
512;501;500;511;501;523
520;596;656;707;730;714
527;514;523;545;570;577
522;479;459;457;447;473
524;586;632;674;684;680
522;555;592;631;663;657
520;466;444;444;444;475
519;548;572;598;596;604
520;587;645;697;731;717
516;475;464;472;485;506
508;501;502;514;505;526
511;590;652;704;730;714
512;501;512;535;561;572
512;470;451;451;442;470
514;576;625;669;680;677
509;541;578;617;651;647
505;453;432;433;433;465
500;533;560;589;587;596
502;569;628;681;716;704
500;458;447;455;468;491
499;491;493;505;497;518
515;588;646;697;721;706
521;503;509;529;553;561
514;473;453;452;441;467
511;577;627;671;683;678
509;540;575;614;647;642
510;457;435;435;434;465
514;544;570;597;595;601
521;583;638;688;721;707
520;474;459;464;474;495
518;510;511;523;512;530
521;597;657;708;732;716
518;504;512;533;557;566
502;468;453;455;446;474
488;563;620;669;685;681
467;506;549;593;632;633
439;403;394;404;411;449
428;476;516;555;564;579
489;540;593;647;684;677
592;501;461;454;456;475
635;588;560;551;525;531
653;700;734;763;767;734
661;623;608;607;611;602
613;577;553;541;517;529
563;648;707;750;758;744
534;578;623;664;697;692
511;477;467;474;479;512
500;549;589;626;634;645
498;570;634;692;735;728
496;456;446;457;475;505
492;494;502;520;518;542
494;574;638;694;725;715
489;476;486;509;537;554
488;454;439;443;437;469
494;562;617;665;682;679
493;517;550;588;622;623
493;441;420;421;420;453
493;530;560;591;591;598
495;557;613;664;698;686
496;448;432;438;448;472
492;491;497;512;503;522
496;572;633;686;713;698
498;479;483;504;526;539
494;458;442;445;435;463
497;566;620;668;683;676
498;519;549;585;618;616
497;445;423;423;420;451
499;536;566;597;597;601
503;562;615;665;698;685
502;453;436;440;449;472
496;498;504;520;511;528
497;575;637;690;718;702
494;477;483;503;527;539
485;455;442;447;438;467
485;559;617;667;685;679
484;506;539;576;610;611
489;437;416;417;416;447
491;530;562;594;596;600
495;554;606;656;690;677
495;445;428;432;440;465
499;499;505;520;511;526
501;576;637;689;716;700
492;473;478;497;520;534
480;451;440;445;437;465
480;554;613;664;683;677
475;496;528;566;600;602
477;427;407;410;408;440
485;523;556;590;592;596
490;545;597;646;680;668
490;438;419;423;431;456
479;486;495;513;505;521
473;552;617;673;703;688
466;449;455;477;501;518
467;437;426;433;425;455
483;552;608;658;675;668
494;505;529;562;592;592
500;445;419;417;411;439
513;548;576;606;604;604
523;573;618;662;692;675
535;475;450;448;450;470
536;535;539;551;537;547
544;613;668;716;739;718
552;521;516;528;543;553
553;516;497;496;480;502
559;628;679;723;735;720
559;569;590;618;645;640
559;506;480;474;466;491
561;601;632;661;660;658
562;614;661;704;735;719
561;506;484;483;487;510
546;556;567;582;573;586
542;619;681;733;763;747
539;515;516;532;553;569
531;504;493;497;488;516
534;609;667;717;735;727
538;548;571;602;633;635
537;486;463;460;455;485
540;583;617;649;651;653
542;593;641;686;718;705
542;489;467;467;472;496
538;547;558;574;565;579
542;615;675;726;754;739
540;512;511;525;544;560
525;501;491;495;486;512
522;601;662;713;732;723
518;532;557;589;621;625
517;470;449;449;445;476
524;569;605;640;644;647
531;580;627;672;706;694
535;479;456;455;460;486
534;542;553;569;561;574
537;608;667;717;746;730
533;504;501;514;533;549
517;494;485;492;481;507
514;594;655;707;726;717
517;525;548;580;610;615
516;467;446;445;440;470
519;566;604;639;643;644
521;571;617;662;696;684
522;467;446;446;451;477
521;533;546;564;557;570
525;597;656;709;738;723
524;494;490;503;521;538
518;494;484;489;479;504
522;599;657;707;726;714
523;528;549;577;607;610
519;472;450;448;441;470
523;572;610;645;649;649
529;576;620;664;696;685
533;477;453;452;454;480
524;540;554;574;566;577
525;598;659;711;742;727
525;494;491;503;522;539
521;497;489;494;484;509
519;597;658;709;729;717
516;521;542;571;601;606
514;467;446;446;439;469
514;564;605;643;649;650
517;562;607;652;686;677
513;459;437;439;444;472
508;526;543;564;560;573
510;583;644;697;730;716
511;479;475;488;506;525
507;485;477;484;475;501
507;585;646;698;718;706
512;513;530;559;587;593
519;468;444;442;433;462
526;574;611;647;651;649
519;564;609;650;684;672
506;457;437;439;442;471
494;519;541;565;561;573
491;568;633;689;723;712
490;461;459;475;494;516
488;470;466;476;469;495
496;573;634;688;710;699
501;499;516;544;573;580
506;457;434;433;426;453
518;566;605;641;646;643
530;566;604;644;674;664
528;469;443;441;440;467
521;541;557;578;570;579
520;591;650;702;732;717
522;486;478;489;504;522
518;498;492;499;488;510
524;599;659;709;729;714
520;518;534;560;588;593
506;465;446;447;439;468
489;553;601;644;655;655
472;525;575;624;663;659
443;406;396;406;417;453
428;465;497;531;536;555
463;531;593;652;690;683
582;502;471;470;479;496
651;582;542;527;498;510
664;709;741;766;764;732
667;642;633;636;642;628
631;584;554;538;513;524
572;647;697;734;736;723
533;596;650;697;733;722
509;475;467;476;486;518
496;535;568;601;607;624
495;574;643;703;746;741
493;462;460;477;500;529
488;476;477;492;488;519
493;573;636;692;719;711
495;490;505;533;564;576
492;449;430;432;426;457
493;551;597;640;651;652
488;528;570;614;649;645
487;434;413;416;419;452
487;513;536;562;560;572
491;560;619;673;707;695
496;456;446;456;470;492
492;478;475;484;474;496
496;574;635;687;709;693
498;490;503;528;554;561
495;452;433;434;424;451
498;557;604;646;655;651
493;532;572;614;647;641
494;440;419;421;422;453
493;521;544;571;568;577
497;565;623;677;710;697
499;459;449;458;472;492
495;483;481;492;482;503
500;578;639;691;714;698
500;491;503;527;553;561
494;453;436;436;427;455
496;557;605;648;659;656
498;531;570;611;644;639
496;441;419;421;423;453
489;520;545;574;571;580
491;558;617;671;706;694
490;450;440;450;463;486
485;476;476;489;480;502
488;567;629;682;707;692
488;479;490;514;541;551
484;444;427;429;420;448
486;549;598;643;655;652
484;517;556;597;631;627
482;430;409;411;413;444
477;510;538;567;567;575
476;545;605;659;695;684
474;435;427;437;450;474
471;464;468;482;473;495
477;555;618;673;698;683
480;467;478;502;528;538
480;439;421;423;414;442
490;550;598;643;654;650
500;525;558;595;628;622
506;447;421;419;416;445
512;538;561;586;580;585
515;576;629;678;708;692
520;472;455;460;467;487
525;512;508;517;504;519
537;608;663;711;731;711
544;523;526;542;562;567
546;500;477;473;458;480
554;611;657;696;704;693
554;578;608;641;669;661
555;497;470;466;461;487
555;585;608;633;627;630
557;618;671;718;748;732
554;508;492;494;502;522
549;543;544;553;542;558
552;628;688;737;762;743
552;536;542;559;582;591
547;509;491;489;478;504
546;613;664;708;720;714
543;571;604;640;672;669
542;489;466;464;463;494
538;574;602;630;628;635
538;601;658;707;741;728
537;491;476;481;491;515
534;530;532;544;535;555
535;613;673;725;750;736
535;518;523;542;566;578
528;492;475;477;466;495
528;596;648;694;709;704
528;553;585;621;654;652
528;475;452;450;449;480
526;563;591;620;619;625
530;590;644;693;727;713
531;482;465;469;478;502
526;523;526;539;529;547
527;604;664;716;742;726
527;508;512;531;554;567
523;487;471;472;462;489
527;595;648;693;708;701
528;550;581;615;646;645
533;478;453;451;447;477
532;568;597;626;624;628
528;590;644;693;725;712
525;479;462;467;475;498
518;520;526;541;532;550
523;600;661;714;741;726
526;505;509;527;550;563
523;487;472;473;464;491
527;595;649;695;709;702
524;545;574;609;640;639
519;467;445;445;442;473
519;558;589;620;621;625
520;579;632;681;715;702
521;472;454;457;466;490
516;518;525;539;531;548
518;594;656;708;736;721
518;496;499;517;540;554
515;481;467;469;459;487
517;587;642;690;705;699
517;535;564;598;629;630
520;467;443;441;437;467
526;563;593;623;623;625
529;585;635;681;713;698
526;476;458;459;466;489
520;524;531;546;537;552
525;601;662;713;740;724
524;501;503;520;541;555
517;487;473;476;466;493
519;592;649;696;713;704
517;535;563;597;628;628
514;464;442;442;439;469
515;557;591;623;626;629
517;573;624;672;707;694
519;468;448;451;458;483
514;518;527;543;535;550
515;591;652;705;733;718
517;492;492;509;530;546
512;481;468;472;462;490
515;587;644;692;709;700
515;529;555;587;618;619
513;462;439;438;434;464
513;556;590;623;625;628
513;568;618;665;699;687
514;463;443;446;452;477
513;518;527;544;536;551
514;588;649;702;730;715
507;484;486;503;524;540
495;471;461;468;459;487
497;574;634;685;704;696
502;515;541;574;606;609
502;452;430;430;425;456
504;549;584;619;621;624
506;559;609;656;689;677
509;456;437;438;444;470
507;515;526;543;535;549
516;588;648;700;728;712
519;489;487;502;520;535
518;487;474;478;466;492
524;595;650;698;714;703
522;531;553;583;612;612
518;468;446;444;437;465
520;565;601;635;637;637
520;571;619;665;698;685
506;458;440;444;450;477
487;505;523;545;541;557
473;558;626;685;720;710
445;433;444;468;495;519
423;414;417;433;433;467
479;545;602;657;679;674
596;557;554;570;592;591
656;557;500;475;450;466
669;684;691;701;682;664
672;701;726;748;759;727
627;576;548;536;525;536
567;599;620;637;624;627
535;632;705;763;795;777
512;503;514;537;564;584
494;485;489;504;504;537
494;580;648;707;736;734
489;503;532;569;608;621
483;441;425;430;432;470
486;539;581;622;632;640
488;538;587;635;674;669
487;435;416;420;428;461
487;501;516;538;534;551
489;563;624;679;712;700
493;461;458;473;492;512
488;464;457;464;454;482
491;567;627;679;699;689
494;498;518;548;577;582
488;442;421;421;414;445
492;543;583;621;625;626
494;541;586;631;665;655
494;440;419;421;426;453
486;505;522;544;538;551
489;563;625;680;712;698
490;459;455;470;489;507
488;466;460;468;458;485
498;573;632;683;703;691
502;502;520;548;576;581
495;448;428;427;419;448
492;546;588;627;633;632
492;538;584;630;664;654
493;440;419;421;426;454
491;509;526;549;544;557
489;563;625;680;712;699
489;456;452;467;485;504
484;464;459;468;459;485
487;565;626;679;700;688
483;486;505;535;566;572
473;431;413;415;410;440
472;529;574;615;624;625
479;522;567;613;648;641
485;429;407;409;412;442
489;505;521;544;537;549
487;558;618;672;703;689
481;449;444;457;474;493
471;456;454;464;455;480
473;553;617;671;693;681
473;475;494;524;554;561
457;418;403;407;402;432
451;514;562;608;618;620
467;508;551;599;635;628
475;418;396;399;402;433
485;500;517;539;534;545
510;570;624;672;701;685
523;476;461;467;478;493
520;496;486;489;474;492
526;599;655;702;718;699
532;524;535;558;580;582
533;483;458;454;440;463
536;588;629;665;668;662
537;574;612;651;681;669
533;478;454;452;452;479
531;552;570;592;586;594
534;602;660;710;742;727
549;505;491;497;510;527
561;535;524;526;512;531
572;641;693;737;753;733
560;554;564;584;607;610
552;508;486;481;470;493
550;608;653;690;698;692
556;592;630;668;700;689
564;505;478;474;474;501
560;582;599;619;613;620
550;622;680;731;761;747
531;500;494;504;520;540
520;514;514;525;517;541
539;615;675;726;749;735
556;542;551;572;598;605
551;504;480;476;465;492
543;604;649;687;695;691
533;573;614;654;687;681
533;481;459;459;461;491
534;559;580;605;601;611
534;602;660;711;745;732
531;492;482;490;504;525
523;512;511;520;512;533
525;603;665;716;739;725
504;504;521;548;577;587
489;456;442;446;441;472
515;572;619;663;674;673
546;566;597;634;665;659
564;495;463;455;451;479
562;581;596;614;605;609
558;622;675;721;750;732
551;510;497;501;510;527
538;530;529;538;526;544
532;614;677;729;751;734
529;524;536;560;587;595
526;486;468;469;461;488
525;588;637;681;694;690
522;557;596;635;671;666
520;468;447;447;449;481
516;547;573;599;598;608
517;584;643;696;731;720
521;478;466;474;486;509
517;507;507;518;509;529
518;596;656;708;733;718
526;512;520;542;567;576
526;482;461;460;449;476
528;589;636;678;688;684
522;553;590;627;660;655
518;466;444;445;444;474
517;548;573;601;599;607
518;584;641;693;727;714
511;471;459;467;479;502
510;503;504;516;507;529
515;591;652;704;728;714
522;506;513;534;559;568
513;474;456;456;446;473
513;579;629;674;686;681
513;543;578;617;649;646
513;460;438;438;437;468
510;543;570;598;596;603
510;576;633;685;720;707
511;467;453;460;472;494
508;503;504;517;508;527
515;591;651;702;727;712
510;498;506;527;552;562
496;463;448;450;442;470
500;568;621;668;683;678
503;530;564;603;637;635
507;452;429;430;429;460
506;539;566;594;594;601
512;573;628;678;711;698
517;468;451;456;466;487
517;509;510;521;510;528
524;597;655;705;728;711
526;508;512;530;552;561
521;482;463;463;452;477
523;589;640;684;697;689
523;547;579;614;646;642
524;470;446;444;442;472
521;556;584;613;610;615
517;582;638;688;722;708
505;465;451;459;469;494
491;495;504;521;515;534
481;567;634;691;721;709
459;455;471;499;529;546
437;416;412;423;421;455
468;536;592;643;664;663
562;551;565;592;620;617
630;533;482;461;444;465
648;652;654;661;641;631
657;696;728;757;770;739
645;586;555;543;535;542
595;603;606;612;594;599
552;648;718;770;795;774
521;524;542;567;595;608
501;483;480;491;490;522
493;575;641;697;722;723
487;518;557;601;643;651
484;438;423;429;435;475
485;526;561;596;604;616
487;549;606;659;698;691
489;441;426;432;445;474
484;486;494;510;505;526
490;566;628;682;710;698
492;472;476;496;519;536
483;451;438;443;433;463
486;558;615;664;680;675
490;509;540;575;607;608
491;439;418;418;415;446
491;530;563;595;596;600
493;552;606;655;689;676
495;445;428;432;440;465
492;495;502;519;510;526
499;574;633;686;713;698
502;479;481;499;520;534
498;464;449;452;441;468
497;569;625;674;691;682
492;511;541;576;608;608
486;438;418;420;417;448
483;526;562;596;599;603
481;542;596;648;683;672
487;436;419;425;434;461
501;499;504;520;511;527
525;589;643;691;716;698
515;489;488;502;522;533
496;468;456;459;447;473
483;564;625;676;693;685
485;505;536;572;605;606
468;426;410;415;414;447
456;509;549;589;595;602
475;531;584;636;673;664
499;439;417;420;428;454
502;501;506;521;512;527
494;569;629;681;709;693
511;481;479;493;512;526
520;481;463;463;449;474
486;568;629;679;696;685
453;484;520;559;594;598
433;400;391;400;403;437
443;492;535;577;586;594
463;515;568;619;657;649
482;422;400;403;412;439
484;486;493;510;502;517
488;559;617;669;696;681
506;473;467;481;498;511
508;472;455;456;441;465
499;573;630;678;692;680
472;493;523;558;589;590
470;427;410;413;410;440
520;550;580;610;612;612
550;584;622;661;689;672
570;500;466;458;455;474
601;588;581;585;566;570
599;661;709;749;765;739
583;554;547;553;564;570
564;540;527;526;511;530
552;633;694;741;757;742
547;561;586;616;647;647
542;496;477;475;470;499
542;590;627;662;666;668
548;598;646;691;724;713
543;491;470;471;476;503
529;544;559;578;572;587
521;599;663;718;750;738
521;495;495;511;534;553
535;503;491;494;484;512
550;617;671;717;734;723
536;544;564;592;620;623
523;479;458;457;450;480
547;588;621;654;656;656
570;607;646;685;715;700
565;505;478;474;474;497
544;560;573;589;580;590
528;609;673;725;756;741
525;500;501;516;536;554
522;500;493;499;491;518
528;604;664;715;735;725
530;535;555;584;614;619
526;479;458;455;450;479
531;579;616;651;656;656
526;575;623;666;701;689
515;465;447;449;454;483
511;529;546;567;562;576
514;588;649;703;735;723
523;490;485;498;517;535
516;493;484;490;480;506
550;616;668;715;731;717
567;557;566;588;612;613
546;497;473;467;455;481
525;582;624;660;664;662
515;569;618;664;698;688
513;463;445;448;454;483
516;534;550;573;568;581
520;591;651;704;736;723
520;487;482;495;513;532
514;492;485;492;482;508
511;590;651;703;724;712
511;514;533;562;592;598
528;475;450;448;440;468
527;576;614;650;655;654
517;564;609;652;685;676
513;462;441;441;445;474
516;534;551;573;568;578
532;598;655;705;735;720
528;493;486;496;511;529
512;495;490;497;487;511
504;587;651;704;726;714
497;502;524;554;585;593
493;452;435;437;432;464
503;556;598;639;647;648
507;548;591;635;669;662
497;445;425;427;432;462
493;515;536;560;556;569
494;566;627;682;715;704
501;465;458;471;488;508
515;489;479;485;474;498
527;597;652;700;718;703
532;524;535;557;581;585
540;487;461;455;442;467
542;591;629;664;668;662
526;570;612;653;684;672
511;463;444;445;447;476
508;534;556;581;577;588
533;597;654;704;736;722
530;492;482;491;505;524
507;495;493;502;493;516
480;572;641;698;723;711
471;479;503;535;569;579
464;428;416;422;421;454
454;519;572;619;635;639
442;493;544;594;634;634
499;431;404;405;409;442
597;576;571;581;566;572
644;672;700;730;744;718
678;604;564;548;540;542
680;639;609;595;561;563
619;704;759;798;804;772
534;561;589;617;642;642
496;483;482;492;491;519
512;580;636;686;704;706
521;561;606;653;694;694
509;460;442;447;456;493
501;532;558;586;589;605
498;571;634;690;729;721
483;453;450;464;484;511
474;467;470;486;481;509
483;563;627;682;709;700
487;481;495;522;552;564
477;438;422;425;418;450
487;545;592;636;647;647
491;526;564;607;640;636
482;431;410;413;416;447
492;517;539;565;563;573
506;568;624;674;706;693
505;463;451;458;471;490
501;488;485;494;483;503
486;570;634;688;711;696
484;480;494;521;550;557
485;445;428;430;422;451
503;558;603;645;656;653
516;542;576;613;645;639
513;455;429;427;426;455
494;527;552;579;575;583
482;556;618;673;708;696
483;446;438;449;464;487
497;483;481;492;483;504
510;582;639;690;712;697
508;495;503;525;549;557
497;458;439;439;429;456
491;557;607;652;664;660
482;520;561;603;638;634
475;428;410;414;417;449
471;506;535;567;567;578
468;539;600;656;693;684
461;425;418;431;447;472
461;455;459;474;468;492
467;546;609;664;691;678
472;460;470;495;521;533
478;435;417;418;409;437
486;546;594;638;649;645
487;516;550;590;621;616
484;431;408;409;407;438
478;512;540;569;567;574
483;547;604;657;692;678
486;441;428;436;448;470
477;471;474;487;479;498
486;563;623;676;701;685
508;485;489;509;532;540
506;462;440;439;426;452
499;564;613;658;668;661
486;519;556;595;628;624
495;441;419;419;418;448
516;541;564;589;585;590
530;584;634;680;710;693
542;487;465;466;471;489
557;539;531;537;520;532
565;632;685;729;747;724
550;534;537;553;572;576
534;501;483;482;469;492
539;606;657;700;713;703
528;559;594;631;663;659
544;487;462;459;457;486
569;592;612;635;630;633
584;634;680;722;750;732
582;529;506;504;508;526
567;563;562;570;556;569
560;640;701;749;771;752
545;533;541;561;585;594
522;494;484;487;480;508
513;589;648;698;716;713
520;547;582;621;657;658
534;477;454;452;451;485
542;572;597;624;623;630
544;602;653;700;732;718
551;499;478;479;487;508
543;539;541;551;540;555
543;619;679;728;753;736
545;525;528;545;567;578
524;494;480;482;472;499
520;594;650;698;714;709
521;546;579;616;650;649
528;475;451;450;448;480
530;566;595;624;623;628
518;582;638;688;722;710
512;468;455;460;471;496
506;509;517;533;526;546
511;588;651;705;733;720
523;500;502;520;543;557
553;505;481;477;464;490
570;626;670;709;718;707
536;561;590;621;649;645
508;468;451;451;449;479
512;556;591;623;625;630
517;577;632;682;717;705
523;472;454;458;467;492
527;525;528;542;533;550
537;608;666;715;741;724
535;511;511;526;547;560
523;491;477;478;467;493
518;592;649;696;712;704
515;536;567;601;633;634
515;464;443;442;439;470
519;559;590;622;623;627
527;582;632;679;712;699
522;473;454;457;464;488
516;521;528;544;535;551
514;592;655;708;736;721
504;486;491;510;534;550
495;468;458;464;456;485
498;573;631;682;700;694
510;524;551;585;617;619
513;460;435;434;430;460
508;550;583;616;617;620
512;568;618;667;700;685
523;468;446;448;454;478
533;530;533;546;536;549
530;602;660;710;736;718
511;492;494;511;532;546
491;469;461;468;459;488
509;581;638;688;705;697
532;537;559;590;619;619
546;484;454;449;441;468
536;576;607;636;636;635
530;585;634;679;711;696
518;471;454;456;462;487
497;512;527;546;541;557
480;566;636;694;727;716
440;436;451;479;508;531
412;405;410;428;430;467
477;542;598;652;676;673
596;561;559;578;601;599
652;554;497;473;450;467
670;681;686;694;673;657
682;710;734;756;766;733
635;583;554;542;531;540
568;599;617;631;618;622
535;633;708;765;797;780
512;506;520;544;572;591
486;478;482;497;498;533
477;565;637;697;728;728
487;502;533;572;612;625
512;455;432;433;433;470
505;550;586;622;628;636
490;547;598;648;685;677
481;435;420;426;435;466
483;496;511;532;529;546
498;569;629;683;714;702
494;466;464;481;501;520
490;464;454;460;451;479
498;572;629;680;697;689
500;508;529;559;588;592
490;445;424;424;418;448
486;537;578;615;619;621
487;540;589;637;672;661
486;435;417;421;428;455
484;497;513;534;529;543
492;564;625;679;711;697
501;468;464;478;497;514
502;474;462;467;456;481
504;578;635;685;702;691
501;508;529;559;587;590
491;446;426;427;420;449
481;536;579;618;625;625
475;529;580;629;666;657
480;429;410;415;423;452
495;503;516;537;531;545
493;564;624;678;708;695
485;456;454;469;488;507
483;460;453;460;452;477
491;565;625;676;696;684
499;500;519;547;576;579
510;456;430;427;419;445
499;550;589;625;629;627
479;534;583;630;665;654
480;431;413;417;423;452
478;497;515;538;534;548
469;548;612;669;703;692
460;435;437;455;477;498
449;435;434;447;441;470
460;538;602;657;681;671
469;470;490;521;553;560
474;424;402;404;398;428
479;528;568;606;612;612
474;520;565;610;643;634
468;418;398;402;406;435
476;492;509;531;526;538
499;563;619;670;700;684
511;468;457;467;480;496
511;484;472;476;462;482
517;589;644;692;708;690
527;522;533;558;581;582
544;487;457;450;437;460
563;603;634;665;664;656
573;604;637;672;697;679
561;504;477;470;467;488
545;566;583;601;592;598
538;612;673;724;754;738
536;503;497;508;524;542
531;513;507;515;504;529
544;618;676;725;745;730
558;550;562;584;609;613
566;512;484;478;466;491
558;610;650;684;688;683
546;590;634;673;704;694
540;489;468;468;470;498
535;558;578;601;596;607
545;613;672;723;755;741
542;506;497;507;522;541
534;518;513;520;510;533
534;613;673;724;746;731
546;540;552;576;603;609
542;494;472;468;459;486
526;586;632;671;680;678
525;567;610;653;687;679
525;471;449;450;454;484
521;545;565;588;585;597
526;595;654;705;738;726
534;493;483;491;505;525
530;512;506;512;501;523
540;614;671;720;739;722
550;539;548;570;594;599
537;492;470;467;456;482
528;589;634;674;682;679
530;569;610;650;684;675
514;466;447;449;452;484
523;547;568;592;589;600
550;610;664;712;743;729
552;507;493;498;509;527
537;524;519;525;513;533
541;618;678;727;747;729
538;532;545;568;594;600
525;486;467;467;457;485
521;584;632;675;685;683
532;566;605;645;679;672
539;481;456;454;455;485
537;560;579;602;598;607
528;598;657;708;741;728
519;484;475;484;499;520
509;501;501;512;504;528
493;580;647;702;728;716
485;486;504;533;564;576
500;456;438;439;433;464
532;580;621;660;671;668
542;566;596;631;661;655
522;469;445;442;441;471
506;540;565;590;586;596
508;579;638;691;725;713
514;473;463;470;484;505
515;502;500;510;500;521
529;602;659;709;730;714
551;530;534;553;574;579
551;502;476;470;456;480
530;596;643;684;692;686
506;549;591;633;667;662
495;451;435;439;442;475
500;533;560;590;590;601
507;574;633;687;722;712
508;466;454;462;477;500
504;496;496;507;498;520
502;581;644;696;721;707
483;480;495;522;549;560
446;423;416;424;421;453
446;520;578;632;651;653
502;519;550;590;625;624
584;492;448;436;428;455
643;630;624;630;610;606
677;705;732;757;768;737
682;613;574;558;546;548
623;619;612;610;585;589
569;667;736;785;803;778
543;550;570;595;622;628
520;497;491;498;496;525
502;583;646;699;721;722
506;543;586;630;672;676
503;456;439;444;451;489
483;526;560;594;600;615
475;549;614;672;714;709
482;441;431;443;460;490
478;475;480;496;492;518
472;555;620;676;705;696
466;458;471;497;525;541
459;426;414;419;414;446
469;536;590;639;655;654
482;505;538;577;611;610
501;439;412;410;408;439
500;529;553;579;576;581
508;567;620;667;698;683
534;476;453;453;458;477
542;526;520;526;510;523
522;600;659;708;730;709
493;488;500;523;547;556
479;451;442;446;439;468
482;555;612;662;680;676
480;509;546;587;623;624
480;430;410;414;414;448
486;521;550;581;582;590
496;556;610;660;695;682
514;459;439;442;450;472
529;516;512;520;507;522
529;601;656;704;725;706
496;488;497;517;540;550
471;448;439;445;438;467
454;537;601;655;675;673
441;478;520;566;606;610
439;396;383;391;397;434
459;494;526;561;567;577
487;538;589;639;674;664
495;439;417;420;428;452
492;487;488;501;489;506
501;573;630;680;703;686
500;479;481;499;519;529
498;461;443;444;432;457
497;567;620;667;680;672
488;512;544;581;613;610
474;428;411;414;413;444
460;506;544;579;584;591
448;518;580;637;676;667
462;414;400;409;422;451
484;477;480;495;488;506
493;562;619;671;697;682
492;469;470;488;509;521
496;458;441;441;429;454
509;574;625;670;682;671
531;539;561;589;616;610
541;479;450;441;432;457
554;582;605;628;621;618
575;620;662;701;725;703
577;518;490;485;484;500
546;553;559;570;557;566
527;612;678;730;756;737
525;508;515;535;557;570
523;492;479;483;475;502
521;595;652;702;719;712
539;550;575;608;638;638
555;494;465;460;453;482
555;590;616;643;641;641
552;607;655;699;729;713
555;501;479;477;482;503
560;559;562;573;562;575
573;640;694;740;764;745
565;540;537;550;567;578
547;519;505;505;493;519
540;617;675;723;740;730
528;550;580;614;647;647
522;477;459;459;458;489
521;566;603;637;641;646
524;581;633;681;717;706
522;472;454;457;466;493
511;521;533;552;545;563
528;600;659;711;740;726
555;519;512;524;542;556
541;508;491;491;478;504
528;606;663;711;726;716
530;544;570;600;630;631
534;482;459;457;451;480
538;579;611;643;644;645
552;600;645;688;719;704
552;495;471;470;473;497
528;541;552;569;560;574
518;598;662;716;746;733
516;494;497;514;537;554
517;489;478;483;475;503
522;596;653;702;720;712
510;525;551;583;615;619
507;461;441;442;437;469
523;564;598;631;635;636
538;583;627;670;702;689
545;486;460;458;460;484
539;546;554;569;559;570
535;609;668;719;745;728
535;508;505;519;537;552
521;497;488;492;483;508
501;586;650;703;724;715
492;510;539;574;608;614
497;452;434;436;434;466
502;549;588;624;631;635
516;563;609;654;688;678
523;465;442;441;446;473
511;524;536;555;547;561
503;580;642;695;725;713
506;479;478;493;512;530
514;485;473;478;467;494
518;590;647;697;714;703
514;521;541;570;600;602
538;481;453;448;439;466
563;596;623;651;650;646
559;600;640;678;706;689
539;488;466;464;465;488
522;542;558;578;570;581
526;600;662;715;745;730
517;491;491;506;525;543
500;483;479;488;481;508
488;574;639;694;718;710
469;487;516;552;587;597
449;416;406;414;416;452
444;504;553;598;612;621
469;515;563;612;651;647
537;459;424;420;421;449
612;585;573;576;557;562
634;674;708;740;753;725
645;591;565;557;557;558
644;606;580;568;541;549
617;694;747;786;792;766
572;589;612;637;662;658
544;513;501;502;497;524
531;594;643;685;696;697
514;572;626;676;718;712
488;450;441;450;463;499
472;503;531;562;568;589
476;555;622;682;724;719
489;456;454;471;495;522
483;463;458;468;463;496
480;560;623;678;701;694
484;486;505;536;567;576
498;447;424;423;416;447
506;553;592;628;633;633
498;543;587;630;663;653
484;436;418;420;424;453
483;505;526;550;546;558
499;567;626;679;711;698
511;472;463;473;488;506
513;489;479;485;472;494
520;593;650;698;716;701
505;507;524;551;579;582
478;444;429;432;427;455
474;537;585;628;639;640
487;530;575;620;657;650
490;434;413;416;420;452
484;505;525;550;547;560
477;551;613;669;703;692
484;449;443;457;474;495
494;471;464;472;462;486
508;579;636;685;705;689
501;497;511;536;562;568
486;445;427;427;419;447
499;552;594;634;641;639
513;547;586;626;658;649
507;451;427;426;427;455
496;521;542;565;560;570
496;568;628;681;714;701
475;448;446;460;479;499
450;447;452;467;463;489
452;538;607;666;693;683
468;463;481;511;543;553
472;426;407;409;403;434
472;528;574;616;626;626
475;513;555;598;632;626
481;424;401;402;406;436
489;508;528;551;546;556
483;552;611;664;697;682
467;436;431;444;460;481
451;444;447;461;454;479
460;541;606;662;686;674
489;475;485;510;537;544
524;462;432;426;414;438
541;583;616;649;651;643
531;562;596;630;656;643
527;470;444;439;435;460
527;551;569;591;583;587
542;603;656;704;732;714
554;506;489;492;501;516
551;532;523;528;512;529
556;629;685;731;748;728
553;543;551;571;594;597
544;502;481;478;466;490
540;601;647;688;696;691
540;576;614;653;685;677
533;481;459;458;459;489
532;560;583;608;605;614
533;600;658;709;742;730
537;495;483;490;502;524
536;522;518;526;516;536
541;617;676;725;747;730
547;533;541;561;585;592
545;501;479;475;464;489
548;605;650;690;698;693
533;569;606;647;678;672
519;470;451;452;454;485
520;551;577;604;604;613
528;593;650;701;735;723
533;489;475;481;494;515
532;519;516;524;514;534
537;612;671;720;742;725
550;532;537;556;578;585
540;498;477;474;462;487
523;591;641;685;696;691
534;564;600;637;670;664
536;481;456;454;454;483
531;562;587;612;610;617
524;592;650;702;736;723
512;476;466;475;488;511
508;503;506;519;511;534
509;590;654;707;733;719
524;508;515;536;562;572
541;492;468;465;453;479
549;605;649;688;697;689
532;563;597;633;664;657
513;467;448;448;447;478
518;552;580;608;607;614
520;584;641;693;727;715
506;467;456;465;478;502
501;498;502;516;508;530
533;601;658;708;732;717
532;512;517;535;558;567
515;479;461;461;450;477
512;580;631;677;690;686
514;542;577;614;648;645
518;463;440;438;437;468
518;550;577;604;602;609
513;577;634;685;718;705
504;463;451;458;470;493
501;498;502;516;509;528
523;595;653;704;729;714
527;507;510;528;551;561
500;469;455;456;446;474
483;560;619;668;684;681
497;525;560;599;633;633
520;459;433;431;429;460
538;562;584;608;605;609
544;599;647;692;721;705
538;489;470;471;477;496
514;517;522;534;524;540
500;586;652;707;734;719
499;487;496;519;545;558
512;473;456;458;449;477
529;590;638;682;696;689
527;547;576;610;641;637
527;471;446;443;440;469
521;557;586;614;613;617
481;557;620;673;710;699
426;407;410;427;445;476
389;417;443;474;480;509
456;527;591;651;687;680
588;518;495;502;519;530
649;561;510;487;459;475
675;706;726;745;736;710
675;673;680;689;697;675
633;580;548;531;511;523
587;640;675;699;690;683
558;635;698;748;781;762
510;488;488;501;516;541
482;506;528;555;558;581
475;568;644;708;748;742
481;468;481;508;542;566
482;451;441;450;449;485
487;558;615;667;688;689
480;504;536;575;612;618
486;434;413;415;415;451
497;533;562;594;596;603
491;550;603;652;688;676
488;441;425;430;439;465
483;487;495;512;505;523
490;565;627;681;709;695
498;474;475;493;515;530
494;460;446;449;437;465
487;560;617;666;683;676
483;504;534;570;603;604
481;432;413;413;411;442
479;522;558;591;595;599
489;545;597;646;681;668
486;437;420;424;433;459
480;486;495;514;506;522
490;564;625;679;707;691
496;471;471;488;509;524
495;462;448;451;440;466
504;573;626;674;689;679
518;527;550;580;608;606
525;468;441;435;428;454
521;561;593;621;620;619
501;563;616;664;697;682
471;435;425;433;443;470
457;475;493;517;514;533
470;548;614;672;705;695
489;459;459;478;501;520
484;451;438;443;434;464
476;552;611;661;681;673
469;488;516;551;584;588
466;419;401;403;400;432
467;513;551;587;592;596
470;525;577;628;663;652
474;422;403;408;416;443
479;484;493;511;504;519
483;556;616;670;698;683
479;454;455;472;493;508
464;441;433;439;431;458
457;538;601;654;675;667
454;472;501;538;572;576
454;408;390;394;391;423
484;522;554;590;592;594
534;565;601;641;669;653
548;478;445;438;435;455
523;530;537;549;535;542
518;594;654;704;729;709
548;510;501;510;525;535
581;534;509;503;484;502
585;647;695;733;743;723
560;570;589;614;637;633
534;492;472;469;461;486
533;585;624;659;662;661
537;588;637;682;717;704
543;487;465;464;470;496
552;557;565;580;572;584
565;631;686;733;760;744
552;521;516;527;544;559
526;507;499;504;494;520
532;610;670;720;739;729
536;543;564;593;623;627
538;488;464;461;454;483
548;593;628;660;662;662
552;597;641;682;714;701
546;492;469;467;469;495
535;550;564;583;575;587
536;611;672;725;755;740
528;500;499;512;532;550
522;500;492;498;489;517
519;599;661;712;733;723
519;526;548;578;609;615
517;470;449;447;442;473
537;581;617;651;655;655
557;593;632;671;701;688
542;487;462;459;460;486
533;549;563;581;574;584
529;604;665;717;748;733
522;493;491;503;522;540
517;496;490;497;487;513
530;604;662;712;732;720
535;535;551;577;605;610
531;483;458;455;446;475
520;575;616;653;659;659
511;562;610;655;690;680
504;455;437;439;445;476
504;524;542;565;561;575
529;595;653;704;735;721
543;500;489;498;513;530
532;508;498;502;489;513
533;610;667;716;734;719
534;534;550;576;603;606
511;471;452;452;445;474
497;560;607;648;657;658
500;549;596;642;679;672
515;458;435;436;441;472
516;532;548;569;564;577
507;581;643;697;728;716
502;471;466;479;497;517
506;486;479;487;478;503
515;589;648;698;719;706
510;509;525;552;581;586
491;450;433;434;428;457
494;552;597;638;647;647
519;553;592;634;667;658
525;464;437;434;436;464
550;557;566;582;572;579
552;615;667;713;739;721
534;499;490;497;510;525
508;498;498;505;495;516
502;588;654;708;731;716
503;504;524;553;583;591
511;465;444;444;437;467
513;568;612;652;661;660
506;549;591;634;669;662
508;454;432;433;437;467
519;537;554;576;572;582
529;594;649;699;730;716
528;488;477;484;497;515
505;494;492;501;490;513
486;575;642;698;722;709
466;475;499;532;564;575
439;412;404;413;413;447
445;511;565;615;632;637
522;538;569;608;641;637
631;523;468;449;438;461
656;640;630;629;604;599
647;697;734;765;776;746
644;593;568;559;556;560
605;595;588;586;564;573
565;659;726;776;793;771
526;542;567;597;628;634
508;481;474;481;480;510
506;575;631;680;698;701
513;553;598;643;684;684
526;468;446;447;453;488
511;540;564;591;591;605
493;571;635;691;729;722
479;450;447;461;481;507
466;464;469;485;482;510
470;554;620;678;706;698
488;478;491;517;547;559
495;448;427;426;419;449
489;550;598;641;652;650
488;523;563;605;638;633
483;432;412;414;415;447
480;510;535;563;561;571
489;555;614;667;701;689
499;453;440;448;461;482
496;482;480;489;480;499
503;578;637;687;710;693
509;495;504;525;550;557
522;473;448;444;431;456
531;586;628;667;673;667
512;547;584;622;653;645
489;445;427;429;430;461
481;518;549;578;578;588
486;555;617;672;709;698
478;441;433;444;461;485
466;464;469;484;479;502
489;564;625;678;704;691
523;498;500;519;543;551
512;466;443;440;427;453
480;553;607;653;665;660
459;503;548;592;629;626
456;411;397;403;408;442
454;490;523;556;559;570
454;524;587;644;683;674
472;425;412;422;436;462
490;473;470;481;470;491
498;568;624;675;697;680
492;477;484;505;528;536
478;441;424;425;415;441
478;545;597;643;657;651
477;507;544;584;618;615
475;423;404;405;405;437
483;513;540;568;567;574
499;558;611;661;694;680
500;451;434;439;448;469
470;472;478;493;483;502
456;544;612;669;698;684
482;465;473;496;522;534
529;472;443;438;425;450
557;603;640;676;681;670
544;564;590;619;644;634
530;478;452;448;440;465
523;560;586;613;608;609
522;588;644;694;726;709
528;481;464;468;478;497
538;528;527;536;525;541
545;617;674;722;744;725
556;532;533;548;568;575
565;518;493;488;473;495
575;634;679;718;725;714
560;583;612;644;672;666
553;500;476;473;468;496
565;595;619;644;641;642
552;615;670;718;750;734
523;486;475;482;493;516
500;510;522;540;535;557
520;597;660;715;744;732
551;522;521;538;561;575
571;519;492;486;472;497
572;632;677;716;725;715
568;586;612;641;668;662
557;505;480;475;469;496
532;578;611;640;640;643
505;581;645;699;736;724
489;455;449;460;475;503
501;503;512;531;527;549
523;594;653;706;735;722
522;501;503;521;545;560
521;484;467;466;456;485
534;599;650;694;707;700
531;550;578;610;640;638
522;472;450;448;444;474
530;567;595;625;623;626
558;607;654;699;728;711
573;510;483;480;483;503
551;551;554;564;552;564
532;614;677;728;754;736
529;512;518;536;559;572
528;495;481;482;473;501
531;602;657;705;720;713
518;541;572;607;640;641
497;456;439;441;441;474
500;544;580;615;619;626
517;572;624;673;709;698
526;471;450;451;459;485
512;516;524;538;530;547
514;590;652;704;732;717
525;499;499;515;537;551
532;493;475;475;463;488
536;604;656;702;715;705
533;549;573;604;633;631
543;487;461;456;449;476
554;588;615;642;640;639
525;588;642;689;722;707
485;452;444;452;463;490
476;493;511;534;533;553
490;568;633;690;724;714
495;472;475;495;520;540
495;463;450;454;446;477
507;576;631;679;697;690
514;524;547;578;608;609
510;458;435;432;426;456
514;554;586;617;618;620
523;574;622;667;698;683
543;481;455;453;455;478
560;553;553;562;548;559
560;627;681;727;749;728
534;514;514;528;545;557
505;487;480;486;476;502
498;581;645;699;719;711
499;517;546;582;616;620
503;455;434;435;434;467
492;541;580;616;622;627
466;533;591;645;684;676
430;399;394;407;423;456
422;446;469;498;502;525
508;561;614;666;698;687
612;536;506;505;514;525
650;578;534;514;484;497
680;720;747;770;763;734
694;678;674;680;685;665
640;592;561;544;521;532
573;641;685;717;714;705
537;613;676;728;764;749
524;488;480;489;503;531
499;527;552;579;583;604
478;569;644;707;750;746
465;452;464;490;522;551
473;450;446;459;459;497
489;562;622;677;702;701
490;497;520;552;586;596
486;438;418;418;414;448
489;536;574;610;615;619
495;544;592;638;671;661
496;442;421;423;428;455
488;503;517;538;531;545
500;572;631;685;714;700
521;483;476;488;504;520
506;481;469;473;461;485
496;576;638;689;708;695
487;499;524;556;587;591
470;431;416;419;417;448
481;532;573;612;620;622
502;545;590;636;669;659
491;438;418;420;425;454
469;491;511;535;530;545
493;562;622;676;708;694
529;483;471;481;496;512
520;489;475;477;464;485
485;571;635;687;707;694
473;487;513;546;578;583
479;435;417;419;415;446
489;538;577;616;623;624
512;551;591;634;667;656
531;464;435;431;431;457
506;523;538;557;548;558
467;554;623;680;714;700
447;431;438;459;483;505
452;436;436;449;445;475
484;555;614;667;690;680
518;505;515;540;567;572
516;461;433;428;417;443
487;545;587;625;629;627
457;518;572;620;657;648
452;409;395;402;412;442
445;473;496;525;525;541
457;530;594;652;688;678
470;434;430;445;464;485
480;453;444;451;442;467
492;563;619;669;688;674
484;483;499;527;554;559
481;435;414;414;405;433
503;548;585;622;626;623
520;553;589;628;658;644
519;459;432;428;426;451
516;533;547;566;557;564
523;590;646;696;723;706
531;491;480;488;500;515
531;507;497;501;487;506
536;609;666;713;730;712
564;549;556;576;599;598
578;518;487;477;462;483
544;603;644;679;682;675
521;574;621;663;696;685
543;487;463;462;463;491
565;576;589;607;598;606
559;626;680;728;757;740
544;511;504;512;526;543
537;522;518;525;515;536
548;624;683;732;752;736
547;542;556;579;605;611
532;492;473;472;463;491
524;585;631;672;682;680
522;565;608;651;687;680
531;474;451;451;454;485
542;560;576;596;592;602
551;613;668;715;746;731
544;505;494;500;513;532
540;523;517;523;511;532
546;622;680;728;747;731
537;533;546;570;595;601
534;491;471;470;460;487
554;604;644;681;688;684
543;580;618;657;689;681
530;480;458;457;459;489
532;557;579;602;598;608
506;584;648;703;739;727
483;459;459;474;493;518
487;480;482;496;491;518
516;588;647;699;723;711
529;514;522;544;570;578
536;486;461;456;444;471
538;593;635;672;679;673
534;568;605;642;672;664
533;479;454;452;450;478
533;559;580;603;598;605
519;591;651;704;736;722
523;484;474;483;497;517
546;525;516;523;511;531
576;638;688;732;749;730
561;547;553;570;591;596
524;492;476;474;464;489
499;574;630;676;690;687
495;538;583;629;666;664
498;447;429;433;438;473
504;532;557;585;586;598
508;573;630;684;719;709
511;468;455;463;477;500
504;494;494;503;494;517
506;585;647;698;722;708
536;515;519;538;561;569
573;512;480;470;454;476
561;616;657;693;697;687
516;560;601;639;670;661
494;455;440;444;446;477
508;541;570;599;600;608
536;593;647;697;730;717
534;487;471;476;487;508
504;502;506;518;509;530
483;574;643;700;728;714
485;480;494;520;550;563
489;451;436;439;433;465
494;557;608;654;669;668
496;525;561;600;635;633
484;434;415;416;418;451
479;515;545;575;576;586
519;572;623;672;704;691
569;500;471;467;472;490
572;548;536;537;517;530
538;619;678;724;742;720
516;511;522;543;565;571
496;468;457;461;453;480
498;569;624;673;690;686
507;535;570;609;645;644
541;476;446;442;440;470
562;581;598;619;612;616
533;599;653;700;730;715
491;462;456;465;477;500
453;470;486;508;505;528
426;527;605;671;707;700
417;419;441;476;512;533
436;402;393;403;403;440
485;537;584;631;648;649
573;559;569;594;618;613
635;536;482;459;440;459
658;658;657;661;638;626
685;716;743;767;776;742
664;605;573;557;546;549
607;614;616;619;599;602
569;664;733;784;807;783
530;535;554;579;608;618
485;476;479;492;493;527
467;557;627;688;717;721
471;506;549;596;642;653
478;429;413;420;428;470
470;512;547;583;592;608
455;525;588;644;687;683
455;414;404;415;432;464
484;476;479;494;488;511
511;575;630;680;704;691
532;499;494;506;524;535
549;498;472;465;447;469
532;600;649;690;699;687
492;527;564;600;631;627
471;433;421;426;427;457
483;525;561;597;601;608
514;565;616;665;700;687
496;450;433;439;449;474
463;476;489;509;504;524
455;543;612;671;704;693
467;448;456;479;507;524
474;437;424;429;422;453
481;548;603;651;668;663
485;502;530;564;596;597
495;438;413;411;406;436
509;541;568;596;594;596
508;562;612;658;688;672
504;454;434;436;442;464
500;502;509;523;514;527
505;579;640;691;718;701
504;481;484;500;522;534
492;462;450;454;444;472
495;568;625;674;691;683
511;524;549;582;612;611
520;463;436;432;427;455
487;537;574;608;610;613
455;529;591;646;684;674
443;407;401;413;427;457
445;456;473;497;496;517
453;531;597;656;690;680
459;435;439;461;486;505
465;432;419;425;417;448
481;548;601;650;666;659
485;496;520;552;581;582
482;430;407;405;400;428
490;529;561;593;593;594
496;547;596;641;673;657
489;439;419;422;428;451
483;490;501;519;511;525
492;565;625;679;707;691
506;474;471;486;505;519
494;464;451;455;443;469
499;572;627;676;692;681
513;521;542;572;600;599
541;477;445;438;429;454
562;591;614;639;634;630
562;607;647;686;711;691
556;501;476;472;471;490
550;557;564;578;565;573
556;628;685;734;758;738
558;528;524;535;552;564
552;522;509;509;497;520
548;623;680;726;743;731
549;559;582;610;639;640
550;499;475;472;465;492
535;585;623;657;660;662
533;588;638;684;718;706
542;488;466;467;473;499
559;560;566;580;572;584
567;633;687;734;760;743
551;523;519;531;547;562
538;515;505;508;497;523
551;623;679;727;743;732
538;548;571;601;630;633
516;476;458;459;455;485
520;571;611;647;654;656
524;574;622;668;704;694
509;461;444;447;456;485
511;524;539;559;555;571
542;605;660;710;739;725
546;509;501;511;527;543
534;508;496;499;486;511
539;614;670;717;733;720
547;550;568;593;619;621
529;484;463;460;452;480
507;566;610;648;654;655
513;566;616;662;698;688
536;476;452;452;456;484
578;572;573;585;573;583
577;640;691;736;759;740
529;509;508;520;536;551
489;484;485;496;490;516
491;578;646;703;727;719
500;507;531;565;599;607
511;459;437;437;433;466
525;569;605;641;646;648
546;582;620;661;691;679
547;486;457;453;453;479
519;540;555;574;566;577
510;590;654;708;740;724
515;484;481;494;513;531
503;484;479;487;479;505
512;589;649;701;722;711
529;525;541;567;596;601
541;485;457;451;441;469
539;588;624;658;661;658
524;573;617;659;691;679
509;462;443;445;449;477
503;526;546;569;566;578
514;586;648;702;734;721
515;481;475;487;505;525
520;496;487;492;482;507
521;597;656;706;726;712
519;520;537;563;591;596
516;469;447;445;438;465
501;561;606;646;654;654
498;546;592;638;674;666
524;463;437;435;439;468
552;556;564;580;571;580
548;612;666;714;740;724
497;476;475;488;504;524
458;461;467;482;477;506
473;558;626;684;711;701
490;487;505;535;568;578
500;448;425;424;419;450
512;561;599;637;644;643
522;557;594;633;664;655
517;460;435;432;432;461
509;532;550;571;564;574
518;587;646;697;727;712
527;486;475;483;496;514
537;512;502;506;492;512
542;615;671;718;735;717
535;531;544;567;592;595
516;476;457;455;446;473
523;580;625;665;673;669
500;548;594;639;675;669
459;425;415;422;431;466
459;493;523;555;558;575
491;557;617;673;710;702
499;455;445;455;472;495
455;451;455;468;462;489
443;534;604;663;691;682
527;499;503;524;550;558
616;524;475;457;435;456
649;669;684;703;692;675
661;671;686;704;717;691
651;582;541;522;505;517
598;632;651;665;651;647
551;641;709;762;793;773
518;501;504;519;539;560
492;498;509;528;528;556
490;581;654;715;748;741
491;491;511;544;579;596
483;445;431;437;436;472
485;549;600;647;663;668
489;525;567;611;650;649
495;439;417;418;422;457
500;524;546;571;568;581
505;572;629;681;713;702
506;464;452;460;473;494
499;488;486;496;485;507
498;579;641;694;716;701
494;488;502;527;554;562
488;448;431;432;424;453
489;552;603;647;659;657
485;521;562;604;639;636
475;425;407;410;413;447
461;497;527;558;559;571
483;548;607;661;697;686
520;463;443;447;457;479
521;501;493;498;484;503
520;594;650;698;718;698
518;505;513;533;555;560
506;466;447;445;434;459
503;569;619;663;674;668
498;534;573;613;647;641
490;441;422;424;425;457
484;519;548;577;577;587
485;555;616;671;707;696
493;449;436;444;459;482
496;486;485;496;487;508
501;577;637;689;713;697
503;489;497;518;543;553
493;454;436;437;427;455
475;548;603;651;665;662
462;501;545;588;625;624
467;417;399;404;407;441
484;511;537;566;567;576
492;553;608;660;693;682
489;443;428;434;445;468
475;471;475;488;480;500
473;554;618;673;699;685
480;466;475;498;523;534
481;440;422;423;414;442
479;546;599;644;659;654
489;513;547;584;617;613
495;437;412;411;409;439
492;524;550;578;576;581
507;566;618;667;699;683
521;467;446;448;455;474
516;508;506;516;502;517
523;596;654;704;725;705
536;513;514;530;551;557
535;491;469;466;452;475
540;603;652;693;703;693
546;566;595;626;655;648
540;486;460;457;451;478
539;573;599;625;622;624
547;607;659;706;737;720
551;500;480;481;488;508
554;546;545;554;542;556
564;634;690;737;759;739
566;543;543;557;577;585
555;516;497;494;481;505
542;615;669;714;728;719
543;567;598;633;665;662
556;498;471;468;465;494
560;591;616;642;640;643
548;611;664;711;744;729
537;492;476;479;489;513
532;533;539;553;545;563
536;613;674;726;753;738
542;520;523;540;563;576
535;500;483;483;473;500
538;608;661;707;721;714
533;555;585;619;651;650
522;474;453;453;451;482
504;551;588;620;623;630
508;572;630;681;718;707
525;472;453;456;466;491
542;533;534;546;535;551
554;621;676;723;746;728
547;523;522;536;555;566
536;502;486;485;472;498
537;609;664;710;724;715
532;552;581;614;645;644
528;477;455;454;450;481
515;560;595;627;629;634
514;577;632;682;717;705
520;470;451;454;464;489
523;523;529;544;535;552
526;600;660;711;738;723
520;498;500;518;540;554
512;481;467;470;460;489
508;584;642;691;709;702
521;534;561;594;625;625
532;474;448;444;438;469
535;572;601;630;629;630
527;585;636;683;715;699
520;471;453;456;463;486
516;523;532;548;541;556
519;595;657;710;739;723
521;496;497;514;536;551
513;484;470;474;465;492
519;592;649;697;714;706
530;541;563;594;624;624
531;477;451;448;442;470
516;563;598;631;633;634
515;574;626;673;709;695
516;464;445;447;455;481
512;520;530;547;540;556
513;589;650;703;732;719
519;492;491;506;527;544
517;485;471;473;463;491
522;594;650;698;714;704
514;527;552;583;614;615
503;457;437;436;433;463
497;546;585;620;625;628
499;555;607;656;691;680
493;443;426;431;439;468
496;505;517;536;530;547
504;577;638;691;721;707
506;478;476;491;512;529
501;473;461;465;455;482
510;584;641;689;706;696
520;525;546;574;603;604
526;471;445;440;432;459
538;577;607;637;637;635
536;585;630;673;702;687
529;477;454;454;456;479
527;538;549;566;557;568
541;611;668;718;745;728
533;505;502;514;533;547
504;485;480;486;477;503
483;572;639;694;718;710
455;480;514;553;591;600
422;395;389;401;406;445
407;474;527;576;593;606
474;512;558;608;647;643
590;487;438;426;423;448
636;603;584;580;556;558
650;693;725;754;763;732
668;612;584;575;571;570
637;605;582;571;543;551
586;677;738;782;792;768
544;571;602;634;663;662
513;487;479;485;484;514
495;563;616;662;677;682
491;552;609;663;709;704
486;441;428;436;451;487
476;500;522;549;552;574
479;557;623;681;720;714
480;452;452;470;493;518
477;455;450;460;453;484
492;567;626;678;700;691
503;502;519;546;576;582
504;453;429;426;418;448
499;550;589;625;630;630
503;548;593;636;669;659
506;449;426;426;429;457
500;518;533;555;548;560
500;573;633;687;718;704
497;466;462;476;493;512
489;469;463;471;463;488
482;564;628;682;704;693
474;481;504;535;568;575
476;431;413;414;410;441
488;538;579;618;626;627
503;541;582;625;658;648
512;451;424;423;423;451
512;527;541;560;552;561
505;578;637;689;719;703
498;467;463;475;492;509
491;474;470;478;469;492
493;574;636;689;710;697
487;490;510;539;569;576
478;437;420;422;417;447
481;538;582;624;634;634
480;526;571;617;654;646
486;430;408;410;415;447
482;503;524;547;543;557
494;561;620;672;705;692
498;459;450;461;476;496
481;465;461;471;460;485
480;561;624;679;700;687
483;481;498;526;555;562
486;439;419;419;411;440
482;539;584;625;634;632
475;519;564;609;645;637
467;417;399;402;407;439
458;486;511;539;537;551
458;532;596;653;689;679
468;431;423;437;454;477
487;463;454;463;452;476
509;577;631;679;697;681
522;507;513;534;556;558
518;469;443;437;424;446
522;575;616;653;656;648
524;560;598;636;665;653
525;467;441;439;438;464
525;548;566;587;580;587
549;609;661;709;737;719
561;512;495;497;506;521
552;533;524;527;512;529
553;629;687;733;751;731
552;543;553;574;597;600
545;502;480;476;465;489
554;609;652;690;697;691
558;590;626;663;694;685
550;494;469;466;466;494
542;569;591;614;609;618
542;610;669;719;752;739
547;505;493;499;511;532
538;525;522;529;519;540
535;615;677;728;750;735
532;525;537;561;588;596
535;491;470;469;459;487
546;603;646;685;695;690
544;577;613;650;682;675
531;479;457;456;456;486
522;555;580;606;603;613
528;596;655;707;740;728
534;492;479;485;498;519
533;520;516;524;514;535
530;610;670;721;744;728
531;521;530;552;577;586
528;488;467;465;455;482
530;592;640;682;693;688
527;560;598;637;670;665
521;468;446;445;447;478
519;550;575;601;600;609
526;591;647;698;732;720
528;483;469;476;487;509
520;510;509;519;510;530
527;603;663;714;737;721
534;518;525;544;568;576
525;484;464;462;452;479
518;584;634;678;690;685
515;548;585;624;658;654
518;464;441;440;440;472
522;552;576;602;600;608
527;590;645;695;728;714
531;485;468;473;483;504
519;513;514;524;514;532
521;600;662;713;737;720
523;509;517;537;562;572
525;484;465;463;453;480
525;590;639;683;694;690
519;550;584;622;654;651
506;458;438;439;439;471
506;543;573;601;601;609
530;587;640;689;723;709
537;485;466;469;478;499
524;518;518;528;518;535
519;599;660;712;736;719
514;500;508;529;554;564
512;475;459;460;451;479
513;580;632;678;692;687
505;534;570;607;640;639
509;456;434;433;433;465
522;552;578;605;604;610
522;581;634;682;715;702
511;467;452;457;466;489
495;497;505;520;512;531
505;582;644;699;724;710
520;498;500;519;542;554
522;481;462;461;450;476
515;583;636;681;695;687
507;534;567;603;635;633
501;453;433;433;432;463
497;538;570;602;603;610
498;562;618;670;705;693
502;455;439;445;455;481
503;501;505;519;511;529
516;588;646;697;723;707
525;500;500;516;538;548
527;487;467;465;453;478
527;593;644;688;700;691
521;543;572;605;635;632
509;461;440;440;437;466
511;551;582;613;614;618
516;574;628;676;711;697
514;466;448;452;461;486
504;507;514;529;522;539
494;576;640;695;725;710
474;464;474;497;524;541
449;430;425;436;432;466
430;517;584;642;666;667
444;469;505;547;585;592
545;461;421;414;407;438
636;624;623;633;618;611
663;681;702;725;736;706
678;600;554;532;516;520
660;649;639;634;605;601
599;688;750;794;809;780
553;553;565;584;604;611
516;508;509;520;515;542
495;588;659;718;744;742
490;521;560;604;646;655
480;440;428;436;444;483
472;523;565;606;618;631
472;535;592;647;690;687
483;432;415;423;436;469
489;491;498;516;511;532
498;570;629;682;711;699
502;475;474;490;511;528
502;468;452;454;443;471
502;574;630;677;693;684
498;515;542;575;605;606
503;450;427;425;420;449
504;546;579;611;612;614
497;555;607;656;690;676
479;436;421;428;437;463
481;491;502;522;517;534
488;564;627;682;712;699
481;459;463;481;504;522
482;453;442;447;438;468
501;570;625;673;690;681
514;520;541;570;599;599
513;458;432;428;421;449
508;552;586;618;619;618
501;558;608;656;688;674
491;444;428;432;440;465
482;496;510;530;526;541
490;566;629;684;716;702
498;469;467;484;505;523
488;460;450;456;447;475
487;563;622;673;692;684
487;499;524;558;589;592
488;438;416;416;412;442
498;540;575;609;612;614
492;545;594;641;674;662
484;435;417;420;427;454
480;493;506;526;521;536
483;559;621;676;707;694
476;451;452;470;492;510
471;446;439;446;438;467
474;552;612;665;685;677
473;484;509;542;574;578
477;427;406;406;402;432
474;523;563;600;604;606
475;527;577;624;659;648
481;427;406;409;415;442
489;498;508;528;520;533
499;569;626;678;706;691
499;467;462;475;492;508
491;466;456;461;449;474
502;576;633;682;699;686
523;521;537;563;589;589
540;478;448;440;428;453
546;586;617;646;644;639
545;589;629;668;696;678
546;488;462;458;458;480
544;555;565;581;570;578
557;624;680;727;753;734
564;526;516;523;537;550
554;527;515;516;503;524
553;629;686;733;749;734
560;561;577;602;628;629
561;509;483;477;467;493
551;603;641;675;678;676
534;588;636;680;714;703
530;481;462;463;469;497
537;552;567;587;581;594
548;617;675;725;756;741
549;514;507;515;532;550
544;520;510;514;502;526
537;617;677;726;745;732
542;544;561;587;615;619
535;488;466;464;457;485
530;585;627;664;670;670
524;573;619;663;699;689
525;472;451;452;457;486
516;537;555;578;574;587
521;593;654;707;740;728
529;492;484;495;512;532
532;507;497;501;491;515
532;608;666;715;733;719
530;529;545;571;598;603
521;477;455;453;445;473
516;573;617;655;663;662
520;563;607;650;684;675
525;468;444;444;447;477
523;541;558;579;573;584
526;596;654;706;737;723
532;493;484;493;508;526
533;511;502;506;495;517
532;609;669;717;736;720
525;526;543;568;595;600
522;478;457;455;446;474
523;580;624;663;670;669
520;563;606;648;682;674
518;465;443;444;446;477
518;540;559;582;577;589
521;592;651;703;735;722
520;483;475;485;501;520
513;498;494;502;492;516
519;595;656;707;729;715
518;514;529;554;581;588
515;469;449;447;439;468
517;573;617;657;665;664
519;558;598;638;671;663
530;471;445;442;443;472
528;548;566;588;581;590
520;592;651;702;734;720
515;479;471;480;495;515
511;497;494;504;493;517
511;592;653;705;727;713
514;508;522;547;575;582
513;469;448;447;438;466
519;576;621;661;670;667
526;560;598;636;669;660
525;469;444;442;442;472
520;545;566;589;585;594
510;584;644;697;731;717
505;470;462;472;487;509
502;491;490;501;493;516
516;591;651;703;725;710
514;505;518;541;568;575
505;464;445;444;436;464
504;567;615;658;669;667
501;538;578;619;654;649
498;446;424;426;428;460
501;528;551;578;575;585
511;576;632;685;717;705
509;467;454;461;474;495
508;495;492;501;491;511
521;594;652;701;723;706
521;509;517;538;563;569
523;477;454;451;440;466
519;580;627;669;679;674
509;546;584;624;657;651
523;465;440;438;438;468
530;554;575;598;593;600
526;593;649;699;730;716
524;482;468;474;486;505
506;502;504;515;506;526
495;581;647;702;728;713
473;475;493;521;551;564
439;417;412;421;420;454
426;507;570;626;648;652
471;496;534;577;617;618
580;483;437;425;419;447
639;623;617;622;603;600
655;689;719;746;758;729
675;603;564;546;535;538
644;628;615;609;581;583
594;684;746;791;805;777
544;555;574;598;623;627
509;492;489;497;494;524
494;577;643;698;721;723
495;533;579;625;668;673
487;441;426;433;442;484
481;520;553;587;594;610
480;550;612;669;709;704
485;441;429;438;454;483
492;484;485;499;491;515
502;576;635;687;713;700
499;484;491;512;537;548
493;456;439;439;430;458
494;562;615;661;675;670
491;521;556;595;627;625
488;437;417;418;417;450
482;520;551;581;582;590
484;550;609;662;697;685
490;443;429;435;446;470
489;485;487;501;493;512
495;572;633;685;711;695
500;481;487;506;529;540
494;456;438;439;429;456
492;562;615;662;676;670
495;519;551;588;621;618
492;439;417;418;416;447
490;526;556;586;587;592
487;552;608;660;695;682
488;441;426;432;443;467
486;484;489;504;496;514
496;570;630;684;710;694
499;478;482;501;524;536
486;452;436;439;429;457
485;558;613;661;676;670
487;510;543;580;613;612
485;434;413;413;412;443
484;523;554;586;587;592
481;545;602;653;688;676
483;435;419;425;436;460
473;477;485;502;495;513
474;554;618;673;702;687
482;462;466;487;511;525
487;449;432;434;424;453
488;558;613;660;675;668
484;505;537;572;604;603
481;430;409;410;408;439
481;521;553;586;587;592
479;540;595;647;681;669
478;430;413;419;428;454
479;481;488;504;497;514
493;565;624;677;704;688
492;469;471;488;510;523
489;454;439;441;430;457
506;572;624;670;684;675
522;530;553;582;610;607
528;469;439;433;425;452
537;570;595;621;616;615
549;598;643;685;713;693
554;496;471;467;469;487
557;555;556;565;550;560
563;633;689;735;756;735
563;536;533;544;561;570
556;522;505;503;489;512
553;627;682;727;740;728
547;564;591;622;652;650
541;492;470;467;463;491
533;579;614;647;649;651
534;592;645;692;727;714
540;487;466;467;475;500
548;549;554;568;559;573
544;617;676;727;754;739
532;510;511;527;548;564
528;499;486;488;479;506
542;612;667;714;730;721
545;554;576;606;636;636
545;491;465;461;455;483
543;585;617;647;648;650
540;595;645;689;722;708
529;480;461;463;469;495
519;531;544;562;556;571
527;602;663;716;746;732
531;503;502;517;537;554
527;497;484;487;477;504
532;606;662;710;728;717
531;542;564;594;624;626
521;474;452;451;445;475
527;572;607;640;643;645
536;586;633;678;710;697
541;484;460;459;463;488
533;543;553;569;560;573
524;602;665;717;746;731
521;496;496;512;533;549
526;496;484;488;479;506
544;613;667;713;730;719
544;548;566;593;621;623
529;481;458;455;448;477
523;574;611;645;650;650
520;574;624;670;704;693
506;459;442;445;452;481
507;521;536;557;553;568
521;591;651;704;735;721
531;496;490;502;521;538
519;492;481;485;474;501
509;590;650;701;720;711
511;519;542;571;602;606
528;473;448;444;436;466
537;579;613;645;647;645
531;580;625;666;698;685
526;473;451;450;454;480
525;539;553;571;563;575
517;594;656;710;740;725
504;481;481;497;517;535
494;476;471;480;473;500
510;586;646;698;719;709
531;527;542;569;598;602
530;477;451;447;438;467
517;570;609;644;648;647
516;566;612;656;689;678
517;463;441;441;445;474
510;528;544;566;559;572
510;584;645;699;730;717
505;476;473;487;506;525
502;481;473;482;472;498
508;585;645;697;718;705
507;509;528;556;586;592
496;452;432;432;426;457
499;552;594;632;639;640
510;553;596;639;673;664
516;457;432;431;433;462
514;529;544;564;556;568
517;588;647;698;728;712
517;483;476;487;503;520
515;493;485;490;479;502
526;601;658;708;725;710
537;531;544;568;593;596
543;491;463;458;446;471
537;589;628;663;667;662
528;574;617;659;691;680
514;465;446;447;451;479
499;527;551;575;572;585
490;570;636;693;729;718
488;459;457;473;494;517
468;458;459;473;468;497
450;542;611;671;699;692
449;456;480;514;550;563
510;447;418;416;409;440
597;610;629;653;651;644
635;639;653;675;692;671
658;572;522;499;481;494
661;662;660;661;636;629
614;688;742;782;800;772
562;544;544;552;563;574
536;536;540;552;544;564
529;619;689;746;772;760
515;523;546;578;614;624
501;467;455;460;460;494
500;564;614;660;676;680
504;546;591;637;677;675
498;447;427;431;438;474
484;515;540;568;569;585
469;549;615;675;713;706
463;434;432;449;470;497
470;456;456;469;464;492
482;559;621;674;699;688
497;486;497;521;549;557
509;458;432;428;418;445
511;564;605;644;650;646
508;544;582;622;652;643
508;452;427;426;425;454
498;526;548;573;569;577
495;567;627;681;714;700
491;455;447;458;473;494
476;468;469;482;475;499
471;556;622;678;704;692
482;475;488;516;545;555
502;451;427;426;417;445
507;561;604;644;652;649
502;537;574;613;645;638
496;443;421;420;420;451
505;530;551;575;570;578
508;574;631;682;713;699
502;463;452;461;473;493
489;481;482;493;484;505
484;568;633;688;713;698
484;478;492;519;547;556
478;439;423;426;419;449
484;546;596;640;653;651
479;516;556;598;634;630
470;420;401;404;408;441
474;505;531;560;560;571
488;551;608;660;694;683
499;451;436;442;454;476
495;481;478;487;476;496
490;569;631;683;706;689
482;474;487;510;536;545
478;439;423;424;416;445
473;539;592;638;652;649
460;498;541;584;621;619
457;408;390;395;398;433
470;499;526;555;555;565
492;549;603;654;688;674
504;452;433;437;447;467
501;488;484;492;480;497
515;587;643;691;711;692
526;505;508;525;545;550
528;482;458;453;438;462
536;594;639;679;685;675
540;565;595;628;656;647
549;488;459;453;447;472
551;578;600;622;615;616
551;612;666;712;742;723
545;500;484;487;495;514
554;542;539;546;533;549
567;638;694;740;760;740
569;548;549;564;584;590
551;513;493;490;478;502
529;604;658;704;717;711
530;562;598;636;670;667
556;494;467;463;461;491
565;590;611;634;631;635
554;616;669;716;747;732
543;499;484;487;496;519
531;530;535;547;537;556
532;611;674;727;753;738
535;518;524;543;568;580
527;490;474;474;465;494
526;595;649;694;709;704
525;552;585;622;655;654
520;469;447;446;446;478
517;556;585;615;615;622
530;590;643;692;725;712
540;487;467;469;477;500
533;529;530;540;529;546
540;615;674;723;747;729
545;523;525;541;562;571
535;498;481;480;468;494
524;597;652;698;713;705
520;547;580;617;650;648
528;474;449;448;446;478
533;567;595;624;623;628
525;587;641;690;724;711
516;471;456;460;471;495
510;512;519;533;526;544
508;588;652;705;734;720
521;498;501;519;542;556
532;490;470;469;457;484
546;608;656;699;710;701
541;558;584;616;644;640
531;479;455;451;446;475
524;566;597;627;627;630
519;582;638;687;721;707
522;474;457;460;470;493
524;524;529;542;534;550
524;601;662;714;741;726
514;496;500;519;542;557
512;480;466;469;459;488
521;591;646;692;708;701
524;541;568;601;632;631
524;470;446;443;439;469
529;567;597;626;626;628
528;585;636;683;715;700
521;472;454;456;464;488
515;520;528;543;535;551
518;594;656;709;737;722
512;491;494;512;535;550
500;472;460;465;457;487
507;580;638;686;704;697
516;529;556;588;620;621
512;459;436;434;430;461
513;554;587;619;620;623
508;566;619;666;700;687
510;460;440;443;450;476
520;520;525;540;531;546
521;594;653;704;731;716
508;487;489;506;527;542
501;474;463;467;458;486
507;581;639;688;706;697
503;519;547;580;612;614
500;451;430;430;426;457
509;551;585;618;620;623
509;563;613;660;694;681
503;453;434;437;444;471
499;508;519;536;530;545
504;580;642;695;724;710
507;480;479;495;516;533
508;476;463;466;455;483
521;590;644;691;706;696
527;533;554;582;610;610
526;472;446;442;434;461
531;573;605;636;636;634
540;588;633;675;706;689
536;481;458;457;460;483
513;528;541;558;551;563
492;578;646;702;735;721
460;450;461;484;511;532
422;417;423;440;440;476
419;510;582;645;675;675
477;476;498;532;568;578
591;494;445;430;415;442
649;648;651;662;647;636
657;678;699;720;731;702
661;588;545;525;508;516
625;635;638;643;619;616
578;668;733;782;804;779
544;534;542;559;580;593
513;507;510;521;518;546
495;589;662;721;749;744
482;505;540;579;620;632
483;442;427;433;438;476
486;538;582;623;635;644
481;534;586;636;676;673
471;423;408;415;425;460
482;494;509;531;528;547
509;573;630;682;712;701
524;483;473;482;499;516
518;488;474;476;462;487
510;587;645;694;711;697
494;506;529;560;589;592
486;443;425;426;421;451
478;535;579;619;628;629
472;526;578;627;665;656
476;425;407;411;419;450
493;503;517;537;532;546
497;567;627;679;710;697
499;465;460;472;489;508
510;481;469;473;460;485
520;591;646;694;710;695
512;515;533;559;586;588
498;455;434;433;425;453
491;548;592;631;638;637
488;539;588;634;669;660
491;438;418;421;427;457
497;512;528;549;544;557
499;571;631;684;716;702
491;459;455;470;487;506
479;462;458;467;458;484
495;570;629;681;703;689
507;503;518;544;572;577
506;456;431;428;419;447
495;550;593;631;637;636
489;537;583;627;662;653
485;434;415;418;422;452
476;499;520;545;542;555
472;550;613;670;705;693
479;445;440;454;473;495
469;452;449;459;452;478
468;550;613;668;691;680
476;475;493;523;552;560
472;426;407;408;401;432
467;526;571;612;621;622
483;522;564;608;642;634
507;442;414;412;412;440
514;525;537;556;547;555
506;576;633;683;713;695
504;468;460;468;482;498
502;484;478;484;472;493
511;587;646;696;714;698
529;518;528;551;575;579
541;484;456;449;436;461
541;592;630;665;667;661
534;573;611;650;680;667
524;471;449;447;447;475
516;541;563;586;580;589
532;598;656;707;738;723
565;512;494;497;508;524
578;547;531;530;513;531
576;647;699;742;756;735
559;555;566;586;609;610
544;503;483;479;469;493
545;605;651;690;698;693
547;585;625;664;698;688
544;490;466;465;467;496
539;565;586;608;604;614
541;611;669;721;753;740
533;497;487;496;511;532
510;505;506;517;509;533
518;599;663;716;740;727
531;521;533;557;584;593
535;487;464;461;452;479
534;592;636;675;685;682
524;563;602;642;675;669
519;468;446;445;447;479
525;550;571;595;591;602
533;598;654;705;737;723
530;488;475;482;495;515
524;511;509;517;507;528
528;605;665;715;737;722
526;517;528;551;577;584
520;478;458;457;447;475
522;583;630;673;683;680
520;555;592;632;665;660
533;473;447;445;444;475
531;556;577;600;595;603
519;590;648;700;733;719
509;474;464;472;486;507
510;502;501;512;504;525
522;598;658;709;732;717
527;514;522;544;568;577
534;487;464;460;449;475
538;597;642;682;691;685
530;562;598;635;666;659
520;469;448;447;446;476
511;545;573;600;599;607
520;586;645;696;731;718
526;480;466;472;483;505
525;514;513;522;511;531
528;604;663;714;736;720
517;507;517;539;564;573
501;466;451;452;445;473
506;572;624;670;684;681
512;541;577;615;649;646
518;461;436;434;434;466
533;557;578;602;597;604
538;598;650;697;728;713
530;485;468;472;480;501
523;517;517;527;516;534
523;601;662;714;737;720
515;504;514;535;560;570
507;471;456;456;449;476
507;576;629;675;690;686
505;535;571;610;644;642
505;453;431;432;432;464
509;542;569;597;595;603
508;573;630;681;715;702
502;459;446;451;463;487
497;495;499;512;504;524
500;579;642;695;722;706
500;485;493;514;540;552
509;467;448;447;437;466
526;586;633;677;688;681
519;542;572;607;637;633
515;463;437;435;432;461
510;546;574;603;601;606
502;569;627;678;713;699
508;461;445;450;461;484
515;508;509;521;512;529
521;594;653;704;728;711
516;498;502;521;543;554
497;465;450;453;443;472
504;574;628;675;691;685
519;537;566;601;633;630
525;467;441;437;433;462
527;560;586;613;610;614
526;586;639;687;718;703
507;465;450;456;464;487
480;492;503;522;515;534
465;556;626;685;717;706
445;442;459;486;517;536
441;415;409;419;417;452
503;558;607;655;671;667
602;578;582;602;624;618
658;559;503;478;455;473
681;684;683;687;663;649
665;710;744;771;782;749
596;560;541;536;533;543
541;567;584;600;590;600
527;622;696;754;786;769
511;505;520;546;577;594
481;464;463;475;476;511
474;559;626;684;711;713
489;510;544;584;624;633
504;448;424;425;427;464
504;542;572;604;608;617
499;559;612;661;697;687
498;449;431;434;444;471
495;499;507;523;516;534
496;574;636;689;718;704
491;472;476;495;519;535
484;455;443;447;439;469
484;560;619;669;687;681
480;500;531;566;600;602
485;434;413;413;411;443
495;534;566;598;600;603
499;554;605;652;685;672
492;442;424;427;434;459
487;494;504;521;513;530
503;575;634;687;714;699
504;477;477;493;513;528
486;458;447;451;442;469
487;563;622;672;690;682
505;514;537;569;600;601
504;450;426;423;417;447
507;547;579;611;611;613
499;557;608;655;688;674
488;441;424;429;436;462
487;497;509;527;521;537
507;577;636;688;716;701
514;483;480;494;513;528
501;471;458;461;450;476
495;573;632;683;700;690
479;499;528;563;596;598
464;424;408;413;411;443
464;515;556;596;603;609
481;533;584;633;670;660
499;439;415;417;423;450
496;501;510;527;519;533
485;563;625;679;708;693
475;454;457;475;496;513
469;445;438;446;438;465
480;556;615;667;687;678
482;491;515;547;579;582
478;429;409;409;404;435
483;528;565;600;604;606
487;537;586;632;665;654
490;434;413;415;420;446
493;501;512;530;522;535
496;568;628;680;709;693
511;476;471;483;499;514
525;488;470;471;456;479
538;605;655;700;713;698
534;537;553;578;603;601
531;480;454;448;438;463
541;583;617;647;648;643
550;593;635;675;704;688
549;491;466;462;463;485
545;556;567;583;572;582
554;624;680;729;755;738
562;526;518;527;541;554
564;533;518;518;504;525
565;638;694;739;754;738
554;560;579;605;632;633
535;493;474;472;465;493
535;588;629;666;671;671
540;589;635;679;713;702
541;486;463;462;467;496
534;550;565;584;578;592
532;606;666;719;750;737
539;506;499;510;529;547
531;507;497;502;492;518
522;603;665;716;736;724
517;524;545;574;605;610
524;475;453;451;445;475
537;583;619;654;659;659
539;582;623;664;696;685
535;479;455;453;455;482
531;548;563;582;574;586
528;601;661;713;744;729
533;498;492;502;519;537
537;512;501;505;494;517
537;614;672;721;739;725
522;528;547;575;603;607
508;468;450;451;445;475
509;566;610;649;658;659
522;565;608;651;686;677
534;473;447;445;448;476
534;549;564;582;575;585
535;604;662;712;741;726
530;497;489;499;513;531
523;505;497;504;493;517
521;602;663;715;735;721
522;521;537;564;593;599
519;473;452;450;443;472
524;577;618;656;663;663
526;566;608;649;682;673
522;467;444;443;445;476
524;544;561;582;576;588
527;596;654;705;736;722
528;491;482;491;505;524
526;506;498;505;493;516
525;604;664;714;734;719
521;519;534;560;587;593
523;476;455;453;444;472
524;580;623;661;669;667
516;559;602;644;678;671
515;462;439;440;443;474
510;535;556;580;577;589
505;580;640;695;728;716
511;474;466;476;492;513
514;496;490;497;488;511
525;600;658;707;728;713
535;524;534;555;580;585
534;485;462;457;445;471
525;584;628;667;674;670
519;560;601;643;675;667
518;463;441;441;444;473
515;540;562;586;583;593
515;584;643;696;730;717
509;472;464;473;489;511
504;491;489;498;490;513
504;585;647;700;723;710
506;499;513;538;565;574
497;456;437;438;430;460
487;552;602;647;658;658
484;525;568;612;648;644
493;437;415;416;420;452
502;525;545;570;567;577
506;571;628;679;712;699
516;471;457;463;475;495
519;502;495;501;489;508
525;601;658;706;725;707
530;517;525;545;568;572
524;481;459;456;444;469
520;582;630;671;679;674
517;553;592;631;664;657
506;456;435;436;438;469
508;538;563;590;588;598
522;585;641;692;725;712
523;479;465;471;483;504
509;500;499;510;499;520
494;580;646;699;724;710
464;468;488;517;548;561
431;409;405;415;414;449
435;508;568;621;642;646
503;517;549;587;622;622
611;507;454;437;426;451
663;645;635;636;614;607
680;713;739;763;772;740
686;619;582;564;552;552
633;626;618;614;588;591
568;670;740;789;809;783
524;539;565;593;623;630
491;477;477;488;489;522
485;567;631;687;711;716
488;527;572;620;664;670
497;445;426;431;440;479
502;533;560;591;595;609
500;566;624;677;715;708
491;451;440;448;463;491
484;481;485;499;493;517
490;570;633;687;714;702
490;477;487;509;536;549
482;446;430;433;425;455
478;547;601;650;665;662
478;509;545;586;621;620
488;432;408;409;410;442
495;525;551;578;577;585
497;559;614;664;697;684
492;447;432;438;448;471
481;479;483;497;488;508
491;568;629;683;708;693
497;478;484;504;528;539
493;454;436;437;427;454
497;563;615;660;673;667
491;518;553;590;622;620
490;438;416;416;415;446
492;528;557;586;585;592
491;555;612;663;697;684
483;440;427;434;446;469
480;479;485;500;492;511
496;570;631;684;710;694
507;483;486;504;527;537
491;456;440;441;430;458
464;545;605;655;672;667
460;493;531;573;609;610
481;425;403;405;405;438
489;522;550;581;581;587
493;551;603;653;686;673
495;445;426;429;438;461
494;490;493;506;496;513
485;565;628;681;708;692
470;458;467;489;514;528
472;439;426;430;422;453
481;549;604;653;669;664
479;501;532;569;602;602
477;425;403;404;402;434
472;513;546;578;580;586
469;532;589;641;677;664
475;425;409;415;425;450
475;476;482;497;490;507
492;564;623;675;701;685
505;477;475;492;511;523
499;462;444;444;431;457
507;575;627;672;684;674
537;543;565;593;618;613
536;476;447;440;431;455
538;573;600;625;621;619
558;607;651;693;720;700
568;507;480;476;477;494
563;560;561;568;554;563
567;639;695;741;763;741
562;537;536;548;566;575
551;519;503;502;490;514
546;620;676;722;737;727
540;559;588;620;652;651
543;490;467;464;460;490
555;591;620;649;649;652
558;611;658;702;733;719
552;499;478;478;483;506
544;549;556;569;560;575
545;621;682;732;760;744
539;516;517;532;554;569
532;502;490;491;481;510
536;610;666;714;730;723
546;558;581;611;641;642
554;497;470;465;457;486
547;590;621;652;651;652
531;592;644;691;724;711
522;477;460;463;471;497
530;536;546;561;555;570
539;611;671;722;750;736
536;509;508;523;543;559
536;504;490;492;480;508
537;611;666;713;729;720
529;544;569;600;630;632
514;469;449;449;445;476
514;562;600;634;639;642
526;577;626;672;707;695
540;480;456;455;460;486
541;544;550;563;554;568
538;611;670;719;747;731
526;501;501;515;534;550
513;490;480;485;476;503
521;596;655;704;724;713
529;537;558;588;618;620
533;479;453;449;443;472
540;582;615;645;647;647
530;583;631;675;707;694
521;472;453;454;459;485
520;533;545;563;556;570
522;598;659;712;742;727
515;489;488;504;525;542
510;486;477;482;473;501
521;595;653;702;721;710
533;535;555;582;611;613
533;479;454;449;441;469
524;574;611;645;647;647
520;572;621;665;698;687
521;468;447;448;453;480
512;527;541;561;555;568
511;587;649;704;735;722
515;484;481;495;515;534
518;490;479;483;473;500
523;597;655;702;721;709
528;531;549;575;604;607
536;482;455;450;440;467
533;580;616;649;652;650
523;574;620;663;696;683
514;464;445;446;451;478
500;521;540;561;557;571
484;567;635;692;728;716
493;465;464;481;502;523
509;481;471;477;468;495
522;593;648;697;715;703
517;519;536;563;591;595
507;461;439;437;430;459
499;555;598;636;642;642
492;543;593;639;674;665
477;431;416;421;429;459
480;500;519;543;541;556
512;576;633;685;716;703
527;484;472;480;495;512
513;490;480;483;470;494
517;593;651;699;717;702
538;530;543;566;591;592
541;486;459;452;440;465
535;586;624;658;661;656
529;574;617;658;689;677
522;470;448;447;450;477
515;537;555;577;571;582
518;591;652;705;737;723
513;480;475;487;505;524
497;483;480;489;481;506
482;569;636;691;717;706
463;475;501;534;569;579
443;411;401;408;409;444
434;502;555;603;619;627
497;526;564;607;643;637
611;507;455;439;431;455
665;637;620;616;590;587
689;724;751;776;783;749
685;627;596;582;574;572
626;614;603;597;571;578
574;673;742;791;806;782
536;558;587;619;650;654
502;480;476;485;486;518
487;562;621;672;693;700
489;538;591;641;688;689
488;439;422;429;442;482
480;508;533;562;566;586
474;551;617;675;713;709
485;447;441;455;474;501
487;469;464;475;468;495
491;568;628;681;703;692
492;487;501;527;555;564
485;442;423;422;414;444
484;544;590;632;642;641
484;524;566;608;643;637
479;427;406;408;412;444
484;508;530;555;552;563
499;565;621;674;705;692
505;462;449;457;470;489
495;481;477;485;474;495
491;572;634;687;708;692
495;489;503;528;555;561
490;448;429;429;420;447
486;549;598;641;652;649
478;519;562;606;642;637
483;430;409;411;414;447
481;508;532;559;557;568
484;553;613;667;702;690
481;442;432;442;458;480
482;468;466;477;468;491
496;570;629;679;702;687
502;489;498;520;545;552
490;448;428;427;417;444
491;553;601;644;654;650
493;527;565;605;638;632
484;432;412;414;414;445
472;505;533;562;561;571
467;541;604;660;696;685
477;435;425;435;451;474
480;467;466;477;469;491
479;558;620;673;697;683
473;466;479;505;531;541
467;429;412;415;407;435
466;532;584;630;644;641
465;500;540;582;618;614
464;413;392;395;398;430
459;492;520;549;550;560
468;534;593;647;683;672
484;435;420;428;439;461
489;475;471;481;469;489
500;572;629;679;699;681
501;486;492;512;534;540
500;456;435;433;421;445
507;568;615;657;667;659
517;541;572;607;637;630
528;466;437;432;428;455
539;562;580;602;594;597
555;609;658;703;729;710
558;505;483;482;487;503
548;539;535;541;526;540
557;630;687;733;753;732
554;538;542;559;580;585
549;508;487;483;470;494
555;618;666;707;717;709
550;578;610;645;675;670
555;499;473;469;465;494
561;590;612;636;631;635
558;621;675;722;753;737
546;503;488;491;500;521
537;536;540;550;541;560
546;622;683;733;758;742
546;529;535;553;577;588
541;502;483;482;472;499
539;608;659;704;717;711
530;559;593;630;663;661
527;476;454;453;453;485
530;564;593;620;620;627
536;596;651;700;734;720
536;486;469;471;481;504
528;525;528;539;530;548
531;608;668;719;744;728
537;517;520;538;560;572
532;493;474;474;462;489
524;595;649;695;709;703
527;551;582;617;649;647
544;484;457;453;449;479
546;577;602;627;625;628
538;600;653;700;732;717
535;488;470;473;481;503
527;528;533;546;537;554
520;602;665;718;745;730
521;504;510;529;554;567
521;485;469;470;461;489
530;598;651;695;711;704
539;555;582;614;645;642
539;483;457;453;448;478
537;574;602;630;628;631
533;594;648;695;728;713
527;480;463;466;474;498
519;523;530;545;537;554
521;598;660;713;741;726
514;496;501;520;544;559
510;477;463;465;457;486
527;593;646;693;708;702
535;547;572;604;634;633
529;476;450;447;441;471
515;559;591;622;622;626
509;573;628;677;712;699
524;471;450;453;461;485
534;530;533;545;536;550
532;605;664;714;740;723
526;504;505;521;542;556
515;485;472;474;463;490
520;594;650;698;714;706
515;534;563;596;628;628
505;459;438;438;436;467
494;543;580;615;619;624
492;555;611;662;699;688
495;446;429;434;445;472
496;501;511;528;522;540
504;578;639;692;720;707
509;483;483;499;520;535
515;479;462;463;452;478
528;595;648;693;707;696
527;538;561;590;618;616
522;470;446;442;435;463
531;570;601;630;630;630
530;584;632;678;709;694
510;464;446;449;456;481
514;522;532;548;541;556
543;608;664;713;739;722
539;509;505;518;536;549
501;480;471;476;467;494
468;561;629;685;707;701
464;488;522;561;599;606
454;414;400;407;410;446
442;499;543;585;596;606
501;542;587;633;669;660
608;508;461;447;443;464
657;621;598;592;565;566
677;719;750;777;782;749
680;631;607;598;596;592
644;613;590;578;551;560
592;684;746;790;800;779
541;577;614;649;681;679
507;483;478;486;489;521
493;558;609;655;671;680
497;559;617;672;717;714
497;448;434;441;456;492
487;503;522;546;547;569
486;565;630;688;724;718
481;457;459;479;504;528
467;447;441;451;446;480
467;548;612;667;690;686
473;482;506;540;573;581
476;427;406;406;403;435
478;525;564;600;606;609
481;530;579;625;660;649
488;431;409;410;415;443
484;497;510;529;522;536
488;562;622;676;705;690
502;468;462;475;492;508
508;477;463;466;453;477
498;577;636;685;703;689
486;497;520;551;581;584
492;444;423;423;417;446
516;557;592;625;630;628
516;561;603;646;677;664
496;447;427;428;432;459
481;504;523;546;541;554
475;556;621;678;713;700
469;444;446;464;486;507
461;443;440;451;445;474
485;558;618;670;692;682
509;501;514;540;569;573
508;454;427;422;413;442
500;551;589;625;628;626
488;539;586;631;663;653
484;433;414;416;420;449
480;500;519;542;537;550
484;557;619;674;707;693
484;452;448;462;482;500
475;456;450;459;451;478
473;554;617;671;693;682
467;473;495;526;558;565
465;422;403;406;401;432
472;525;567;607;616;617
477;520;565;610;645;636
472;419;398;400;405;434
462;485;506;531;527;540
466;540;603;658;691;679
489;448;439;450;467;486
496;469;458;464;451;474
504;577;633;682;699;682
511;505;517;541;566;567
515;464;438;433;421;446
512;564;604;640;645;640
520;558;598;638;669;656
536;472;444;439;437;463
552;561;571;587;576;582
553;617;670;716;741;722
547;509;497;503;514;528
542;522;513;517;503;523
554;627;684;731;748;729
562;552;562;583;607;608
557;508;483;477;465;490
560;612;652;687;691;686
560;598;636;674;704;693
556;500;475;472;471;499
550;574;592;613;607;616
545;618;677;728;759;745
536;503;496;506;521;541
527;515;512;521;513;536
540;617;678;727;749;735
543;536;548;571;598;605
543;497;474;470;460;487
539;597;641;680;687;685
533;574;615;655;688;681
523;472;452;451;454;486
516;545;569;594;592;604
524;592;652;704;738;726
533;490;479;486;501;522
541;519;512;516;505;526
546;619;676;724;743;726
544;535;544;565;590;594
541;496;473;469;457;483
544;601;644;683;690;685
541;576;614;652;684;676
532;479;456;455;456;485
521;552;576;602;599;608
524;594;653;706;740;727
532;489;477;484;498;519
529;515;511;518;508;530
522;604;665;717;739;724
517;512;525;549;576;585
509;470;453;453;446;475
492;562;615;661;675;674
497;536;578;620;656;653
536;469;440;437;437;468
561;573;586;604;596;602
560;619;669;713;740;723
541;502;487;491;499;517
522;517;518;527;516;534
518;603;667;720;743;727
525;514;525;548;574;583
528;484;463;462;453;481
531;591;638;679;690;687
525;558;594;632;665;660
520;467;444;443;444;475
507;542;570;598;597;606
499;571;633;687;724;712
506;464;452;461;476;499
506;496;496;507;499;521
515;590;650;701;725;711
522;505;511;531;555;565
517;475;454;452;441;468
506;574;625;669;682;677
491;529;569;610;645;642
492;442;422;424;426;459
501;532;559;587;586;595
513;574;629;679;713;700
515;468;452;456;467;489
510;502;501;511;501;520
511;590;651;702;725;708
519;502;508;528;551;560
521;479;458;456;444;470
515;581;632;676;688;681
499;533;571;610;644;640
502;450;428;429;429;461
524;550;574;600;598;604
546;598;646;692;722;707
546;493;472;473;478;497
530;525;524;533;520;537
510;596;660;713;737;720
488;484;498;522;549;561
465;441;433;441;438;469
451;531;595;649;671;672
444;481;525;570;611;616
462;409;390;394;398;436
559;560;570;590;584;590
647;658;680;708;725;701
666;582;535;515;502;509
671;643;621;609;577;575
642;715;764;800;807;773
582;581;590;604;621;620
545;528;522;526;516;538
524;611;677;729;750;745
509;548;592;636;677;680
493;453;442;449;457;496
475;527;567;606;617;632
477;546;609;667;711;707
491;443;430;438;454;486
495;491;496;510;506;529
497;573;635;687;716;705
498;478;482;501;526;541
494;458;443;445;435;465
495;565;620;668;682;677
488;512;545;582;615;616
484;434;413;415;413;446
480;521;555;588;590;597
468;535;594;647;684;673
478;429;414;421;432;459
485;482;487;502;495;513
488;563;624;677;704;690
501;476;476;492;514;527
497;463;444;444;433;460
496;568;622;669;683;675
507;523;550;582;612;610
512;456;430;426;420;449
508;548;579;608;607;608
500;562;616;664;697;682
492;447;432;437;445;470
487;494;503;521;514;531
500;575;636;690;718;704
502;478;479;497;519;533
495;463;449;452;442;470
491;566;624;672;689;681
485;506;536;571;604;606
473;427;409;411;410;442
460;510;550;587;593;600
463;525;581;634;672;662
479;425;406;411;421;449
488;486;492;508;500;517
494;566;624;676;704;688
498;470;469;484;504;517
492;459;445;447;435;462
485;561;619;668;684;675
477;496;526;561;592;594
472;426;406;408;406;436
477;522;558;593;597;601
483;538;589;638;673;660
484;432;413;417;424;450
471;482;494;513;507;523
480;556;619;673;703;688
499;467;464;480;499;514
508;471;453;454;441;467
519;586;637;683;696;683
531;535;553;580;605;602
531;475;446;440;430;455
540;579;609;637;635;631
548;594;638;679;708;688
549;491;466;462;465;485
544;550;557;569;559;568
545;618;677;726;752;734
549;519;514;526;543;556
556;521;504;503;490;514
558;629;682;727;741;728
557;564;585;611;638;637
552;501;476;470;462;489
555;599;633;664;665;664
551;603;650;693;724;711
543;492;471;471;476;502
541;552;564;581;573;587
543;618;678;729;759;744
531;506;506;520;540;558
520;498;490;496;487;515
539;611;668;716;735;725
545;548;567;594;623;626
529;482;460;457;450;479
532;581;618;652;656;656
540;588;633;676;709;696
542;486;462;461;464;490
538;550;561;577;570;582
538;612;672;723;752;737
530;501;499;512;531;548
521;499;491;497;487;514
524;602;661;711;731;721
527;532;552;581;611;616
517;471;449;448;442;472
516;568;607;644;650;652
519;567;614;658;692;681
521;466;444;443;448;477
522;534;547;566;559;572
519;593;653;705;736;723
514;484;481;493;511;530
514;491;482;487;478;503
535;605;661;708;726;713
539;538;553;578;604;607
530;482;457;453;444;472
525;578;618;653;657;656
525;572;618;660;693;681
520;468;447;447;451;478
520;537;553;574;567;580
522;595;655;708;738;725
523;489;483;495;512;531
511;492;486;493;483;509
518;595;655;706;726;714
511;515;535;563;592;598
507;461;440;440;434;464
514;566;606;644;651;652
524;563;605;646;679;670
525;467;442;440;442;471
526;542;556;574;567;577
528;598;656;706;735;720
523;489;482;492;507;524
513;495;490;496;486;509
511;591;653;705;726;712
502;506;526;555;585;591
499;455;436;436;431;461
499;556;600;640;649;650
484;534;581;627;664;657
481;432;414;418;425;457
504;519;535;557;554;567
528;589;642;691;721;706
532;488;475;481;493;510
515;497;490;495;483;504
517;596;656;705;724;708
539;529;539;561;586;590
544;491;464;458;445;470
539;593;633;669;673;668
534;575;615;655;685;674
528;475;452;451;453;480
519;544;565;588;584;594
511;586;649;702;736;724
492;464;462;476;494;517
470;466;470;484;480;508
450;543;615;676;705;697
429;442;469;506;543;559
456;411;395;400;399;434
576;591;613;643;646;642
668;648;649;665;680;660
689;592;534;504;482;493
679;681;677;675;646;635
626;701;753;791;806;776
570;553;550;557;565;575
539;545;553;566;559;577
510;610;687;746;777;764
487;501;530;565;603;618
487;454;444;452;455;492
496;559;611;658;677;683
495;534;577;622;663;663
491;439;420;424;430;468
490;518;542;570;570;585
488;560;621;676;713;704
488;450;442;452;468;493
493;479;477;487;479;503
499;575;636;687;710;696
493;486;498;523;550;558
485;444;426;427;420;449
485;548;597;642;654;652
488;522;561;603;637;633
495;438;414;414;416;447
498;522;544;569;566;575
492;560;620;672;705;692
485;447;437;446;460;482
484;474;474;486;477;499
491;569;629;682;706;691
497;484;494;517;542;551
491;449;430;430;420;448
498;560;607;650;660;656
501;532;568;606;638;632
501;446;423;421;421;450
498;528;553;578;576;583
494;563;623;675;709;695
491;450;440;448;461;483
479;475;479;492;484;506
480;562;626;681;707;693
484;473;484;509;536;547
477;438;421;424;416;446
478;544;596;642;656;653
488;515;551;590;624;621
499;439;414;413;411;443
480;514;542;570;569;576
456;533;597;654;690;680
460;421;412;423;438;463
484;470;469;482;473;494
500;569;625;675;698;682
489;475;482;502;526;535
477;440;424;424;415;442
483;549;601;646;659;654
472;504;542;582;616;613
469;419;399;402;403;435
475;509;537;567;566;574
496;554;608;658;691;677
508;455;435;437;446;466
504;495;494;503;492;507
508;583;642;692;713;695
513;494;499;517;538;546
528;481;457;453;439;463
551;606;648;688;694;683
559;574;598;627;652;643
551;494;465;458;450;476
548;580;605;629;623;623
554;614;666;712;741;722
550;501;483;484;491;510
546;541;542;552;540;556
540;619;679;731;754;736
535;520;526;545;568;579
536;497;479;479;468;496
530;601;654;700;714;708
521;549;582;619;652;651
529;475;452;450;449;480
553;579;602;627;625;629
562;615;663;707;737;721
544;496;477;478;485;506
526;531;536;550;539;556
534;612;673;724;750;734
544;522;524;540;562;574
531;497;480;480;470;496
518;595;652;700;715;709
520;544;576;612;646;645
529;475;451;449;447;478
532;567;596;624;624;629
529;590;643;692;724;711
522;475;458;462;470;495
523;524;528;542;534;551
537;609;667;717;742;726
541;516;516;531;552;564
538;500;482;480;468;494
537;607;660;706;719;710
535;554;581;614;644;643
522;474;452;451;448;478
508;555;590;622;625;631
500;566;624;676;713;702
510;459;442;447;458;485
517;515;521;535;528;547
518;592;652;703;731;717
521;497;497;514;535;550
517;483;466;468;456;484
531;598;651;696;710;701
542;553;575;604;632;629
543;488;459;453;446;473
534;576;607;635;634;634
527;588;641;687;720;705
519;473;455;458;466;490
506;517;529;546;541;557
513;590;653;707;737;723
517;493;494;511;534;551
515;483;468;470;461;489
530;599;652;698;714;705
527;540;564;594;624;624
508;463;442;441;437;468
499;547;585;619;623;627
505;563;615;664;700;688
517;461;439;441;449;476
523;524;529;544;535;550
520;594;653;704;731;715
514;490;490;506;527;542
501;474;463;467;458;486
495;575;636;687;706;698
501;514;540;573;606;608
510;456;432;430;426;457
515;556;588;620;622;624
517;569;617;662;694;681
511;460;439;440;446;471
512;520;530;546;538;552
524;595;653;704;731;715
533;501;496;508;526;540
530;498;483;483;470;495
532;606;662;708;723;711
535;544;564;592;620;620
524;477;454;451;444;472
511;563;602;637;640;642
502;562;615;664;699;688
494;447;432;437;446;475
483;500;518;540;538;555
463;549;619;678;714;705
436;425;436;461;489;513
462;435;427;438;433;467
587;619;653;691;702;690
675;625;608;613;622;612
692;602;545;514;483;493
699;719;728;736;714;692
654;704;740;768;782;750
595;559;542;537;534;549
547;584;610;633;627;636
510;610;689;751;790;778
490;482;496;523;554;579
488;474;475;490;493;529
492;575;642;699;729;728
491;501;527;562;600;613
482;439;422;425;426;464
475;530;574;615;626;634
470;526;578;628;667;662
472;421;404;409;418;451
480;493;509;531;527;545
484;556;617;671;704;692
491;458;453;467;485;505
494;467;456;461;450;476
504;577;635;683;701;688
502;504;522;549;577;580
492;447;425;424;417;445
483;538;580;620;626;626
468;524;575;624;660;652
471;420;402;407;414;445
480;494;511;534;530;544
486;556;616;670;703;689
496;459;452;464;482;500
501;473;461;465;454;478
505;579;636;685;702;689
502;503;520;547;573;577
489;445;425;425;417;445
482;540;584;623;630;630
489;536;582;627;660;651
492;437;415;416;421;450
492;510;527;548;543;555
490;563;624;678;710;696
487;455;452;464;482;501
475;459;455;465;456;482
471;555;619;674;697;685
461;468;490;523;555;563
458;416;400;403;400;432
467;521;565;607;617;618
474;515;559;604;639;632
459;408;390;393;399;430
452;477;499;525;523;538
463;534;595;651;684;674
477;436;428;440;456;477
482;457;448;455;444;468
487;561;619;669;688;673
483;481;495;521;548;552
479;434;413;413;404;431
482;537;580;621;627;625
480;522;566;609;642;634
478;424;402;404;407;438
490;509;526;549;543;554
508;572;626;675;705;689
521;475;461;467;478;494
512;492;484;488;475;494
528;600;656;703;720;700
543;529;537;556;578;580
559;502;471;462;447;469
569;615;650;682;682;673
566;599;634;669;694;680
567;508;478;472;468;491
572;590;606;622;613;616
571;637;692;739;766;747
563;525;513;519;530;546
547;535;532;538;527;547
547;628;689;739;761;745
551;543;555;579;605;611
543;499;479;476;468;495
540;600;645;685;695;693
536;575;615;655;689;683
532;479;456;455;458;489
531;557;579;603;600;611
535;603;660;711;744;732
551;504;489;495;507;527
553;533;524;529;516;536
551;627;685;732;752;735
537;532;544;566;592;598
532;492;472;471;462;488
541;600;645;685;695;691
540;574;612;650;682;676
523;473;452;452;454;485
521;552;577;604;601;611
537;601;657;708;741;728
543;497;482;488;499;520
525;516;514;523;513;534
520;603;666;718;741;726
522;513;525;548;575;584
522;480;461;459;450;478
540;595;639;679;689;685
549;574;607;641;671;665
542;484;458;454;452;481
534;565;588;611;607;614
531;599;657;707;740;726
523;484;473;480;493;514
523;513;514;523;514;534
527;605;666;717;740;725
527;514;523;544;570;579
524;482;463;461;451;479
535;594;640;682;692;687
528;558;593;630;662;657
505;459;440;440;441;473
505;541;570;599;599;607
526;587;642;693;727;714
537;487;469;472;482;503
524;516;515;524;513;532
519;600;662;714;737;720
522;509;517;537;562;571
521;481;462;461;451;478
525;589;639;681;694;688
522;551;586;623;655;651
514;463;440;440;440;471
501;540;570;600;601;608
501;569;628;681;717;706
496;454;443;452;465;490
497;492;494;508;501;522
512;585;645;697;722;708
511;494;499;519;543;554
496;461;445;445;436;465
510;574;624;669;682;677
528;547;576;609;639;635
532;472;443;438;434;463
527;559;584;610;605;609
535;594;646;693;723;707
539;488;469;470;477;497
531;526;527;537;525;541
527;607;668;719;743;725
525;510;516;535;558;568
511;479;464;465;457;484
503;577;634;683;699;694
485;520;559;600;636;637
482;436;418;422;425;460
471;515;551;586;591;601
443;521;587;646;688;681
440;404;398;411;428;459
516;493;488;498;489;509
627;653;683;717;730;706
672;606;576;568;570;567
682;614;567;541;507;515
680;730;762;786;777;749
621;652;678;702;719;702
576;542;525;521;514;535
548;605;646;679;682;684
521;601;669;725;766;756
490;462;461;476;496;528
477;492;511;536;540;567
483;568;637;698;736;732
490;471;479;503;534;557
488;454;441;446;442;478
486;560;618;667;687;686
481;505;538;576;611;616
486;435;414;414;414;448
497;534;564;595;597;603
497;555;608;656;690;678
488;441;425;430;439;465
479;486;495;511;505;524
480;560;624;679;708;696
484;463;467;487;510;526
482;449;436;440;431;460
481;555;612;662;679;672
497;511;537;570;601;601
507;449;422;418;413;442
499;540;571;602;602;604
481;545;601;651;685;672
481;434;418;425;433;459
492;493;500;516;509;526
503;574;633;685;712;697
503;477;476;492;513;527
494;463;450;451;441;468
490;565;624;673;689;680
486;504;533;568;600;601
479;432;412;413;410;442
482;526;562;598;600;605
485;542;594;643;678;666
486;435;416;420;428;455
485;491;500;517;511;527
481;560;623;677;707;693
457;442;450;471;495;514
444;424;419;429;424;456
460;535;596;650;671;665
472;482;508;542;575;579
470;419;396;396;393;424
472;516;551;586;589;592
476;529;579;627;661;648
481;427;407;408;415;441
483;488;497;514;507;520
480;555;617;670;699;684
471;448;450;468;489;505
466;441;431;438;429;457
478;552;609;660;679;669
485;493;515;547;577;579
490;435;411;408;402;431
489;534;569;602;604;604
498;546;593;638;669;655
517;454;428;426;429;452
525;526;530;544;531;541
539;604;657;704;727;707
545;509;499;508;521;532
542;510;494;492;477;497
552;622;675;718;731;714
564;564;581;603;627;623
568;511;482;473;461;483
568;611;643;672;671;665
564;614;657;698;727;710
560;506;483;481;482;505
550;564;576;592;584;595
550;625;686;737;766;750
552;521;517;529;547;563
539;516;506;510;501;527
526;608;671;721;742;732
518;530;555;586;619;625
527;477;454;453;449;480
540;584;619;653;658;659
545;588;631;672;705;694
548;490;464;461;463;490
538;552;564;580;573;584
535;610;670;721;751;736
537;505;500;511;529;546
540;513;502;505;493;518
544;618;675;722;740;726
540;544;562;588;616;619
531;485;463;461;453;481
530;583;623;659;664;664
525;575;621;666;700;690
523;471;450;451;456;485
519;537;554;574;569;582
515;591;654;708;740;727
514;484;480;494;513;532
522;497;487;493;483;509
530;603;661;709;729;716
529;530;547;572;600;604
530;480;456;452;443;471
535;584;623;658;663;661
528;573;617;658;691;680
522;470;448;448;451;479
523;541;557;577;571;583
529;600;658;710;740;726
533;496;488;497;513;531
526;505;496;502;491;514
531;607;665;715;734;719
529;528;544;570;599;603
519;474;453;451;444;472
522;576;618;656;663;662
524;567;609;651;685;675
521;467;444;444;447;476
514;536;555;577;572;584
503;580;645;699;732;720
494;466;464;477;496;518
495;480;476;486;478;505
508;584;645;696;718;706
517;511;525;550;578;585
515;467;444;441;432;460
515;570;612;651;657;655
517;557;598;639;671;662
517;461;437;437;439;468
513;535;553;575;570;580
515;586;645;697;729;716
514;477;468;478;493;513
509;493;488;496;486;509
517;593;653;704;724;709
528;519;530;554;580;585
527;478;454;449;439;466
528;583;625;662;670;665
526;564;604;643;676;666
531;473;448;445;446;475
531;552;570;591;585;593
519;592;653;705;736;723
502;471;466;478;494;515
482;477;480;493;487;513
467;558;628;686;714;702
438;451;478;513;549;563
434;403;393;401;402;438
524;559;594;632;641;641
632;616;623;645;665;651
667;568;512;486;466;483
672;669;664;662;635;627
659;716;757;789;801;769
609;578;566;564;566;572
559;566;573;581;568;582
535;633;706;763;789;772
509;521;548;580;615;626
492;464;457;465;467;502
489;559;616;668;688;694
493;532;576;623;665;668
490;439;420;425;433;472
495;522;546;574;575;591
497;566;625;678;714;706
488;451;442;451;468;493
479;472;473;486;480;504
484;564;627;681;706;694
488;480;491;516;543;554
493;448;427;427;418;447
491;553;601;645;656;653
484;521;560;601;635;630
479;429;409;411;413;445
483;513;539;566;565;574
494;559;616;669;702;689
495;452;438;445;457;479
493;483;481;492;481;502
487;568;630;683;707;692
477;472;485;511;538;547
477;438;421;424;416;445
499;557;604;647;659;655
503;529;563;601;633;627
495;442;418;417;417;447
495;525;550;576;574;581
504;567;623;673;705;691
500;455;441;447;458;480
490;484;485;497;488;507
490;570;632;685;711;695
485;476;487;510;536;546
476;440;425;427;420;449
476;544;598;646;661;658
478;508;545;585;620;619
475;423;402;404;405;438
474;507;535;565;565;574
472;539;598;652;687;676
464;424;413;423;436;461
465;461;465;480;473;494
469;548;611;665;692;678
475;461;468;490;515;527
478;436;418;419;409;437
481;546;598;644;656;651
478;506;540;578;611;607
481;427;404;405;403;433
487;519;545;573;571;576
496;556;611;660;692;677
499;449;432;436;444;465
495;489;491;502;492;508
510;581;639;689;712;694
524;499;499;516;536;544
528;482;458;455;440;463
532;594;642;683;692;682
530;552;581;613;641;634
532;476;449;445;440;467
536;568;593;618;614;616
552;607;656;701;730;712
563;505;481;479;484;502
561;552;549;556;542;555
564;636;692;738;759;738
560;540;540;555;574;582
542;509;493;491;479;503
535;609;665;711;725;717
532;558;591;626;659;657
533;481;460;458;456;487
541;575;604;632;632;637
556;610;660;706;737;723
555;501;480;480;487;509
551;548;550;560;549;564
554;628;686;735;760;742
550;530;532;547;569;580
535;503;489;488;478;505
530;605;662;709;725;718
532;553;583;618;650;650
532;480;456;455;452;484
531;570;600;630;631;636
532;592;644;692;726;713
532;481;462;464;473;498
532;532;536;549;540;557
538;611;670;720;746;730
525;505;510;526;549;563
520;487;473;475;465;494
535;604;656;702;717;710
546;558;581;611;640;638
538;485;459;455;449;479
530;573;604;634;634;637
531;591;643;690;723;709
536;484;463;464;472;495
531;534;542;555;546;561
531;607;669;720;747;731
530;508;509;525;546;561
527;495;480;481;471;498
528;602;658;705;721;713
525;542;570;601;632;633
518;470;448;447;443;474
517;561;596;628;630;634
512;572;626;674;710;697
500;453;438;443;453;480
499;507;518;537;531;550
513;586;645;698;728;714
523;493;491;505;526;541
518;484;469;470;459;486
519;592;648;695;711;701
526;536;559;588;617;617
518;468;445;442;436;465
520;563;597;628;630;631
520;575;624;670;703;690
516;464;444;446;452;478
513;522;532;549;541;556
522;595;655;707;735;719
522;495;493;508;528;543
512;485;473;476;466;493
514;590;649;698;716;706
517;528;551;582;612;615
505;459;438;437;433;464
513;558;593;627;631;633
537;581;625;669;700;686
544;483;456;453;456;479
535;542;550;564;554;566
518;598;661;712;741;725
504;484;487;504;525;542
485;467;462;471;464;493
457;549;619;677;702;698
432;460;496;538;578;589
474;420;400;403;404;439
583;588;603;626;624;622
640;646;664;688;706;684
647;564;517;496;482;493
651;642;635;632;606;602
639;705;752;789;802;771
591;572;571;578;588;594
538;534;534;542;532;554
502;605;680;739;765;756
484;512;549;589;630;640
488;449;438;444;449;487
496;548;591;633;646;655
493;547;598;646;687;684
496;444;424;427;437;471
490;506;523;545;542;561
485;563;627;683;716;707
486;458;457;473;494;516
496;469;459;465;456;484
508;580;638;687;706;695
502;506;525;553;582;587
490;446;427;425;419;449
484;539;581;620;627;628
482;533;582;629;665;656
483;430;411;414;420;450
484;500;517;539;534;549
488;560;621;675;708;694
483;452;450;464;483;502
473;453;448;457;449;476
486;563;622;674;695;684
503;498;513;540;568;572
505;453;427;423;414;443
504;554;592;628;631;630
505;549;592;635;665;654
499;446;424;424;427;453
489;511;531;553;548;559
497;569;630;684;716;701
499;465;460;472;489;507
490;471;465;474;464;489
483;567;630;684;705;693
477;482;503;534;565;572
473;430;413;415;411;441
480;534;578;618;627;628
486;528;573;616;651;643
483;429;407;408;412;443
483;503;522;545;540;553
479;552;613;668;701;688
476;443;438;452;469;489
469;452;449;460;451;477
470;551;614;668;691;679
465;466;486;515;546;554
459;417;400;403;397;428
455;515;562;605;616;618
455;500;546;592;629;623
478;417;392;393;396;428
506;514;525;544;537;546
519;577;628;675;702;685
518;476;461;466;476;491
518;496;486;490;475;492
527;601;657;704;720;700
531;522;533;554;576;578
531;482;458;453;441;463
536;589;630;666;671;665
545;579;615;652;681;669
547;488;460;455;453;479
542;564;581;601;594;600
532;604;663;714;745;729
538;499;489;495;509;527
545;525;517;522;510;530
539;618;678;727;747;730
547;537;547;568;593;599
558;506;480;474;462;487
558;612;653;689;695;689
554;589;626;662;693;683
555;497;471;467;466;494
559;581;599;619;613;619
559;624;680;728;759;743
549;510;499;506;518;537
535;525;524;531;522;544
530;613;676;728;751;737
521;518;533;559;587;596
514;475;458;459;453;483
522;582;630;672;685;684
531;563;600;638;672;667
539;479;453;449;449;480
528;556;579;602;598;607
525;595;654;704;737;724
534;490;478;484;496;516
525;514;511;521;510;531
524;604;666;717;739;724
532;520;529;550;575;583
531;487;466;464;453;481
530;591;639;680;690;686
529;562;598;637;669;663
528;472;448;447;447;478
534;561;583;607;603;611
541;603;657;706;737;723
535;492;477;482;493;514
524;516;515;525;515;535
527;606;667;718;741;725
529;516;525;546;571;580
525;484;465;463;454;481
522;586;636;680;691;687
515;549;586;625;659;655
510;459;437;438;439;471
516;546;572;599;598;606
528;589;644;694;727;713
523;479;465;469;480;501
522;513;513;522;512;531
529;605;664;714;737;721
525;511;518;538;562;571
515;478;461;460;450;477
519;585;636;680;693;687
520;548;583;620;653;649
513;461;439;439;438;469
507;543;573;601;601;608
502;570;630;682;718;706
502;459;447;454;466;491
504;497;499;512;503;524
509;585;646;698;723;709
505;490;497;518;542;553
504;465;447;448;439;466
508;573;624;670;683;677
506;532;566;602;635;632
508;453;429;428;426;457
512;545;571;598;596;603
513;575;629;679;711;697
527;475;455;457;465;487
532;522;519;528;516;532
543;614;669;716;738;719
542;521;522;537;557;565
530;494;476;474;461;486
526;597;650;695;708;699
505;539;576;614;647;644
484;443;428;432;434;468
465;515;555;592;598;609
434;516;586;647;690;685
424;393;390;406;427;460
504;483;479;492;487;509
623;647;677;711;725;704
666;601;570;562;565;563
667;602;559;534;501;510
658;713;749;774;768;743
605;635;663;689;708;692
557;524;509;508;502;525
526;586;629;665;669;672
505;584;652;710;752;743
492;457;452;465;485;517
476;489;506;529;532;559
485;566;634;694;730;725
492;472;478;500;529;551
483;451;439;445;439;474
483;557;614;665;684;683
478;502;535;572;607;611
483;432;411;411;411;444
499;534;564;595;597;602
504;559;610;657;690;677
503;452;432;434;441;466
502;503;509;523;513;528
500;578;640;693;719;703
495;475;479;498;519;533
484;455;444;449;440;468
481;558;617;668;686;680
483;503;534;569;604;605
481;431;410;411;411;442
477;522;558;591;595;601
485;542;594;643;678;667
497;441;420;423;430;455
505;503;507;520;510;526
514;584;641;691;715;698
519;490;486;500;518;529
509;477;462;462;450;474
505;579;636;684;699;689
496;515;544;577;608;608
492;444;423;423;420;450
494;539;574;609;611;614
494;551;603;651;686;673
485;437;420;425;434;461
471;485;499;519;514;532
469;551;617;674;706;694
479;453;456;474;498;516
480;449;437;442;434;463
479;555;613;663;682;674
478;493;519;553;584;588
490;436;412;411;405;435
497;538;571;604;605;606
493;547;596;642;675;661
481;433;416;419;427;452
481;491;504;522;516;531
489;564;625;679;708;693
488;460;460;476;497;514
488;458;446;451;441;468
492;565;623;672;690;680
481;494;520;553;583;586
472;427;408;409;405;436
495;537;571;605;609;610
530;567;606;647;677;663
537;473;444;438;438;461
536;539;544;556;543;552
545;612;667;714;737;718
549;514;506;514;528;539
554;520;502;501;485;506
567;635;686;728;741;724
562;567;584;608;632;630
551;502;478;472;462;487
540;592;631;664;667;665
538;591;640;685;717;704
551;494;470;469;472;498
554;562;571;587;578;590
541;617;678;729;759;743
523;500;500;515;535;553
526;503;494;499;491;518
550;619;674;722;740;728
562;559;573;597;623;625
556;502;475;468;459;486
551;600;636;669;670;668
543;593;639;681;713;700
537;485;464;464;468;495
527;545;561;581;576;589
522;599;663;717;750;736
522;492;489;503;523;543
512;492;485;493;485;512
513;592;653;706;727;717
523;524;542;570;600;607
529;476;450;447;440;470
527;577;614;649;654;654
526;572;615;658;691;680
531;475;450;448;451;479
534;548;561;578;570;581
542;611;668;718;745;729
538;504;496;505;520;537
527;508;500;505;493;517
524;605;666;716;736;722
514;521;542;570;600;606
505;463;445;445;440;471
510;565;609;647;656;657
521;562;605;648;683;673
532;472;446;443;445;475
532;546;560;578;571;581
525;598;657;708;737;723
512;482;477;489;505;524
515;495;489;496;486;510
528;602;660;709;729;714
531;527;541;565;592;596
520;474;453;450;441;469
507;567;612;652;661;660
499;547;593;638;674;667
505;452;430;431;436;468
508;528;546;568;564;577
509;580;640;692;725;712
511;474;466;476;493;512
505;488;483;490;480;504
510;588;649;699;720;706
515;511;525;550;577;583
513;466;444;442;433;461
504;564;609;650;657;656
508;548;590;633;667;658
520;461;436;434;436;465
529;545;561;581;574;583
532;598;654;703;733;717
516;481;473;482;496;514
504;493;491;500;490;513
513;591;652;704;726;711
525;515;527;551;577;584
523;476;452;449;439;466
527;582;625;663;672;667
525;562;600;640;672;663
517;464;441;440;442;471
497;529;555;580;578;589
488;566;630;686;722;711
473;444;441;456;475;499
440;443;451;469;467;496
433;525;597;659;691;683
504;480;487;511;540;551
595;508;462;446;428;451
648;665;679;698;689;673
674;675;684;699;709;684
656;586;544;523;503;515
596;633;654;669;654;649
550;641;709;761;792;771
523;503;505;519;537;557
498;505;517;535;534;559
492;584;657;717;750;742
482;485;507;539;575;592
474;440;429;435;436;473
478;544;597;645;664;669
480;515;557;601;640;641
482;428;407;411;415;451
489;515;537;565;564;576
490;557;614;667;702;692
498;453;439;446;459;481
508;491;486;494;483;503
519;590;646;694;715;697
515;502;510;529;552;558
505;465;445;444;432;458
504;569;619;662;672;667
498;533;571;611;645;639
492;441;422;423;425;456
482;518;547;576;577;586
470;545;609;665;704;693
487;442;431;439;455;479
491;480;479;490;482;504
497;573;632;684;708;693
509;492;497;517;540;550
510;465;443;441;428;454
506;571;620;663;673;667
507;536;571;608;640;634
502;450;427;426;425;455
491;528;557;585;584;591
486;557;617;672;707;695
485;443;432;441;454;478
489;482;484;497;489;510
494;570;630;684;709;695
485;474;484;507;532;543
476;440;425;428;420;449
474;544;598;646;662;659
469;500;539;579;615;614
469;418;398;400;402;436
475;508;536;566;566;575
482;545;600;652;686;674
489;439;422;428;437;461
485;479;480;493;482;501
484;563;624;677;701;685
476;464;474;496;520;531
471;436;422;424;416;444
478;546;600;648;663;658
490;511;543;580;612;609
502;442;416;414;410;440
508;537;562;588;584;588
500;563;618;667;698;683
506;457;439;442;450;470
515;507;507;517;506;520
532;601;656;704;725;705
547;519;517;530;548;555
541;498;476;471;456;479
544;608;658;699;709;697
552;570;595;626;652;645
562;501;471;464;456;482
564;595;618;641;636;636
558;618;670;714;743;725
554;505;485;485;492;512
549;548;551;562;551;566
555;629;688;737;761;744
556;534;535;551;571;582
547;511;493;492;481;507
536;611;667;713;728;720
527;553;586;621;654;654
520;473;454;453;454;485
526;565;597;627;629;636
542;597;648;695;728;715
543;490;469;470;476;500
538;538;542;554;544;559
531;610;671;723;749;732
524;507;511;529;552;566
524;490;475;477;468;496
535;603;657;703;718;711
531;549;576;608;639;639
518;470;449;448;445;476
518;560;593;624;626;631
534;587;638;685;717;705
536;481;459;460;467;491
527;530;536;549;540;556
536;609;668;718;743;727
539;513;512;526;546;559
529;496;481;482;470;496
524;599;656;704;720;711
517;536;565;598;630;631
515;466;444;443;440;472
512;556;591;623;626;630
522;577;627;674;708;696
534;477;454;454;460;484
533;535;540;553;543;557
518;598;660;712;739;723
519;497;498;515;536;551
529;494;478;480;468;495
534;606;659;705;720;710
533;545;568;598;627;627
520;473;451;449;444;473
515;563;599;632;635;637
528;581;631;677;710;696
538;480;457;456;461;486
529;536;544;559;550;564
509;591;655;709;738;725
482;470;478;499;524;543
489;463;455;463;457;488
523;588;643;691;710;701
533;535;554;581;611;612
524;472;446;441;435;463
514;561;597;629;631;632
509;566;617;663;697;684
505;455;436;439;446;473
506;516;528;546;539;555
508;583;643;697;727;713
511;483;481;496;516;532
507;480;467;471;462;488
504;582;642;691;710;700
504;515;538;570;600;603
513;461;437;434;428;458
518;562;596;629;631;632
519;569;616;659;691;678
523;467;444;443;447;472
526;534;544;560;552;563
525;598;657;708;736;720
523;494;491;503;522;537
523;495;483;486;475;500
527;602;659;708;725;713
531;534;553;581;609;611
520;472;450;447;440;469
498;555;597;635;641;643
466;532;590;642;682;674
435;401;395;407;422;456
428;456;483;513;518;539
493;553;609;664;699;689
597;520;490;490;500;514
641;572;531;514;486;501
659;706;737;763;760;732
669;650;646;652;660;645
622;575;545;529;507;520
575;643;687;719;718;707
537;607;665;713;748;734
504;473;467;476;488;519
493;525;554;583;588;607
499;579;648;709;749;743
500;472;472;490;516;542
497;477;472;481;477;509
501;580;642;695;719;712
494;500;521;552;584;594
487;444;425;426;423;456
488;542;585;625;634;637
483;533;581;628;664;658
483;430;410;414;420;452
483;501;520;543;539;554
480;554;616;672;705;694
487;453;447;460;478;499
502;474;463;468;457;483
506;580;637;686;705;691
495;497;514;541;569;573
491;446;426;424;417;445
499;551;592;630;637;635
489;536;581;625;660;650
477;428;409;413;418;448
489;507;526;549;546;558
498;567;625;678;710;696
498;462;454;465;481;500
495;475;469;476;465;489
498;576;637;687;707;694
504;500;514;540;567;572
506;458;434;432;422;450
