Diff Between Pulses ;  ACC
0.9050150833333332;0.9050150833333332;0
0.7900131666666665;1.6950282499999998;1
0.7650127500000001;2.460041;2
0.7600126666666664;3.2200536666666664;3
0.7650127499999999;3.9850664166666663;4
0.8300138333333331;4.815080249999999;5
0.7650127500000004;5.580093;6
0.7250120833333327;6.305105083333332;7
0.6900115000000007;6.995116583333333;8
0.6700111666666659;7.665127749999999;9
0.6650110833333338;8.330138833333333;10
0.6800113333333329;9.010150166666666;11
0.6850114166666668;9.695161583333332;12
0.6800113333333329;10.375172916666665;13
0.7300121666666666;11.105185083333332;14
0.7500125000000004;11.855197583333332;15
0.7350122500000005;12.590209833333333;16
0.7500124999999986;13.340222333333331;17
0.7650127500000004;14.105235083333332;18
0.7550125833333343;14.860247666666666;19
0.7600126666666664;15.620260333333333;20
0.7600126666666664;16.380273;21
0.7700128333333325;17.15028583333333;22
0.7650127500000004;17.915298583333332;23
0.7150119166666684;18.6303105;24
0.705011749999997;19.335322249999997;25
0.7000116666666685;20.035333916666666;26
0.7000116666666649;20.73534558333333;27
0.7000116666666685;21.43535725;28
0.685011416666665;22.120368666666664;29
0.6600110000000008;22.780379666666665;30
0.685011416666665;23.46539108333333;31
0.6750112500000007;24.14040233333333;32
0.6950115833333328;24.835413916666663;33
0.7450124166666683;25.58042633333333;34
0.7600126666666647;26.340438999999996;35
0.7250120833333362;27.065451083333333;36
0.7100118333333327;27.775462916666665;37
0.6800113333333329;28.455474249999998;38
0.6800113333333329;29.13548558333333;39
0.7600126666666682;29.89549825;40
0.7850130833333324;30.68051133333333;41
0.8100135000000002;31.490524833333332;42
0.820013666666668;32.3105385;43
0.8300138333333322;33.14055233333333;44
0.8500141666666678;33.9905665;45
0.8350139166666608;34.82558041666666;46
0.8250137500000037;35.650594166666664;47
0.8500141666666678;36.50060833333333;48
0.8450140833333322;37.345622416666664;49
0.8550142499999964;38.20063666666666;50
0.8500141666666678;39.05065083333333;51
0.820013666666668;39.8706645;52
0.8100135000000037;40.680678;53
0.7950132499999967;41.47569125;54
0.7850130833333324;42.26070433333333;55
0.820013666666668;43.080718;56
0.8550142499999964;43.935732249999994;57
0.8700145000000035;44.80574675;58
0.8800146666666677;45.685761416666665;59
0.8600143333333321;46.54577575;60
0.8550142499999964;47.40078999999999;61
0.8750145833333391;48.27580458333333;62
0.8600143333333321;49.135818916666665;63
0.8600143333333321;49.99583325;64
0.8600143333333321;50.85584758333333;65
0.8150135833333323;51.67086116666666;66
0.8100135000000037;52.480874666666665;67
0.8350139166666608;53.315888583333326;68
0.8450140833333393;54.160902666666665;69
0.8300138333333322;54.9909165;70
0.8000133333333324;55.79092983333333;71
0.7600126666666682;56.5509425;72
0.7350122499999969;57.285954749999995;73
0.7600126666666682;58.04596741666666;74
0.7700128333333325;58.815980249999996;75
0.7850130833333324;59.60099333333333;76
0.7900131666666681;60.391006499999996;77
0.7600126666666682;61.151019166666664;78
0.7800129999999967;61.93103216666666;79
0.7450124166666683;62.67604458333333;80
0.7350122499999969;63.411056833333326;81
0.735012250000004;64.14606908333333;82
0.6850114166666685;64.8310805;83
0.6700111666666686;65.50109166666667;84
0.6700111666666544;66.17110283333332;85
1.2800213333333375;67.45112416666666;86
0.6300104999999974;68.08113466666666;87
0.6050100833333403;68.68614475;88
0.6100101666666689;69.29615491666667;89
0.6650110833333258;69.96116599999999;90
0.5100084999999979;70.47117449999999;91
1.1700195000000093;71.641194;92
0.580009666666669;72.22120366666667;93
1.1400189999999952;73.36122266666666;94
1.1550192499999952;74.51624191666666;95
0.5550092499999977;75.07125116666666;96
0.5600093333333405;75.6312605;97
0.5550092499999977;76.18626975;98
0.5500091666666691;76.73627891666666;99
1.0550175833333242;77.79129649999999;100
0.5350089166666692;78.32630541666666;101
1.0500175000000098;79.37632291666667;102
0.5100084999999979;79.88633141666666;103
0.5150085833333264;80.40133999999999;104
0.5250087499999978;80.92634874999999;105
0.5050084166666693;81.43135716666666;106
0.5050084166666693;81.93636558333333;107
0.5100084999999979;82.44637408333332;108
0.49500824999999793;82.94138233333332;109
0.9750162500000101;83.91639858333333;110
0.9800163333333245;84.89641491666666;111
0.49500824999999793;85.39142316666666;112
0.49500824999999793;85.88643141666665;113
0.49500825000001214;86.38143966666667;114
0.49000816666665514;86.87144783333332;115
0.9650160833333388;87.83646391666666;116
0.49000816666666935;88.32647208333333;117
0.480007999999998;88.80648008333333;118
0.9550159166666674;89.761496;119
0.4750079166666694;90.23650391666666;120
0.9400156666666675;91.17651958333333;121
0.46500774999999805;91.64152733333333;122
0.9200153333333247;92.56154266666665;123
0.9150152500000104;93.47655791666666;124
0.4500074999999981;93.92656541666666;125
0.44500741666666954;94.37157283333333;126
0.4500074999999981;94.82158033333333;127
0.4500074999999981;95.27158783333333;128
0.5100084999999979;95.78159633333333;129
0.36500608333332707;96.14660241666665;130
0.8750145833333391;97.02161699999999;131
0.4250070833333268;97.44662408333332;132
0.9700161666666673;98.41664024999999;133
0.3350055833333414;98.75164583333333;134
0.8500141666666678;99.60166;135
0.49000816666666935;100.09166816666666;136
0.36500608333332707;100.45667424999999;137
0.42000699999999824;100.87668124999999;138
1.270021166666666;102.14670241666666;139
0.42000699999999824;102.56670941666665;140
0.42000699999999824;102.98671641666665;141
0.8400140000000107;103.82673041666666;142
0.8350139166666679;104.66174433333333;143
0.48500808333332657;105.14675241666666;144
1.2500208333333376;106.39677325;145
0.7850130833333253;107.18178633333332;146
0.42500708333334103;107.60679341666666;147
0.4250070833333268;108.03180049999999;148
0.9000149999999962;108.93181549999998;149
0.7900131666666681;109.72182866666665;150
0.42000699999999824;110.14183566666665;151
0.8550142500000106;110.99684991666666;152
0.8400139999999965;111.83686391666666;153
0.42000699999999824;112.25687091666666;154
0.42500708333334103;112.681878;155
0.8400139999999965;113.521892;156
0.8500141666666678;114.37190616666666;157
1.3300221666666658;115.70192833333333;158
0.8300138333333251;116.53194216666665;159
0.7600126666666682;117.29195483333332;160
0.8300138333333393;118.12196866666666;161
0.480007999999998;118.60197666666666;162
0.7500124999999969;119.35198916666666;163
1.230020500000009;120.58200966666666;164
0.4000066666666555;120.98201633333332;165
0.8150135833333394;121.79702991666666;166
0.40000666666666973;122.19703658333333;167
1.2800213333333232;123.47705791666665;168
0.7400123333333397;124.21707024999999;169
1.1950199166666664;125.41209016666666;170
0.46500774999999805;125.87709791666666;171
1.1400189999999952;127.01711691666665;172
0.4050067499999983;127.42212366666665;173
0.39500658333334115;127.81713024999999;174
0.7950132500000109;128.6121435;175
0.800013333333311;129.4121568333333;176
0.39500658333335537;129.80716341666667;177
0.800013333333311;130.60717674999998;178
1.600026666666679;132.20720341666666;179
0.8600143333333392;133.06721775;180
0.7400123333333113;133.8072300833333;181
0.4600076666666837;134.26723775;182
1.1350189166666667;135.40225666666666;183
0.7950132500000109;136.19726991666667;184
0.800013333333311;136.99728324999998;185
1.5800263333333362;138.57730958333332;186
0.4050067500000125;138.98231633333333;187
1.1850197499999808;140.1673360833333;188
0.40000666666668394;140.56734275;189
1.1800196666666523;141.74736241666665;190
0.46500775000001227;142.21237016666666;191
1.115018583333324;143.32738874999998;192
0.3350055833333272;143.6623943333333;193
1.2350205833333519;144.89741491666666;194
0.7900131666666539;145.68742808333332;195
1.555025916666665;147.24245399999998;196
0.39000649999999837;147.63246049999998;197
0.4550075833333551;148.08746808333333;198
0.3800063333333128;148.46747441666665;199
0.7150119166666684;149.18248633333332;200
1.6200269999999932;150.8025133333333;201
0.3150052500000129;151.11751858333332;202
1.2250204166666663;152.342539;203
0.32500541666667004;152.66754441666666;204
1.920031999999992;154.58757641666665;205
1.5350255833333506;156.122602;206
0.39000649999999837;156.5126085;207
0.38500641666664137;156.89761491666664;208
1.615026916666693;158.51264183333333;209
0.32000533333331305;158.83264716666665;210
0.7800129999999967;159.61266016666664;211
0.7750129166666682;160.3876730833333;212
0.3850064166666698;160.77267949999998;213
1.5450257500000077;162.31770525;214
0.3850064166666698;162.70271166666666;215
1.9250320833333205;164.62774374999998;216
0.8350139166666679;165.46275766666665;217
0.7000116666666827;166.16276933333333;218
0.3850064166666698;166.54777575;219
0.7700128333333112;167.3177885833333;220
1.9000316666666777;169.21782025;221
0.765012750000011;169.982833;222
1.9050317499999778;171.88786474999998;223
1.1450190833333522;173.03288383333333;224
0.7650127499999826;173.7978965833333;225
0.8250137500000108;174.62291033333332;226
0.3850064166666698;175.00791675;227
0.6950115833333257;175.70292833333332;228
1.1450190833333238;176.84794741666664;229
0.39000649999999837;177.23795391666664;230
1.1400190000000237;178.37797291666666;231
1.1350189166666667;179.51299183333333;232
2.3050384166666618;181.81803025;233
0.7800129999999967;182.59804325;234
0.39000649999999837;182.98804975;235
0.8500141666666536;183.83806391666664;236
0.39500658333335537;184.2330705;237
0.3250054166666416;184.55807591666664;238
1.1800196666666807;185.73809558333332;239
0.4000066666666555;186.13810224999997;240
0.4600076666666837;186.59810991666666;241
1.1900198333333378;187.78812975;242
0.3300054999999986;188.11813525;243
0.8150135833333252;188.93314883333332;244
0.8100134999999966;189.74316233333332;245
0.8150135833333252;190.55817591666664;246
0.8200136666666822;191.37818958333332;247
0.4050067499999841;191.7831963333333;248
0.8150135833333536;192.59820991666666;249
0.8250137499999823;193.42322366666664;250
0.480007999999998;193.90323166666664;251
1.1800196666666807;195.08325133333332;252
0.8400139999999965;195.92326533333332;253
0.48500808333332657;196.40827341666665;254
0.42000699999999824;196.82828041666664;255
0.35000583333334134;197.17828624999999;256
0.42000699999999824;197.59829324999998;257
0.4250070833333268;198.0233003333333;258
0.9250154166666675;198.94831574999998;259
1.2100201666666806;200.15833591666666;260
0.43500724999998397;200.59334316666664;261
0.8600143333333392;201.45335749999998;262
0.4300071666666554;201.88336466666664;263
0.8700145000000248;202.75337916666666;264
0.43500724999998397;203.18838641666665;265
0.44000733333334097;203.62839375;266
0.43500724999998397;204.06340099999997;267
0.45000750000002654;204.5134085;268
0.9050150833333248;205.41842358333332;269
0.9300154999999961;206.34843908333332;270
0.4750079166666694;206.823447;271
0.4750079166666694;207.29845491666666;272
0.49000816666665514;207.7884630833333;273
0.49500825000001214;208.28347133333332;274
1.0500174999999956;209.33348883333332;275
0.4300071666666554;209.76349599999998;276
0.49000816666668356;210.25350416666666;277
0.49000816666665514;210.7435123333333;278
0.480007999999998;211.2235203333333;279
0.960015999999996;212.1835363333333;280
0.485008083333355;212.66854441666666;281
0.9750162499999817;213.64356066666664;282
0.5050084166666693;214.1485690833333;283
0.5000083333333407;214.64857741666665;284
0.4950082499999837;215.14358566666664;285
1.0350172500000099;216.17860291666665;286
0.520008666666655;216.6986115833333;287
0.5350089166666692;217.23362049999997;288
0.5100084999999979;217.74362899999997;289
0.5300088333333406;218.2736378333333;290
1.1000183333333382;219.37365616666665;291
0.44000733333334097;219.8136635;292
1.0200169999999957;220.83368049999999;293
0.520008666666655;221.35368916666664;294
0.5200086666666834;221.87369783333332;295
0.5450090833333263;222.41870691666665;296
0.5350089166666692;222.95371583333332;297
1.085018083333324;224.03873391666664;298
0.5700094999999976;224.60874341666664;299
0.5850097500000118;225.19375316666665;300
0.6600109999999972;225.85376416666665;301
1.0650177500000098;226.91878191666666;302
0.5450090833333263;227.463791;303
1.0900181666666526;228.55380916666664;304
0.5350089166666692;229.0888180833333;305
1.045017416666667;230.13383549999998;306
0.5200086666666834;230.65384416666666;307
0.5350089166666692;231.18885308333333;308
0.5400089999999977;231.72886208333333;309
1.0800179999999955;232.80888008333332;310
0.5550092499999835;233.3638893333333;311
1.1250187500000095;234.4889080833333;312
0.5150085833333264;235.00391666666664;313
1.2600209999999947;236.26393766666664;314
0.5850097500000118;236.84894741666665;315
0.5700094999999976;237.41895691666664;316
0.5700094999999976;237.98896641666664;317
0.5600093333333405;238.54897574999998;318
0.5600093333333405;239.10898508333332;319
0.5700094999999976;239.67899458333332;320
0.5850097499999833;240.2640043333333;321
1.1450190833333522;241.40902341666666;322
1.155019249999981;242.56404266666664;323
0.6000099999999975;243.16405266666663;324
0.6000100000000259;243.76406266666666;325
0.5950099166666405;244.3590725833333;326
1.1500191666666808;245.50909174999998;327
1.115018583333324;246.6241103333333;328
0.5500091666666833;247.1741195;329
0.5450090833333263;247.71912858333332;330
0.5500091666666549;248.26913774999997;331
1.1800196666666807;249.44915741666665;332
1.1200186666666525;250.5691760833333;333
0.6150102500000116;251.18418633333332;334
0.6200103333333402;251.80419666666666;335
0.6100101666666546;252.4142068333333;336
1.170019499999995;253.5842263333333;337
0.5950099166666689;254.17923624999997;338
1.1800196666666807;255.35925591666665;339
0.6100101666666546;255.9692660833333;340
0.6100101666666546;256.57927624999996;341
0.6100101666666546;257.1892864166666;342
0.6050100833333545;257.7942965;343
0.5950099166666973;258.38930641666667;344
0.805013416666668;259.19431983333334;345
0.9450157499999818;260.1393355833333;346
0.5700094999999692;260.7093450833333;347
1.1150185833333808;261.82436366666667;348
0.565009416666669;262.38937308333334;349
0.5650094166666122;262.95438249999995;350
1.1100185000000238;264.064401;351
0.5500091666666549;264.61441016666663;352
0.565009416666669;265.1794195833333;353
0.5850097500000402;265.76442933333334;354
0.6100101666666546;266.3744395;355
0.6100101666666546;266.98444966666665;356
0.6250104166666688;267.6094600833333;357
0.6350105833333259;268.24447066666664;358
0.6200103333333118;268.86448099999996;359
0.6250104166666688;269.4894914166666;360
0.6050100833333545;270.0945015;361
0.6050100833333545;270.69951158333333;362
0.6000099999999975;271.29952158333333;363
0.5750095833333262;271.87453116666666;364
0.5800096666666832;272.45454083333334;365
0.5700094999999692;273.0245503333333;366
0.5800096666666832;273.60456;367
0.5850097499999833;274.18956975;368
0.5900098333333403;274.7795795833333;369
0.5850097499999833;275.3645893333333;370
0.5900098333333403;275.95459916666664;371
0.5950099166666973;276.54960908333334;372
1.2500208333332807;277.7996299166666;373
0.5150085833333833;278.3146385;374
0.5950099166666405;278.90964841666664;375
0.6100101666666546;279.5196585833333;376
0.6100101666666546;280.12966874999995;377
0.6100101666667115;280.73967891666666;378
0.6150102499999548;281.3546891666666;379
0.6200103333333686;281.9746995;380
0.6300104999999689;282.60470999999995;381
0.6400106666666829;283.24472066666664;382
0.6450107499999831;283.8897314166666;383
0.6600109999999972;284.5497424166666;384
0.6600110000000541;285.2097534166667;385
0.6550109166666402;285.8647643333333;386
0.6550109166666402;286.51977524999995;387
0.6550109166666971;287.17478616666665;388
0.6400106666666829;287.81479683333333;389
0.6450107499999831;288.4598075833333;390
0.6450107499999831;289.1048183333333;391
0.6450107500000399;289.74982908333334;392
0.6450107499999831;290.3948398333333;393
0.6400106666666829;291.0348505;394
0.6400106666666261;291.67486116666663;395
0.6350105833333259;292.30987174999996;396
0.6450107500000399;292.9548825;397
0.6450107499999831;293.59989325;398
0.6500108333333401;294.2499040833333;399
0.6550109166666402;294.90491499999996;400
0.6600109999999972;295.56492599999996;401
0.6550109166666971;296.21993691666665;402
0.6600109999999972;296.87994791666665;403
0.6550109166666402;297.5349588333333;404
0.6450107500000399;298.17996958333333;405
0.6300104999999689;298.8099800833333;406
0.6400106666666829;299.44999075;407
0.4250070833332984;299.8749978333333;408
