ExG_CH1;ExG_CH2;ExG_CH3;ExG_CH4;ExG_CH5;ExG_CH6
482;601;703;762;774;803
433;489;556;609;635;658
466;379;350;352;369;423
486;525;554;580;595;619
438;540;616;667;692;687
449;375;347;345;361;396
488;464;450;449;456;483
454;571;646;692;710;698
439;416;419;431;448;466
481;407;366;351;354;390
469;568;627;663;675;669
424;468;507;537;554;554
462;370;325;309;314;349
477;517;538;553;559;566
424;525;594;637;655;638
433;358;328;321;333;360
468;449;436;434;439;459
428;547;623;668;686;671
406;385;389;401;419;436
450;379;341;326;332;368
441;540;600;637;650;643
399;437;475;503;521;521
433;343;300;283;288;323
451;493;516;531;538;544
408;503;569;611;626;610
430;349;314;304;313;338
472;451;435;430;431;449
442;554;624;665;678;660
438;406;401;407;417;430
498;419;372;353;350;379
500;591;642;671;676;661
475;499;524;542;550;543
528;426;370;343;338;362
557;590;603;609;605;599
522;604;658;689;695;667
550;458;414;394;393;409
596;569;547;534;527;534
566;671;734;768;774;747
561;520;509;508;512;518
609;532;484;461;454;476
604;696;748;776;777;758
567;590;614;632;639;631
604;508;456;431;428;452
613;657;679;689;690;687
564;651;711;746;758;736
581;497;458;443;449;472
615;600;587;581;581;594
574;685;756;795;807;789
556;523;517;522;533;547
595;530;493;477;478;507
577;679;740;775;784;772
537;563;592;615;629;630
572;485;439;419;423;454
581;632;659;675;682;684
535;620;680;717;732;717
547;466;430;418;427;456
576;568;562;561;563;580
536;648;720;763;778;764
526;489;482;487;500;517
568;505;469;454;457;486
554;654;714;749;759;748
520;538;562;582;596;598
557;469;421;401;403;434
568;619;646;662;668;669
521;600;656;690;703;688
537;454;416;402;409;436
561;561;557;556;559;573
520;630;703;745;761;746
513;473;463;466;478;496
556;498;464;449;451;480
539;642;703;739;749;736
508;522;544;562;577;579
546;460;413;392;396;424
552;609;640;658;665;665
500;580;637;672;688;673
520;437;399;387;395;424
551;551;548;549;553;567
514;621;691;733;748;734
509;464;451;453;464;482
550;495;461;447;448;476
528;634;697;733;744;728
496;508;529;548;563;565
537;451;405;385;387;417
547;604;636;656;662;662
510;579;631;663;677;662
539;448;405;388;394;422
567;567;563;561;562;573
526;631;700;739;752;733
522;474;458;457;466;482
558;506;473;460;460;484
537;642;706;741;751;734
512;517;535;550;564;566
554;467;420;398;399;426
558;619;652;672;678;676
515;584;634;666;679;666
540;452;409;393;398;428
566;572;572;573;573;585
523;630;699;740;754;738
519;470;454;453;463;480
541;498;472;461;465;490
501;618;689;731;745;730
452;469;496;520;540;548
465;398;367;356;368;404
439;524;577;612;632;642
405;481;541;583;609;610
525;410;355;336;344;379
692;637;597;574;560;562
740;778;794;796;779;741
754;657;597;557;529;518
758;697;646;607;577;571
672;792;856;880;869;827
574;605;636;655;662;653
565;514;491;485;493;519
536;630;692;733;755;760
475;558;627;675;708;710
488;414;388;389;414;460
500;525;542;560;578;606
452;566;643;697;727;727
450;402;389;396;417;450
485;446;424;420;431;466
459;572;640;683;702;694
435;437;453;472;491;504
475;397;354;338;343;378
475;548;590;617;629;632
438;501;549;580;598;592
467;380;338;324;332;365
489;506;512;518;523;535
447;552;622;665;681;668
450;394;375;372;383;404
488;447;423;412;415;440
464;573;640;678;690;673
443;439;452;465;480;486
483;402;359;339;342;370
478;552;596;622;632;631
439;498;545;577;593;585
468;380;338;324;331;364
489;508;515;522;527;537
444;548;617;660;677;663
445;388;367;365;375;397
480;442;419;411;414;438
454;564;631;670;684;667
432;426;437;451;467;475
472;394;350;333;334;364
465;543;588;616;627;625
418;480;527;560;576;571
446;362;322;310;318;353
464;489;500;510;516;528
419;525;595;640;658;646
423;365;344;342;354;377
455;421;401;395;400;425
425;538;607;648;663;649
403;397;409;424;440;451
444;368;327;310;314;345
441;521;568;597;609;609
402;458;503;534;550;546
435;348;306;292;299;333
462;483;493;500;504;515
426;523;589;630;644;630
441;374;345;338;345;365
488;447;421;409;408;427
472;573;635;669;677;655
467;446;446;452;461;463
523;435;383;357;352;374
532;602;640;660;662;651
509;548;580;600;605;591
556;455;401;376;371;393
584;599;600;600;593;591
550;640;698;730;736;710
569;494;458;443;442;452
611;570;540;524;516;527
588;690;749;781;784;755
571;551;550;554;560;560
613;532;484;459;454;475
606;686;731;755;760;748
562;610;648;673;683;673
591;501;457;438;441;469
604;632;645;653;655;660
561;659;725;764;778;761
569;500;472;462;470;490
603;571;550;541;542;561
571;680;746;783;795;776
553;534;537;545;557;567
590;513;471;450;451;480
577;663;714;743;753;748
532;579;620;648;663;659
561;473;430;414;421;453
577;607;622;632;637;645
533;630;696;736;752;738
546;475;444;435;444;466
581;551;530;522;524;543
547;657;723;761;774;755
528;509;511;520;533;543
565;492;449;431;433;462
554;644;696;726;737;731
515;560;599;625;640;637
549;460;416;400;404;437
563;596;612;622;626;634
521;617;682;721;737;720
528;458;428;419;428;451
562;537;519;512;514;532
533;642;710;748;761;744
519;497;497;505;518;530
559;485;443;423;424;454
547;637;690;720;729;723
505;547;584;611;625;621
538;450;406;390;394;425
552;586;603;615;620;625
505;600;666;706;722;706
512;441;412;402;413;436
545;522;506;500;504;523
516;625;692;733;746;729
504;479;478;486;500;512
542;470;428;409;411;442
527;620;674;705;716;710
487;527;563;589;604;602
524;436;390;373;378;410
533;572;591;603;609;613
487;583;648;688;704;688
498;425;395;385;396;420
530;510;495;491;494;513
498;608;677;718;732;716
485;460;460;467;482;496
533;460;418;400;401;431
531;620;672;702;711;701
498;532;562;585;596;591
534;444;397;376;378;407
546;583;602;612;615;617
502;594;657;694;707;688
519;440;407;395;402;424
552;530;514;508;509;525
520;627;694;734;745;727
507;478;476;481;493;505
547;476;435;417;417;447
537;630;684;716;724;715
499;532;564;587;601;598
538;448;401;382;385;414
551;590;609;621;624;627
502;594;656;694;708;690
505;432;401;391;401;426
524;513;504;503;508;527
466;588;665;712;731;718
423;412;422;438;460;482
436;389;366;362;376;416
428;535;603;647;668;670
473;482;503;524;542;546
660;506;420;377;365;387
772;743;711;685;658;638
755;794;808;804;779;732
743;645;582;540;512;506
711;707;691;672;651;641
597;737;821;865;869;837
528;532;552;572;589;600
536;497;484;487;502;538
500;620;699;753;781;784
450;494;540;580;615;629
477;402;369;365;387;434
487;539;572;597;617;635
443;534;599;644;671;668
458;381;350;343;360;397
484;477;471;472;482;507
446;559;632;676;696;688
436;405;402;411;428;450
478;415;380;367;372;406
465;565;625;661;675;667
430;458;487;511;528;531
467;382;338;321;327;359
479;528;554;570;576;581
436;522;583;620;636;620
457;376;341;330;338;365
485;477;470;468;472;488
449;559;630;673;689;673
438;405;400;406;420;437
479;418;382;368;372;402
464;566;627;662;674;664
430;454;482;505;521;523
468;383;338;320;324;355
479;528;555;572;580;582
435;518;577;613;630;614
458;374;337;325;333;360
488;480;473;471;474;489
448;557;627;670;685;670
434;399;393;399;412;430
472;414;380;367;371;401
454;558;620;658;670;660
418;441;467;491;508;512
449;367;325;308;314;347
454;509;541;560;571;574
404;490;552;590;610;597
420;342;309;300;311;342
446;445;443;446;452;471
408;520;593;639;657;647
401;365;359;366;380;402
444;385;353;340;345;377
429;532;595;632;643;634
400;418;443;464;481;484
447;358;312;292;295;325
461;512;539;555;560;561
427;502;556;589;602;585
460;370;327;311;315;340
499;489;478;473;471;481
472;573;636;674;684;663
477;428;412;409;415;426
532;463;420;401;395;416
530;623;675;703;705;684
514;518;531;543;548;542
565;467;410;382;375;394
584;628;648;657;654;644
549;618;665;689;694;670
577;483;436;414;413;431
611;603;591;582;576;580
578;679;743;778;784;760
574;526;509;504;508;518
615;553;515;495;491;512
597;698;757;788;792;772
562;574;593;609;620;617
599;512;463;441;440;465
603;659;690;707;711;709
554;631;686;719;732;717
574;488;449;434;440;469
601;601;598;597;599;612
559;668;738;779;793;777
551;507;495;496;506;523
586;531;499;486;487;515
567;673;736;772;781;766
534;545;566;584;599;603
575;487;440;419;421;451
577;635;668;687;695;695
530;604;659;691;707;694
551;465;424;410;418;448
577;580;578;578;581;595
539;646;716;757;772;757
537;490;474;473;483;501
572;518;484;471;472;498
544;653;718;755;765;749
511;523;543;562;578;581
554;467;421;401;404;434
559;620;655;675;683;683
515;587;640;672;688;678
538;451;410;395;403;434
563;569;568;569;571;586
523;631;701;743;759;744
521;473;457;456;466;485
561;508;476;463;463;489
542;648;711;747;756;739
512;518;536;553;566;569
552;466;420;398;399;427
554;618;654;675;682;681
509;580;631;665;680;668
534;446;405;390;397;428
563;569;568;570;572;586
523;629;697;739;754;738
515;466;449;447;457;476
551;502;472;460;461;487
527;636;701;739;749;733
496;502;520;537;552;557
537;453;406;386;389;419
542;607;644;667;675;675
497;565;616;648;663;653
522;434;392;377;384;416
550;558;559;562;564;577
508;615;685;726;742;727
507;455;436;433;443;462
547;498;468;455;456;481
527;634;699;734;743;725
496;499;515;530;544;547
537;452;406;385;386;415
538;607;646;669;678;676
493;561;611;644;659;649
521;431;389;374;381;413
544;556;559;562;565;578
498;608;679;723;739;723
495;443;424;423;433;453
533;486;458;447;450;475
506;616;684;722;735;718
475;477;494;511;527;533
512;429;384;365;369;400
508;582;625;652;663;664
463;530;581;615;633;625
494;404;361;348;356;390
523;534;538;543;546;559
474;583;654;698;715;700
474;417;397;395;406;426
521;472;442;430;433;457
504;610;674;711;721;702
481;477;487;500;513;517
528;441;391;367;367;395
534;604;642;665;671;667
490;550;595;624;636;626
521;429;384;365;369;399
547;562;566;569;569;577
502;608;678;719;732;714
499;441;419;415;423;442
541;497;469;458;459;481
513;625;692;730;741;722
489;484;496;509;524;529
532;447;399;379;380;409
534;608;652;677;686;683
489;548;594;624;638;630
519;427;382;365;371;402
535;555;563;569;572;582
477;589;663;708;726;709
457;407;391;391;405;428
471;444;429;427;436;465
411;543;626;677;701;691
396;398;419;441;467;483
541;426;365;338;339;373
659;678;684;688;680;666
681;682;683;679;665;637
719;594;515;466;441;447
712;725;716;699;675;659
612;730;800;833;830;793
559;521;510;507;512;522
563;549;543;544;551;570
515;646;730;783;805;791
474;480;503;530;557;574
505;437;404;396;412;454
495;586;642;681;704;712
451;511;561;598;623;629
482;395;355;345;359;400
502;529;542;555;564;580
457;562;632;677;697;686
464;398;374;369;381;407
503;467;445;437;441;466
473;585;653;694;708;693
449;437;446;458;474;486
493;414;370;351;354;386
493;575;624;653;664;661
450;501;542;570;586;582
482;392;347;331;337;369
502;529;541;550;554;562
457;558;627;668;683;666
462;395;369;362;372;394
498;467;448;440;443;464
466;579;649;689;704;686
445;431;438;449;465;476
489;413;370;352;355;386
485;572;623;653;664;659
444;492;532;560;576;572
477;389;344;328;333;365
497;527;541;552;556;562
451;551;618;660;676;658
456;389;361;354;363;387
490;463;445;439;443;463
456;570;641;683;699;682
434;418;425;437;454;467
475;400;359;342;347;379
467;557;611;644;655;652
421;469;510;540;557;556
447;362;320;307;315;349
464;499;517;530;538;548
418;518;585;627;646;631
425;356;328;322;334;360
463;438;422;416;422;444
434;545;614;655;670;655
419;397;400;408;424;438
465;391;350;331;333;364
461;550;603;634;644;637
426;465;498;524;538;535
467;377;329;311;314;343
491;523;538;547;550;553
455;544;605;641;653;633
476;397;360;347;352;372
520;492;471;460;459;472
496;600;664;698;707;685
492;460;454;456;464;473
548;467;418;393;388;413
554;636;682;706;708;692
527;553;579;595;601;590
569;471;418;392;388;410
592;622;633;638;635;631
554;639;694;726;733;707
571;488;448;431;433;449
605;580;560;549;544;555
569;676;742;778;786;763
551;522;518;522;532;541
587;517;476;456;456;483
577;671;726;757;765;754
538;571;602;626;638;635
573;482;434;414;416;446
587;626;644;655;659;661
542;633;694;731;745;725
554;476;442;429;437;460
584;566;552;546;548;565
551;661;729;769;782;765
535;506;502;508;521;535
574;506;467;449;451;482
561;658;716;748;757;749
520;552;583;607;622;621
552;466;420;402;406;437
566;609;632;646;652;655
521;610;671;709;724;707
537;457;421;410;419;444
569;552;541;536;539;556
535;643;713;752;767;750
524;490;484;489;502;517
564;497;456;439;441;471
550;647;705;738;747;737
511;540;567;590;603;604
547;459;412;393;396;426
560;605;628;642;647;649
516;602;661;698;712;695
534;452;415;402;409;435
568;553;542;537;538;554
531;640;709;749;762;746
515;483;477;482;494;509
550;487;451;435;437;468
536;637;697;732;742;732
502;528;556;579;593;594
540;451;404;384;388;418
550;599;623;638;644;646
502;589;649;685;701;685
521;440;403;389;398;424
556;543;533;529;531;547
520;630;701;741;755;739
506;472;466;470;482;498
547;482;444;428;429;460
533;634;693;728;737;725
498;521;547;568;583;584
538;447;400;379;381;412
549;598;622;638;643;645
503;586;644;680;694;678
522;438;399;387;393;420
550;541;533;530;532;547
515;625;695;736;751;735
507;468;460;462;475;490
546;482;446;429;430;460
526;629;691;726;736;724
490;513;539;560;576;577
528;440;392;373;376;407
541;592;619;635;641;643
497;580;638;673;687;672
519;433;395;380;387;414
547;540;532;530;531;546
509;621;692;734;748;731
501;462;454;456;467;484
540;478;441;426;428;456
523;627;689;725;735;721
485;506;532;553;569;570
519;432;387;367;371;401
520;578;611;630;639;641
466;552;613;652;670;658
486;404;368;357;368;399
522;517;512;513;518;535
487;595;666;709;725;712
481;438;427;430;441;460
521;461;426;412;413;442
507;610;671;707;716;702
482;493;513;531;545;546
526;434;383;361;363;390
538;591;618;634;639;637
500;573;625;655;668;652
522;432;390;372;377;404
550;548;542;538;539;549
514;623;693;732;745;726
509;464;451;451;459;474
540;485;453;438;439;465
523;630;694;730;740;723
493;505;527;546;561;562
534;445;397;376;378;407
543;600;632;651;657;657
500;574;628;662;676;662
517;432;391;376;384;413
537;542;541;542;545;560
488;604;678;723;740;726
474;433;425;428;443;464
492;447;422;414;421;453
449;570;645;689;708;699
407;429;460;489;513;524
487;392;343;325;332;368
624;635;638;643;640;636
684;692;700;701;690;661
737;602;518;468;443;448
742;728;700;673;644;631
660;773;835;862;853;814
591;565;559;558;558;560
576;552;538;535;539;560
528;661;746;797;817;803
486;511;546;579;607;618
511;438;404;397;413;454
503;579;628;661;683;695
457;536;597;640;668;669
480;397;361;353;371;413
503;514;519;525;537;560
460;573;647;695;716;709
457;409;396;397;413;438
495;447;418;408;413;444
478;586;652;691;704;691
456;460;476;493;508;515
494;407;360;340;342;373
493;561;600;623;632;632
452;521;572;605;622;611
478;389;346;331;339;371
499;510;512;515;519;533
456;567;639;683;700;685
456;404;387;388;398;418
493;447;417;406;409;435
473;582;649;686;697;682
448;450;466;483;498;502
488;402;355;335;338;367
490;559;598;622;632;631
449;515;566;598;613;604
475;387;345;330;337;369
496;510;515;519;522;536
457;566;636;680;696;682
456;401;384;381;391;412
493;448;420;409;411;436
468;579;646;686;698;681
439;441;458;475;490;496
470;390;347;329;332;364
467;544;588;616;628;628
423;491;543;578;596;590
445;360;321;309;319;354
461;481;489;497;505;520
420;530;604;650;670;658
422;367;347;348;360;383
459;416;390;380;385;413
433;546;613;654;669;653
411;409;423;440;456;464
454;369;322;303;306;337
458;532;575;600;610;609
419;480;527;558;574;565
452;359;315;298;304;336
483;496;499;502;504;514
452;553;620;660;673;654
467;400;373;365;369;386
514;465;432;416;413;432
503;606;666;699;704;680
494;480;483;490;497;496
549;455;399;371;364;386
561;628;663;682;682;670
529;579;617;639;646;628
568;468;415;390;387;410
594;606;606;604;599;599
562;661;724;759;766;739
568;500;469;457;459;470
604;559;528;512;507;523
582;689;752;786;792;767
563;550;556;564;574;574
603;515;464;439;438;462
598;675;719;743;749;741
556;611;654;681;694;683
585;491;444;424;428;457
601;623;630;634;636;643
558;663;732;772;786;768
560;495;467;461;468;488
590;552;526;516;517;540
560;673;742;780;792;774
537;527;535;547;561;569
573;492;446;425;427;458
569;652;701;728;738;736
531;584;628;657;672;665
556;465;420;403;408;441
571;597;608;616;620;629
530;635;704;747;762;745
538;470;442;435;444;465
570;535;510;500;502;525
545;657;724;763;775;756
526;512;518;528;541;549
563;482;436;415;416;447
557;642;692;721;730;725
511;563;606;636;651;645
541;450;404;388;394;427
563;589;600;608;612;620
517;620;688;730;745;729
521;452;424;417;426;448
559;524;501;492;494;516
530;642;710;749;762;743
509;493;498;507;522;531
547;468;423;402;404;435
539;627;679;709;718;713
500;549;590;618;633;628
530;439;394;376;381;414
550;579;592;601;604;612
510;610;677;718;733;715
521;449;416;407;415;437
552;522;500;491;492;512
523;636;705;745;757;738
503;486;490;500;513;524
542;465;421;401;403;434
535;625;678;708;718;712
496;542;580;608;623;618
530;438;392;374;379;410
546;578;593;602;607;612
499;600;667;708;723;705
508;435;404;396;405;428
539;512;493;486;488;509
513;623;692;733;747;729
496;474;476;484;498;511
540;461;415;395;396;427
532;623;676;705;715;708
493;535;572;597;611;607
523;432;386;367;371;403
542;575;591;601;604;610
499;596;662;701;715;697
509;433;401;391;399;422
543;516;498;491;492;511
514;626;696;735;747;729
495;473;474;482;495;508
531;458;416;398;399;431
525;619;674;706;715;707
483;525;561;588;603;600
516;427;381;363;367;399
532;569;588;600;604;610
487;584;650;690;705;688
495;420;388;379;389;414
531;508;492;487;489;509
504;615;684;725;738;721
489;463;462;470;483;497
527;453;411;393;395;427
515;611;668;700;710;702
470;509;546;572;588;586
502;413;369;351;356;389
518;558;578;592;597;603
470;566;631;672;689;672
484;407;373;364;375;399
520;498;484;479;482;501
488;599;669;711;725;709
478;448;445;452;466;480
527;451;407;387;388;418
522;614;669;699;707;696
489;519;550;571;583;579
532;436;386;364;364;392
551;588;605;615;615;615
507;598;658;694;704;683
520;439;402;389;395;417
555;536;520;514;514;528
523;633;702;742;755;735
507;478;474;479;491;503
549;478;437;418;419;449
536;635;693;725;734;723
497;529;560;583;597;596
534;444;396;376;379;409
545;589;611;625;630;632
489;583;647;687;703;685
493;418;386;377;388;415
515;506;499;499;506;525
455;579;660;708;729;717
416;401;409;425;447;470
452;394;366;358;370;410
486;576;633;669;684;680
585;560;557;563;566;562
728;570;473;419;396;408
784;777;754;729;699;674
726;789;819;822;802;755
689;609;562;531;513;513
644;659;659;654;645;644
554;698;790;843;859;836
511;503;520;541;565;582
533;485;466;466;484;523
500;619;696;747;774;775
451;490;532;569;600;616
485;403;366;357;374;419
494;548;581;605;622;637
443;535;601;646;670;666
459;380;346;340;355;392
494;486;479;480;488;511
462;573;646;690;709;698
450;414;408;413;429;449
491;426;390;375;379;411
477;581;642;679;691;681
441;464;492;515;531;535
482;392;343;324;327;359
495;545;571;588;594;596
444;531;590;628;643;628
461;379;341;329;338;367
496;488;481;480;482;498
460;571;644;686;702;686
451;412;404;408;421;437
495;431;394;379;380;408
480;585;647;682;692;678
443;464;491;513;528;529
485;395;346;327;329;359
495;549;577;595;601;602
449;532;591;627;642;626
467;382;344;332;340;368
494;491;487;486;490;506
448;564;639;684;701;686
438;400;393;399;414;432
477;419;385;372;378;409
459;568;633;670;684;672
425;444;469;492;510;514
461;374;327;309;314;346
467;525;558;579;587;591
417;501;560;599;616;604
437;353;316;304;314;346
466;466;463;465;469;487
422;537;612;657;675;662
411;372;364;369;384;404
456;398;364;352;356;387
443;549;612;650;662;649
415;428;449;470;486;490
460;369;319;297;300;330
475;530;560;578;584;583
433;509;563;596;609;594
466;374;330;313;318;346
509;502;494;490;488;499
477;582;649;687;698;676
484;431;412;408;414;426
544;476;434;413;408;428
537;635;690;719;721;698
515;517;529;541;547;542
565;468;412;384;376;397
582;634;659;672;671;662
542;610;658;684;691;670
573;477;428;406;406;429
608;604;595;589;584;590
572;675;740;778;785;762
568;514;495;490;494;505
609;550;512;493;490;511
588;694;754;787;792;771
557;562;579;593;605;603
595;505;455;430;430;456
600;662;695;714;719;716
550;622;675;707;720;706
571;481;439;423;429;460
597;603;601;603;604;616
553;664;735;778;793;775
546;497;481;480;490;508
588;535;502;489;490;516
565;674;738;776;785;769
536;541;557;574;588;591
575;487;438;418;418;448
574;641;679;702;709;708
526;596;650;683;699;688
553;463;421;405;412;445
579;587;588;590;592;606
537;645;717;759;774;758
532;480;462;460;471;489
575;522;491;477;479;505
552;661;725;761;771;754
520;523;539;555;568;572
556;471;424;403;405;434
558;627;667;691;698;697
509;577;630;663;679;669
534;445;403;387;396;428
562;572;575;578;582;596
523;629;699;741;756;741
525;467;446;441;450;470
562;513;482;468;468;493
537;647;713;750;759;741
510;511;524;539;553;557
554;468;418;396;397;425
558;628;667;690;698;695
512;577;626;656;671;660
537;447;404;387;393;425
561;576;580;583;585;596
516;625;697;739;755;738
519;461;440;436;446;465
556;510;482;471;472;496
532;643;710;748;758;740
504;502;514;530;544;550
544;459;411;391;393;423
542;616;659;684;695;692
496;559;607;640;656;647
522;432;389;373;381;414
548;564;569;574;577;589
505;611;682;724;740;724
508;448;424;420;430;449
550;504;476;464;465;488
522;632;699;736;747;729
493;489;500;514;528;534
536;453;405;385;386;416
535;611;655;681;691;688
492;550;597;627;643;635
524;433;388;370;377;409
550;568;574;578;580;589
501;608;678;720;734;717
502;442;418;414;422;442
539;499;474;464;468;489
512;624;692;731;743;724
489;482;491;505;519;526
530;448;401;382;384;413
528;608;653;681;691;687
488;544;588;617;632;624
518;427;383;365;371;403
540;562;571;576;579;588
494;598;668;710;725;707
499;435;409;403;413;432
538;500;474;464;465;487
514;623;690;729;739;721
490;479;486;498;510;518
532;450;403;382;383;413
531;611;658;686;695;689
486;540;583;612;626;619
512;422;378;362;367;400
532;557;569;576;580;590
481;587;658;702;718;702
481;418;394;390;399;423
518;485;463;456;459;483
489;603;673;715;728;712
469;457;465;478;493;503
514;433;388;368;371;402
512;595;644;673;684;679
468;520;563;591;607;600
506;413;366;348;353;385
536;559;567;573;575;582
494;593;659;699;711;692
506;434;403;393;399;419
556;516;489;476;474;491
529;637;702;737;746;723
507;489;491;498;509;515
548;467;420;397;396;424
540;627;677;705;713;704
496;545;585;612;626;618
530;437;391;372;377;407
552;580;592;599;602;608
507;607;674;715;728;709
516;444;413;404;412;433
554;521;498;489;490;509
513;629;699;739;751;733
480;468;476;488;503;515
511;439;400;384;389;422
482;583;645;681;697;695
415;478;529;565;589;592
427;353;321;314;329;371
479;509;527;542;554;568
555;612;654;682;690;670
693;550;471;431;415;423
795;704;633;585;551;544
762;841;873;876;849;799
698;673;659;646;628;609
670;613;574;548;533;542
598;722;794;832;840;821
509;585;647;689;714;709
511;446;423;423;445;485
508;563;600;629;653;673
449;563;645;703;737;737
455;391;370;374;400;441
494;472;460;463;479;513
461;577;652;700;723;719
440;421;426;439;461;485
484;410;368;353;360;401
475;570;626;661;674;672
431;475;513;542;560;562
467;377;332;315;322;357
484;522;541;554;560;568
436;536;603;644;661;645
451;377;345;336;346;372
494;470;452;447;449;469
458;572;642;684;698;682
438;416;417;426;441;455
481;409;369;352;354;387
473;569;626;659;670;662
432;471;507;533;548;547
469;381;335;318;323;354
484;525;545;559;565;570
437;533;597;638;653;636
451;375;342;334;343;368
487;468;453;449;453;471
452;566;635;678;693;676
438;411;409;417;432;448
479;408;369;352;355;387
467;564;623;656;667;659
426;461;494;520;537;536
458;371;327;310;315;348
469;514;538;553;560;566
422;516;580;622;638;622
435;358;326;318;329;356
463;450;440;439;444;464
423;539;612;657;674;660
407;381;381;391;407;425
447;383;346;334;339;373
432;534;595;632;646;639
396;428;461;487;505;507
437;349;304;287;291;325
453;498;522;537;543;548
411;499;561;600;615;599
430;350;314;304;310;337
466;451;439;436;438;454
437;546;615;656;670;653
434;398;391;395;406;420
490;416;373;353;352;380
488;580;633;663;669;654
465;483;505;523;532;527
517;418;362;336;332;356
546;582;597;604;601;597
513;589;640;669;674;649
547;453;405;385;382;399
593;569;548;536;528;534
569;668;728;761;764;737
566;520;504;499;501;507
611;538;492;468;461;480
599;694;748;775;776;756
567;585;605;621;628;620
607;514;462;436;433;455
618;665;687;699;699;694
573;654;708;741;750;730
596;508;466;450;453;475
623;613;603;598;596;608
579;690;759;799;811;790
563;526;518;520;532;546
600;539;504;488;490;518
580;684;747;782;792;779
546;566;591;612;627;628
584;495;447;426;429;460
591;643;670;687;692;696
542;623;679;715;730;716
560;476;437;422;429;459
588;582;576;574;576;592
549;659;729;771;785;769
539;498;489;490;502;519
581;518;483;466;468;497
560;664;726;761;770;757
528;544;567;586;600;602
567;478;429;408;410;440
577;631;659;676;681;682
534;611;666;700;713;698
554;467;426;411;417;445
582;579;572;570;571;585
539;651;722;763;777;761
532;490;480;480;492;508
568;510;477;462;463;492
544;652;717;754;764;750
510;527;551;571;587;591
549;462;416;397;400;430
558;615;647;667;674;675
512;589;643;679;694;681
536;449;408;394;401;432
567;566;561;560;562;576
527;636;706;747;762;745
519;474;461;461;472;489
557;500;468;454;456;482
535;641;705;741;752;737
502;514;535;554;569;573
542;455;407;388;390;419
547;607;639;660;667;667
500;575;628;663;678;666
523;437;396;381;390;421
552;555;552;552;555;569
511;620;691;732;748;732
509;461;447;446;457;475
548;493;461;447;448;475
526;633;698;734;744;728
496;504;524;541;555;559
534;448;402;382;383;412
537;601;636;658;666;665
492;565;618;653;668;656
520;432;390;376;383;414
546;552;551;553;555;568
506;614;685;727;743;727
504;455;439;437;448;466
542;490;459;446;448;473
521;629;694;730;740;724
495;500;517;534;548;552
538;450;402;381;382;410
540;604;639;662;668;667
495;565;616;649;663;651
521;432;389;374;381;412
546;554;554;556;558;571
507;614;683;725;740;725
508;454;437;433;443;461
548;496;466;451;451;476
524;632;697;733;742;725
495;499;515;531;544;549
535;450;401;382;382;410
534;603;640;664;672;670
489;559;609;642;657;647
515;427;385;371;379;410
540;551;554;556;559;572
494;604;677;719;735;720
492;439;423;421;432;452
530;483;455;444;447;473
502;613;681;719;731;717
470;475;492;509;525;532
508;426;382;363;367;399
507;580;622;647;658;659
468;534;584;617;634;626
496;408;365;350;358;392
524;535;538;542;545;558
485;590;659;702;716;701
494;434;412;407;415;433
540;489;457;443;442;465
520;625;687;722;730;711
495;491;501;513;524;527
538;451;402;380;377;404
538;609;649;672;679;674
494;557;603;634;648;637
524;432;388;371;376;406
549;562;566;569;571;580
509;613;681;722;736;719
512;452;429;424;432;450
552;507;478;465;464;487
528;637;702;739;748;729
502;498;509;523;535;540
541;458;409;388;389;417
532;611;655;681;691;688
478;545;596;629;646;638
488;407;370;359;369;404
487;518;534;546;557;573
407;535;621;675;702;694
399;355;346;354;376;407
531;464;427;414;418;448
625;680;712;730;728;704
675;612;579;560;548;538
731;609;525;472;443;449
709;773;797;798;779;751
618;684;726;744;741;712
594;524;489;473;472;491
576;619;643;658;664;670
508;633;720;775;800;786
492;446;437;445;467;496
518;490;478;479;494;529
485;605;682;732;755;749
459;456;473;494;518;537
499;421;379;364;374;413
497;580;630;662;677;682
452;512;559;592;612;612
482;394;352;337;347;384
505;528;539;547;554;567
458;566;637;680;699;684
462;400;376;371;383;406
502;465;442;433;436;461
473;586;656;696;709;692
451;441;451;465;479;490
495;413;368;349;351;383
492;575;623;652;662;659
449;502;546;576;592;586
477;388;344;328;335;368
499;524;536;543;548;558
455;558;628;670;686;670
462;395;369;362;371;393
501;465;442;433;435;457
474;585;653;693;706;688
454;440;446;458;472;481
497;415;369;349;351;382
492;578;626;656;665;660
445;498;542;571;587;581
474;385;342;326;332;365
490;520;534;544;549;558
440;547;619;662;680;663
448;381;356;351;362;385
486;454;435;428;431;455
455;568;638;680;695;679
432;420;426;439;455;467
471;394;352;334;338;371
461;552;606;638;651;648
411;465;510;541;559;557
438;353;313;299;309;344
456;490;507;520;528;539
412;515;586;629;648;633
422;352;324;319;331;357
460;430;411;405;409;432
432;544;612;655;668;652
419;399;401;412;426;438
468;387;341;321;322;353
468;554;604;633;642;634
433;474;511;535;548;542
477;380;331;310;312;340
508;532;541;547;547;549
478;568;627;662;672;647
498;417;379;364;367;383
551;512;484;470;464;477
535;636;695;727;730;704
528;497;490;490;494;497
578;495;444;417;409;430
579;663;709;732;732;715
544;577;607;626;633;620
584;488;437;412;409;431
602;632;645;650;648;645
560;650;711;745;754;730
572;493;457;443;447;466
606;581;561;552;549;563
575;684;750;786;795;774
557;530;528;534;544;554
596;522;479;459;458;487
586;678;731;762;769;759
544;579;613;636;650;645
577;487;440;421;424;454
591;628;646;658;661;665
543;636;699;737;752;734
554;477;443;432;440;464
586;566;549;544;545;563
552;662;731;771;784;767
531;505;504;512;525;539
572;500;459;442;444;475
562;657;712;745;754;745
523;557;589;613;628;625
560;470;423;403;407;437
573;613;632;644;648;652
524;618;681;719;732;716
537;460;426;415;424;448
572;553;539;535;536;553
536;648;717;757;771;754
517;491;489;496;509;524
560;490;450;433;435;466
547;645;702;735;746;736
509;541;573;596;611;610
546;457;411;391;395;426
563;603;624;637;641;644
517;606;667;704;718;701
531;451;414;403;411;436
561;546;532;529;530;548
522;635;705;746;760;744
507;477;474;480;494;510
550;481;442;425;428;458
539;636;694;726;737;727
503;530;560;582;597;596
539;449;402;382;385;415
553;596;619;632;637;639
507;595;655;692;706;689
527;446;408;395;402;427
560;546;534;529;530;546
527;636;705;745;758;740
516;482;476;480;490;504
555;489;450;433;433;462
540;641;700;734;743;731
501;528;557;579;595;594
536;449;404;385;388;417
545;594;619;635;641;644
499;587;647;684;700;685
516;434;399;386;395;423
544;535;527;524;528;545
506;617;689;731;746;732
498;462;455;460;472;490
540;474;436;420;423;453
526;626;686;720;730;720
490;512;538;560;574;575
528;439;392;372;374;404
538;588;613;629;635;637
493;577;634;671;685;671
512;429;390;378;385;412
540;533;525;523;525;540
499;610;682;725;740;724
484;449;442;448;461;479
518;460;427;413;417;448
503;608;671;708;721;710
469;491;517;540;557;560
506;420;375;356;360;392
512;567;596;615;622;626
469;552;610;647;663;649
495;410;371;359;366;395
532;524;515;512;514;529
501;607;675;715;728;709
501;457;443;443;452;467
547;482;443;425;423;449
529;630;691;723;730;714
496;511;534;551;564;563
536;447;398;376;377;404
546;598;626;642;647;646
502;579;634;667;680;664
523;436;396;382;387;415
556;551;544;541;542;555
519;626;695;735;747;731
511;468;455;456;465;482
550;491;455;440;441;467
528;634;697;733;742;727
490;506;530;550;566;568
518;436;392;374;378;408
508;574;611;635;645;648
437;529;595;638;658;651
428;362;337;335;352;389
449;464;472;484;497;521
474;570;636;679;698;689
608;506;459;441;441;452
742;620;539;491;466;474
753;813;833;831;806;764
699;692;687;677;660;633
683;604;551;516;497;502
621;707;752;772;771;757
526;632;707;751;769;754
518;457;437;438;457;493
525;548;564;581;599;624
471;595;681;739;771;769
461;424;421;434;461;493
496;448;424;420;435;475
476;587;656;699;720;717
442;455;479;502;525;539
481;398;354;338;346;383
488;550;587;610;622;629
442;517;572;609;626;620
465;380;340;328;338;373
492;499;499;502;507;524
448;560;632;677;694;682
446;400;387;388;400;420
487;436;405;394;397;423
467;576;641;679;691;676
440;447;466;485;501;505
483;397;351;330;333;363
486;551;587;609;617;618
439;512;565;599;615;606
465;378;337;325;332;364
493;501;501;505;508;522
455;563;633;676;692;676
454;404;387;386;397;415
490;440;410;398;402;427
469;577;642;680;691;675
440;445;462;479;495;499
482;397;350;331;333;363
484;551;588;612;621;621
436;507;558;592;607;598
458;372;332;319;327;360
478;492;497;502;508;521
433;543;617;662;681;668
429;380;365;366;379;401
465;420;394;384;390;417
440;552;620;660;674;660
409;415;433;453;470;478
447;367;324;308;311;343
444;518;561;588;601;602
394;466;520;557;575;568
421;337;298;287;298;332
450;463;469;476;482;497
412;519;589;634;652;638
417;361;342;340;352;372
462;415;385;373;375;400
446;552;616;652;663;644
426;422;434;447;459;463
476;389;341;318;316;343
484;550;587;610;615;611
454;509;552;579;590;577
497;398;348;328;329;355
539;542;538;535;531;536
510;604;664;699;706;682
525;456;425;413;413;424
576;521;484;463;455;468
565;663;719;747;748;720
549;535;537;542;546;542
597;505;450;422;413;432
603;669;705;723;722;709
566;619;659;682;689;671
595;500;451;430;429;453
617;631;633;634;631;634
570;673;741;779;790;768
570;509;486;478;485;498
608;565;538;525;524;544
583;692;756;792;801;780
560;552;559;570;582;585
597;516;468;446;445;474
590;667;712;737;745;741
541;601;647;678;693;684
569;480;437;421;428;460
588;609;618;624;628;639
544;646;716;758;773;758
545;482;458;452;462;483
580;541;516;506;508;531
550;661;729;767;779;762
525;517;526;539;553;562
564;485;440;420;423;453
563;642;687;714;724;721
522;575;617;645;660;654
551;461;416;399;405;437
571;594;603;610;613;622
524;626;694;735;750;734
529;464;438;430;439;461
565;531;508;498;500;521
541;650;717;755;766;747
522;508;512;523;535;543
559;482;437;417;418;447
551;635;684;712;722;717
510;562;603;631;647;640
542;453;408;392;398;429
561;588;599;606;611;619
514;616;684;724;741;723
519;453;426;419;429;450
556;523;501;493;495;516
523;635;704;743;755;739
501;487;493;505;519;529
544;466;422;403;405;436
543;625;673;702;712;707
503;550;590;617;631;625
534;443;398;380;385;416
549;577;590;598;603;610
503;604;672;713;729;711
512;443;415;407;416;438
545;513;493;485;487;508
516;627;696;736;747;730
499;482;486;496;509;520
540;462;417;397;399;430
533;620;670;699;708;702
489;538;578;606;621;615
523;433;388;371;377;408
543;573;587;596;599;606
496;596;664;704;720;702
506;435;406;398;407;429
539;510;491;483;486;506
512;623;691;730;743;725
495;475;478;488;501;512
534;458;415;396;398;429
527;615;668;699;708;702
486;531;569;595;610;606
517;428;383;366;372;403
530;564;581;592;598;604
487;583;650;690;707;690
499;426;394;386;395;419
534;507;488;481;484;503
502;613;681;721;734;717
478;458;460;471;485;498
507;439;400;384;387;420
493;589;646;681;694;688
459;501;539;568;585;584
498;407;361;344;350;383
516;550;566;576;583;589
471;567;632;671;687;670
485;410;378;368;377;401
527;499;481;473;474;492
504;611;676;715;726;707
494;466;463;469;480;490
543;465;419;397;395;422
535;625;676;705;711;699
492;531;565;589;600;594
525;436;390;371;373;401
540;578;596;607;610;612
499;592;656;695;710;689
515;437;403;392;400;423
552;526;508;501;502;519
518;628;696;735;747;728
503;476;474;481;493;506
548;474;430;412;411;442
538;631;684;715;723;714
497;533;566;590;603;600
522;435;390;373;377;407
523;569;593;607;615;620
461;563;633;676;696;681
442;382;360;357;374;405
445;445;446;453;467;494
401;528;612;664;691;686
451;410;404;414;433;455
637;508;432;395;385;411
740;764;768;763;744;715
760;732;712;692;667;635
780;660;579;524;489;486
746;787;794;785;761;734
621;738;809;843;842;804
563;521;509;509;518;536
554;570;583;597;611;632
492;629;724;785;817;813
461;450;467;492;525;556
488;436;412;412;433;482
470;578;648;695;723;730
433;469;507;540;569;584
466;382;342;329;344;387
478;526;553;572;586;600
429;522;587;629;651;642
447;368;335;327;340;373
482;468;458;457;462;485
447;559;630;673;690;678
435;403;400;408;422;440
476;410;372;357;361;393
461;562;622;658;670;661
428;456;486;509;526;527
468;379;333;314;318;349
482;529;553;569;575;577
437;525;585;623;638;622
456;375;339;327;335;362
488;477;467;465;468;484
449;562;633;677;691;675
437;404;399;406;419;436
479;415;379;365;368;398
463;566;626;663;675;664
429;454;483;506;522;523
464;377;332;314;318;348
476;526;554;571;578;581
432;517;577;615;630;616
446;365;329;319;328;356
472;466;460;461;465;483
431;545;618;663;680;666
418;385;379;387;402;420
456;397;363;352;357;389
438;544;607;645;660;649
403;426;455;477;496;500
436;351;308;290;296;330
438;495;528;548;558;563
389;476;538;578;596;585
406;326;293;284;295;327
439;436;432;434;440;459
402;514;587;632;650;637
398;360;351;356;370;389
445;383;348;334;337;366
431;534;595;631;642;630
408;423;445;465;479;480
455;363;313;291;293;321
475;524;550;564;568;566
442;515;567;599;610;591
470;380;336;319;321;345
517;505;492;486;482;492
496;596;657;693;700;678
510;454;432;425;428;436
565;493;447;423;414;433
562;655;706;731;730;705
546;547;557;566;570;560
595;495;436;406;398;415
615;660;681;688;684;674
577;645;691;716;720;695
602;508;460;437;435;455
632;626;615;608;602;607
594;700;765;801;808;785
591;541;523;520;524;534
629;569;532;513;509;530
606;711;773;805;810;789
570;582;601;618;629;628
605;518;470;449;449;476
604;665;699;719;725;724
557;632;687;721;735;722
578;491;450;436;443;474
605;607;604;606;607;621
565;674;743;785;799;783
561;512;496;495;505;523
599;544;511;497;497;523
579;686;749;784;793;776
549;556;574;591;605;606
586;498;450;429;430;458
585;649;683;703;711;710
538;611;664;697;713;702
561;474;432;416;424;456
587;592;591;593;595;609
546;654;724;765;780;766
542;492;475;475;484;503
581;529;497;484;486;511
556;663;728;765;775;758
524;530;548;564;579;583
563;478;432;412;415;444
565;631;668;690;699;699
522;591;640;673;688;678
547;459;417;401;409;440
569;580;582;586;588;601
526;635;705;748;764;750
526;474;456;454;464;484
567;517;487;474;476;501
543;650;715;751;762;745
512;515;530;545;559;564
553;469;423;403;404;433
553;623;661;685;695;692
506;573;623;655;672;662
531;444;402;388;395;428
555;568;572;575;580;593
516;621;690;732;748;733
517;460;440;437;446;466
555;508;479;467;469;493
529;638;704;741;752;734
503;501;514;529;544;548
540;458;412;392;394;423
539;611;652;676;686;685
495;559;607;638;654;645
520;432;390;375;383;416
542;558;564;569;573;585
500;606;675;718;735;720
502;445;424;420;430;450
536;494;468;458;460;485
509;621;688;726;737;721
490;485;497;511;525;531
533;450;403;383;384;413
531;605;647;672;681;678
485;547;593;625;640;631
507;421;380;366;373;406
520;543;553;561;567;579
482;587;658;703;720;706
488;428;405;401;412;434
521;482;459;449;452;476
490;603;670;710;724;707
469;463;474;488;503;511
510;429;385;365;368;398
514;588;631;659;668;666
482;534;577;605;619;611
519;424;377;358;362;393
542;559;564;568;568;575
501;601;667;707;720;702
505;441;415;407;414;433
544;503;478;466;465;486
519;627;692;729;739;718
499;488;495;505;517;522
543;461;414;392;392;418
540;618;663;688;697;691
495;551;594;623;636;627
523;435;391;375;380;411
543;567;576;583;587;595
500;603;671;713;728;712
503;440;415;409;418;438
532;499;479;471;474;495
497;611;682;722;737;719
468;461;472;487;504;513
482;416;380;367;374;408
452;549;609;648;666;669
383;453;511;552;579;583
447;357;318;308;322;363
587;569;556;553;552;560
652;691;715;728;722;692
717;594;521;478;455;453
754;689;633;592;561;553
695;797;847;863;846;800
616;615;623;624;621;610
595;545;517;502;500;519
543;656;727;770;787;783
478;550;611;656;684;686
497;424;396;394;416;460
505;546;572;594;613;634
456;565;642;694;723;720
465;401;379;380;399;433
499;472;457;454;465;495
465;579;651;695;714;706
447;432;440;453;471;489
488;414;373;357;361;397
482;570;622;654;667;666
447;493;533;562;578;577
481;392;348;332;337;372
497;528;544;554;559;568
450;550;618;660;677;662
460;390;361;354;365;389
496;468;449;443;446;467
467;577;645;685;699;682
454;433;435;445;458;470
497;420;377;358;359;389
490;578;629;659;669;663
450;493;531;558;572;569
484;396;350;333;338;368
504;536;551;561;565;571
458;555;620;661;675;658
465;394;364;356;365;387
498;474;457;451;455;474
467;579;649;689;703;686
449;429;432;441;456;469
488;417;377;361;363;393
478;571;626;659;671;665
439;482;519;546;563;560
472;385;341;325;331;364
487;524;543;556;561;568
441;538;604;645;662;646
450;379;349;341;351;376
481;461;447;443;448;468
447;560;631;673;689;674
426;406;409;419;436;451
462;394;357;342;347;380
448;545;603;639;652;649
411;451;488;516;534;535
449;360;317;301;307;342
470;506;524;538;543;549
430;522;584;623;639;623
449;370;335;324;332;356
489;464;446;439;440;458
465;571;636;673;684;665
461;429;422;426;436;446
514;436;390;368;364;391
514;601;650;678;682;670
491;517;543;560;568;560
538;441;388;362;358;382
562;594;606;612;608;604
529;612;667;698;705;679
556;468;425;407;407;422
590;566;546;533;528;537
565;668;731;764;771;746
558;522;513;513;519;525
604;529;484;460;455;478
590;684;736;765;769;754
554;583;610;630;640;633
591;499;450;428;428;453
604;644;663;673;675;674
559;646;706;740;752;730
574;492;455;440;446;468
601;586;572;566;567;582
566;675;743;782;795;776
552;519;514;518;530;544
589;522;482;465;467;496
573;672;730;763;772;762
535;563;592;614;629;628
566;479;433;415;418;449
576;622;646;661;667;670
527;615;677;714;730;714
541;462;426;415;424;450
569;559;550;547;551;568
532;643;714;755;771;756
525;489;484;488;501;518
567;501;461;446;447;478
553;652;711;744;753;743
517;542;569;590;604;604
554;465;419;399;401;431
560;609;634;650;655;657
514;600;660;697;711;695
529;448;413;400;408;434
559;551;543;541;544;560
527;634;703;745;759;744
519;481;472;475;487;505
558;494;456;440;442;472
539;641;701;736;745;734
506;528;552;574;588;589
539;454;407;388;391;421
544;597;624;642;648;650
502;585;643;679;695;679
520;437;400;387;395;422
553;545;539;537;539;554
520;626;694;735;750;733
513;472;462;463;475;491
554;493;456;440;440;469
536;639;699;734;743;730
501;520;544;564;578;579
539;453;406;387;389;418
542;597;626;644;650;651
498;579;637;672;687;672
517;434;396;383;391;419
549;545;540;539;541;556
510;618;688;730;745;730
500;460;451;453;465;483
536;480;447;434;436;466
517;623;686;723;734;722
485;500;524;544;560;564
525;438;391;373;376;407
530;585;616;634;642;642
483;562;618;653;669;656
502;418;380;366;374;404
531;531;527;528;531;546
499;605;673;714;729;714
502;454;439;439;450;467
545;485;449;432;432;460
528;630;689;723;731;716
496;506;525;542;555;556
533;448;400;379;381;408
539;597;627;646;652;650
497;572;625;657;671;657
519;433;393;377;384;412
544;548;546;546;548;560
505;613;683;725;739;723
504;458;444;444;455;473
546;491;457;444;445;471
528;633;694;730;739;723
498;507;525;542;556;558
535;451;405;385;386;414
533;596;630;652;659;658
478;556;613;648;664;653
484;406;372;362;373;406
485;504;514;523;532;551
424;545;627;679;703;696
408;374;371;381;402;431
503;440;405;394;400;433
604;661;695;714;715;695
664;612;586;573;563;552
733;605;520;468;438;444
721;765;775;770;748;721
640;711;754;770;763;729
603;536;502;485;483;499
576;612;630;641;646;654
509;639;727;782;807;794
488;457;458;471;495;521
514;479;463;465;481;518
484;602;677;725;751;747
452;464;488;514;541;557
486;410;371;359;371;411
486;556;598;626;642;651
446;516;569;605;626;624
468;383;346;334;346;383
492;505;510;516;523;540
454;560;631;675;693;682
457;406;388;388;399;421
493;447;419;408;412;439
471;579;644;683;694;679
446;447;462;479;494;500
487;405;360;341;344;373
489;557;595;619;628;627
449;514;562;593;609;599
478;389;346;331;338;370
501;514;518;522;524;536
461;565;634;675;690;676
464;409;389;386;396;416
499;455;427;417;419;442
476;585;650;687;698;681
454;452;465;480;494;499
492;412;368;348;349;377
488;560;602;627;637;635
444;509;559;590;607;598
470;384;344;331;339;371
489;508;516;522;527;540
445;551;623;667;685;672
446;392;374;373;385;407
479;440;417;409;413;439
452;564;632;672;685;670
424;424;439;456;472;480
459;383;342;326;331;362
452;529;575;604;618;618
409;471;521;556;575;570
435;350;310;299;309;345
453;475;484;494;501;516
414;518;588;632;651;640
420;362;340;338;349;372
458;418;394;385;388;413
437;545;610;648;661;644
420;412;420;434;447;454
469;386;339;318;319;346
477;546;586;609;617;612
446;497;538;563;575;564
487;392;344;323;325;352
516;531;534;536;533;539
489;582;643;679;688;668
507;437;406;394;395;409
557;509;477;460;453;468
543;642;700;730;733;706
534;515;514;519;522;520
583;495;442;415;408;427
585;655;693;713;714;702
548;596;634;657;663;648
582;487;438;416;416;440
604;623;628;630;628;630
564;660;723;760;770;748
571;503;473;464;468;483
608;569;542;529;527;543
580;687;749;784;792;770
554;541;546;556;566;571
594;515;470;448;448;474
589;668;714;740;748;742
544;596;637;664;678;670
574;484;440;422;428;459
586;613;625;633;637;645
540;641;708;749;765;750
549;483;456;447;456;478
581;549;528;519;521;542
551;661;728;767;779;761
533;518;522;533;546;554
572;496;452;432;433;462
565;648;696;724;734;729
523;572;613;640;655;650
551;463;420;403;410;442
567;596;610;618;623;632
525;624;690;730;746;730
535;467;437;429;437;459
570;538;517;509;510;530
540;649;716;754;765;747
517;500;505;514;528;537
556;481;438;420;422;451
548;633;683;712;723;719
511;556;594;620;635;631
540;451;407;390;395;427
553;585;600;610;614;621
512;609;673;714;729;713
526;454;423;414;421;444
560;531;510;503;503;522
529;638;704;743;755;736
509;490;492;500;514;524
550;476;433;414;416;444
543;630;682;712;721;715
504;547;585;611;625;621
538;449;404;387;391;423
555;588;603;613;617;623
511;607;671;710;724;708
516;447;417;408;417;439
542;520;505;500;503;522
511;623;693;733;747;730
498;476;478;487;502;514
537;465;424;407;409;439
524;615;669;701;712;707
484;527;564;591;607;604
515;427;385;368;375;408
535;569;586;598;603;609
498;589;651;689;704;688
517;439;404;393;399;423
552;526;506;498;498;515
523;629;695;732;743;723
508;482;480;485;496;507
550;477;434;415;415;441
542;631;684;714;722;712
502;539;573;596;610;605
537;448;402;383;386;416
550;588;606;617;621;624
504;598;661;699;714;697
518;443;410;400;408;431
549;529;514;509;511;528
519;628;696;736;749;731
505;478;476;482;496;509
541;473;434;416;418;447
522;618;676;709;721;714
476;516;553;579;596;596
495;416;377;363;372;405
486;539;569;589;600;610
413;522;598;646;671;662
433;364;339;338;356;389
552;507;481;472;474;495
624;682;717;735;735;710
677;595;552;527;515;511
729;627;556;509;481;488
692;777;815;826;810;778
608;649;678;692;690;670
582;519;486;471;471;492
553;622;663;688;699;701
489;598;677;728;755;744
491;427;407;410;431;466
510;507;507;515;532;560
469;588;666;716;743;739
456;431;434;447;471;497
497;434;401;390;399;440
483;582;644;681;698;696
446;478;510;537;556;561
482;397;354;337;344;380
490;538;564;581;589;596
445;535;597;637;654;641
463;385;352;342;352;381
497;484;475;473;476;495
463;572;642;683;698;684
456;422;417;422;436;452
495;431;394;379;381;411
480;579;638;672;684;675
444;471;500;523;538;539
480;394;349;331;335;367
491;539;564;581;586;589
449;534;593;631;646;630
469;387;351;340;347;373
500;489;480;478;480;496
464;573;642;683;699;682
457;421;415;418;431;447
496;433;397;382;385;414
479;580;640;674;686;675
441;466;495;517;533;535
477;392;348;332;336;367
483;536;564;581;589;592
434;521;583;621;637;623
450;372;339;330;339;367
479;474;469;471;476;493
439;551;623;667;685;671
434;397;392;397;411;430
473;414;380;367;371;402
453;557;620;656;669;659
415;440;468;491;508;512
449;367;325;309;314;346
456;511;542;562;570;574
413;495;554;592;610;598
437;354;317;306;316;345
469;463;458;458;462;477
440;545;613;655;670;654
441;398;386;388;399;415
485;422;386;369;370;397
475;574;631;664;673;658
455;466;485;501;513;512
505;411;360;336;335;360
526;571;593;605;606;601
495;564;612;640;648;627
527;434;387;367;367;386
568;557;543;535;529;535
544;642;703;735;742;717
549;497;478;471;474;482
595;530;488;466;460;479
581;678;733;761;764;742
554;563;579;591;599;594
594;504;453;429;424;447
601;654;681;695;696;690
560;632;684;713;723;704
582;495;452;434;437;461
606;605;600;598;597;607
565;672;741;781;793;774
559;513;500;499;509;524
596;540;506;492;493;519
575;678;740;775;785;770
539;551;572;590;604;608
574;489;444;424;426;456
581;639;670;689;696;697
538;611;663;696;709;697
561;474;432;416;423;452
582;586;583;583;586;599
542;649;718;759;774;759
541;493;478;478;488;506
577;524;491;477;480;505
547;656;721;758;769;754
514;526;546;566;581;585
555;471;426;407;410;440
560;621;655;676;684;685
516;588;640;673;688;677
542;455;413;398;405;435
566;572;571;573;575;588
526;632;702;743;758;743
525;475;460;459;469;487
562;511;480;467;469;495
543;648;712;747;757;741
515;520;537;554;567;572
552;467;421;401;402;431
553;617;652;674;681;680
511;579;629;662;676;665
538;449;407;391;399;428
561;568;570;571;573;585
520;625;695;736;752;736
518;466;449;447;459;477
551;504;475;462;465;491
526;634;700;737;749;733
501;504;520;537;552;557
540;457;410;391;393;422
540;606;643;666;674;674
491;561;613;645;661;650
515;431;390;376;384;416
540;552;556;560;564;576
501;606;676;718;734;721
501;449;431;429;440;459
535;490;464;452;454;480
509;619;686;724;735;720
487;488;502;519;533;538
529;446;400;380;382;411
532;599;637;660;668;667
496;558;604;634;648;638
528;436;392;376;381;410
551;562;564;566;567;577
508;611;679;720;734;717
510;453;433;429;438;456
549;503;474;462;463;486
525;632;696;732;742;724
501;498;510;524;537;541
541;459;412;392;392;419
538;609;649;673;682;678
495;557;604;635;650;640
527;436;393;377;384;414
548;563;568;572;575;585
502;607;676;718;733;718
500;445;425;422;432;452
527;490;467;458;461;486
493;607;678;719;732;717
453;458;477;495;513;523
474;406;370;357;366;399
449;538;593;627;646;651
426;489;540;576;598;597
555;432;372;348;350;383
684;645;614;595;580;579
700;752;777;785;772;736
706;616;563;527;505;499
711;665;624;594;571;568
629;752;819;851;846;809
546;566;591;609;621;618
550;495;470;463;472;500
529;623;685;725;747;751
471;542;602;647;676;678
489;412;381;378;399;444
505;533;550;567;584;607
460;567;642;691;718;714
465;406;386;387;404;435
497;463;442;437;446;477
467;580;649;691;707;697
446;439;449;464;482;494
489;412;369;351;355;388
485;565;611;640;652;652
445;501;545;576;592;588
475;388;347;331;339;373
496;521;531;540;544;554
456;557;625;667;683;669
464;401;375;370;379;401
502;467;444;435;437;459
476;585;651;689;701;683
453;443;450;462;475;482
493;417;374;356;357;385
487;569;617;647;658;654
450;501;543;572;588;582
483;393;349;333;340;372
500;526;538;546;551;560
456;557;624;666;682;666
463;398;372;366;375;397
491;462;442;436;439;461
465;576;644;685;697;681
446;432;439;451;465;475
484;409;367;349;352;382
475;560;610;641;653;649
434;484;526;556;573;569
460;375;333;320;328;361
474;506;522;534;541;550
429;532;600;644;662;648
437;373;348;342;352;377
466;440;424;420;424;447
433;546;618;660;676;662
416;401;408;421;438;450
457;384;344;327;332;363
452;538;590;622;635;632
418;464;504;531;547;544
456;366;322;305;310;343
478;506;520;529;532;539
440;535;599;638;652;636
455;382;350;341;347;368
496;464;442;434;432;450
474;579;642;679;688;667
466;441;438;444;453;461
519;438;389;366;364;388
525;603;647;672;677;665
502;534;563;582;590;579
548;449;395;370;367;391
574;597;604;606;602;600
538;625;682;714;721;695
557;477;438;422;422;436
596;564;539;526;520;531
571;674;736;769;774;749
561;533;528;530;537;541
601;525;479;455;451;473
590;678;728;755;760;748
549;588;623;645;656;648
578;490;445;426;428;456
590;626;643;654;656;660
547;641;705;743;757;739
561;485;452;441;448;471
592;569;551;545;545;562
559;668;735;774;786;767
541;517;515;522;535;547
576;505;465;448;449;478
568;659;713;744;755;747
530;566;600;624;639;635
564;474;429;410;415;445
577;613;632;643;647;652
530;623;686;724;739;722
545;468;434;423;430;455
576;555;539;534;535;553
540;650;718;757;770;753
526;499;497;503;516;530
566;495;455;437;438;468
553;647;702;734;744;736
512;548;582;606;621;619
545;458;414;396;401;432
556;597;619;632;637;642
515;606;668;706;721;706
530;453;418;407;415;440
562;544;530;526;527;545
529;638;705;746;759;742
518;488;484;490;502;516
557;489;449;431;433;463
544;640;697;728;738;729
506;538;570;593;607;605
542;454;409;390;394;425
553;595;617;630;635;639
509;597;658;696;711;694
523;444;408;398;406;431
551;537;525;522;524;542
513;623;693;734;749;733
501;470;466;473;487;503
541;475;436;419;423;453
528;625;683;716;726;718
491;520;550;572;588;587
530;442;395;377;380;411
541;585;608;622;627;630
494;582;642;680;695;679
504;427;393;382;391;416
527;519;512;511;515;532
494;605;676;719;734;719
488;455;450;455;469;486
528;464;427;410;413;443
512;612;671;705;716;707
477;503;532;555;569;571
514;427;382;364;367;399
522;570;596;612;617;620
479;565;624;662;677;661
500;418;382;370;377;403
536;524;513;510;512;527
503;609;676;716;730;713
498;459;450;452;464;479
540;474;434;418;418;446
527;625;683;715;723;711
496;516;540;559;572;571
535;446;398;377;378;405
545;593;617;631;635;635
500;582;639;674;687;670
514;433;395;382;389;414
542;535;528;527;528;543
505;614;683;725;739;723
498;460;451;455;468;484
538;477;441;425;428;456
519;621;683;717;728;716
477;501;528;549;566;568
499;421;380;365;369;402
483;548;585;609;620;625
414;512;581;626;649;642
413;347;323;321;339;376
470;466;464;469;479;502
547;616;663;694;704;687
665;558;504;478;467;470
762;645;564;512;481;485
749;818;844;844;818;777
681;690;696;693;678;652
648;581;538;511;498;508
590;675;723;747;751;743
507;615;693;742;764;753
505;443;424;428;449;484
516;531;544;560;578;605
466;586;670;727;758;756
454;421;420;434;460;492
490;439;413;408;422;463
469;578;645;688;709;707
441;457;483;508;529;541
484;398;353;337;344;381
493;549;579;600;609;615
449;527;581;617;633;623
473;389;350;337;344;375
496;499;497;499;502;517
454;565;637;681;698;682
451;408;398;401;415;433
491;437;405;394;397;426
473;579;642;680;692;679
448;458;479;498;514;517
483;400;354;337;339;369
485;546;579;600;608;610
439;517;572;607;623;611
464;379;340;327;336;366
493;496;495;497;500;514
452;560;631;673;689;675
450;404;391;392;405;424
491;437;406;393;396;423
471;576;640;676;687;673
440;450;470;488;503;507
475;393;348;330;334;364
476;539;574;597;606;607
433;507;560;595;611;601
458;372;332;319;328;359
479;488;489;493;497;511
438;548;619;663;680;666
432;388;376;378;391;410
464;418;392;382;386;415
438;550;618;658;672;660
408;418;440;461;479;486
446;366;323;308;313;345
448;514;552;577;588;591
406;478;531;567;584;577
433;347;307;295;304;337
462;470;471;476;479;494
428;533;601;643;659;645
432;380;362;361;372;390
474;422;393;379;381;405
457;561;624;659;669;651
438;438;451;466;479;481
491;401;351;328;326;353
508;564;595;612;615;610
482;539;579;606;614;598
521;422;372;349;349;374
557;558;551;547;541;546
528;623;683;717;724;701
543;479;451;440;441;451
592;534;496;475;467;482
574;673;731;759;760;733
552;546;554;562;568;563
600;510;458;431;424;445
603;667;699;716;717;708
561;622;666;693;702;686
588;497;450;431;433;459
609;621;622;623;622;629
568;671;737;777;789;769
572;514;492;486;493;509
604;559;530;516;516;537
580;688;752;787;796;776
554;551;563;576;589;592
588;507;462;442;442;470
584;655;695;720;728;727
543;605;651;682;696;688
570;480;436;420;427;459
590;605;609;614;617;628
546;649;718;758;774;760
550;492;469;464;473;493
585;542;515;503;504;527
558;666;731;768;779;761
530;526;538;552;565;571
567;487;442;423;425;453
564;638;680;706;715;713
522;582;627;658;673;666
550;461;418;402;409;441
573;591;597;601;606;616
531;634;701;742;757;742
533;474;451;446;455;475
567;528;502;492;493;516
538;648;715;753;764;747
514;508;519;532;546;553
555;476;431;412;413;441
552;628;671;698;707;704
509;567;611;642;657;650
538;450;406;390;397;429
559;580;588;594;597;608
518;619;686;727;743;728
524;461;436;430;439;459
558;519;495;484;486;509
531;639;705;743;754;736
510;500;507;519;532;539
553;473;426;406;406;434
549;625;669;696;705;700
506;561;604;631;646;638
535;446;403;386;392;423
552;576;586;593;596;605
510;610;678;720;735;719
516;452;427;421;429;450
551;516;493;484;486;507
525;635;701;739;750;733
505;492;499;510;523;531
543;466;422;402;404;432
536;618;665;693;703;700
494;547;590;620;635;628
524;436;393;377;385;417
544;569;581;589;593;602
503;602;669;709;725;710
511;445;418;410;419;440
546;512;491;482;483;504
517;626;694;732;743;725
499;483;488;498;512;520
538;461;417;398;399;428
532;614;662;691;701;696
493;541;581;609;623;618
526;436;391;373;379;411
540;569;582;590;594;602
497;595;663;702;718;702
504;436;409;402;410;432
538;507;488;481;482;502
509;618;686;725;737;720
492;475;478;488;501;511
533;457;413;394;395;425
526;611;660;690;700;693
490;535;573;600;614;609
523;434;389;371;376;407
541;571;584;593;597;602
499;596;661;700;715;697
507;437;408;399;407;429
539;512;493;486;487;507
508;619;687;726;738;720
495;474;476;485;498;508
536;462;419;400;401;430
532;618;667;697;707;699
494;537;574;598;612;607
527;437;392;373;378;409
541;574;590;600;604;609
499;593;658;697;712;695
511;438;407;397;405;427
541;516;498;491;493;511
507;617;686;725;738;721
490;469;470;480;492;504
531;458;417;400;401;431
521;610;664;695;705;699
483;524;560;586;601;597
517;428;384;367;372;403
532;567;584;596;600;606
488;583;647;686;701;684
499;427;396;386;394;419
533;511;494;488;490;509
502;612;680;719;732;715
487;463;462;470;484;496
528;458;417;399;400;431
518;610;663;696;705;698
477;516;551;577;591;589
504;420;378;361;368;399
510;553;576;590;598;603
462;559;626;667;685;671
475;402;373;366;377;403
509;490;477;473;478;497
478;587;656;697;713;698
469;440;439;446;460;475
514;442;400;383;385;415
509;599;651;682;691;683
479;509;539;561;574;570
522;428;380;358;360;388
537;574;591;600;602;603
497;584;643;678;690;670
513;434;398;384;390;411
548;527;511;504;503;518
513;621;688;727;737;718
500;471;467;472;483;495
539;472;432;415;416;444
526;622;678;711;720;709
493;524;555;578;591;589
530;441;395;377;381;409
538;582;604;617;622;624
495;584;646;683;698;680
505;429;396;385;394;419
526;516;507;505;508;527
477;593;668;713;730;716
438;421;427;441;460;480
447;400;376;371;383;421
422;533;603;649;671;671
431;453;482;509;530;537
592;456;383;350;346;373
703;686;665;650;631;619
704;740;757;758;741;701
712;606;541;499;475;473
700;686;665;643;622;613
601;731;806;842;844;810
539;533;544;557;570;578
547;507;489;486;498;528
514;631;707;755;780;777
465;505;548;584;613;624
491;415;382;375;393;436
496;551;585;610;628;643
450;541;606;650;675;672
466;390;359;352;368;404
492;487;482;484;493;518
457;569;640;686;704;695
447;415;410;418;434;456
488;428;393;380;384;419
473;575;634;671;684;677
442;466;494;516;533;535
480;394;350;332;336;367
489;539;566;583;590;593
447;529;588;625;640;626
472;388;350;338;345;373
500;492;484;483;485;500
461;570;640;681;696;681
451;415;407;413;425;442
491;431;397;383;385;415
473;575;636;672;684;674
440;462;488;509;525;528
478;392;348;329;334;364
484;537;566;583;591;593
441;523;580;616;632;618
465;381;343;331;339;367
491;488;482;482;485;500
454;564;633;676;691;676
449;410;401;405;416;434
485;428;395;382;385;414
465;569;633;669;682;670
431;451;477;498;515;518
468;384;340;323;328;359
471;528;560;579;588;591
426;507;566;603;619;608
443;363;327;316;326;357
465;468;466;470;475;492
427;539;610;656;673;660
426;385;375;380;393;413
463;408;375;364;368;398
448;551;613;650;663;652
421;435;457;477;492;496
464;377;331;311;314;344
475;529;558;575;582;582
437;510;562;595;609;594
465;377;336;320;325;352
499;496;489;487;487;499
468;571;636;675;687;669
475;424;407;405;413;426
524;462;423;406;403;425
516;613;669;699;705;685
494;499;514;526;535;532
544;452;399;374;369;391
559;610;635;648;649;642
527;592;639;665;673;652
558;465;417;397;396;418
591;587;579;573;568;574
560;660;723;758;765;742
561;509;488;483;487;498
601;544;507;489;485;504
578;681;741;773;779;758
548;555;572;586;597;596
584;498;450;429;429;454
587;648;680;699;705;701
546;615;665;696;710;695
571;482;439;422;427;456
598;600;597;597;598;609
557;662;729;768;781;764
556;505;488;484;492;509
590;539;507;493;493;516
567;672;735;771;780;763
540;545;561;576;590;593
575;491;445;425;426;454
576;639;675;696;704;702
533;602;653;685;699;687
560;473;429;414;420;451
581;590;590;592;594;607
536;643;713;754;769;755
533;484;469;468;477;496
570;523;494;482;484;509
545;653;718;755;766;751
520;523;539;555;570;575
560;476;430;410;412;441
558;625;662;685;693;692
516;583;632;664;680;671
544;456;413;397;404;436
569;578;579;582;584;597
527;631;699;740;754;740
529;475;455;452;461;480
566;518;489;477;478;502
543;649;713;749;759;741
516;516;530;544;558;562
551;469;425;405;406;434
548;618;657;681;690;688
506;570;619;651;667;658
532;444;402;388;395;428
556;569;572;576;579;592
514;618;686;728;744;730
516;461;441;438;447;467
551;508;481;469;471;495
526;635;701;737;749;731
502;500;513;527;542;547
544;462;416;396;397;425
543;613;653;678;686;684
499;561;608;639;654;645
525;438;396;382;388;420
545;562;568;574;577;589
505;609;678;720;736;722
512;453;432;427;437;457
544;504;478;467;469;493
520;628;693;730;742;724
495;491;502;516;530;536
533;453;408;389;391;419
530;604;646;672;682;680
489;548;593;624;640;632
517;429;386;371;378;410
538;556;563;569;572;583
498;600;667;709;724;710
504;443;420;415;424;444
543;501;475;464;466;487
519;626;690;726;736;719
497;489;497;509;522;527
540;460;413;392;392;419
535;611;655;680;688;684
490;548;593;623;638;630
516;430;388;373;379;412
536;559;568;575;580;590
494;596;665;707;724;709
502;440;416;410;420;441
539;501;477;467;468;491
512;621;686;725;736;718
492;482;490;502;516;523
534;454;409;389;390;418
529;607;652;679;688;684
484;539;583;613;627;621
513;425;382;367;374;406
531;555;565;573;578;588
487;588;656;698;715;701
491;428;404;399;409;430
524;490;469;461;464;486
496;606;673;712;726;709
478;466;473;484;498;508
525;445;400;380;381;410
520;599;645;672;681;678
479;530;571;600;613;606
512;423;378;362;366;398
534;558;568;575;578;586
494;592;658;697;712;695
504;437;408;400;407;427
545;510;486;475;476;494
519;626;691;727;736;717
507;488;491;499;509;516
549;470;423;402;401;427
546;626;672;698;705;698
506;553;591;617;630;622
539;449;404;386;389;418
553;582;594;602;605;610
508;607;673;715;729;711
515;448;420;412;421;442
551;519;499;491;492;512
517;627;695;733;746;728
489;475;482;493;508;518
518;449;410;394;399;430
495;589;646;680;695;693
433;492;540;575;597;598
436;365;335;329;344;384
465;502;523;541;554;570
523;588;636;669;683;668
648;519;451;418;409;420
741;659;598;557;531;530
718;795;829;836;816;773
670;643;628;615;602;587
655;595;553;526;512;523
590;704;770;804;810;794
512;582;639;677;698;692
522;455;429;426;444;481
519;569;602;627;647;663
464;573;652;705;735;732
465;403;385;388;410;446
493;476;467;470;485;517
461;575;649;695;718;713
448;428;434;447;468;489
490;417;379;364;371;409
481;571;625;658;673;672
444;485;521;549;566;567
479;391;347;330;337;372
494;530;547;559;565;573
454;548;611;650;666;651
469;395;363;353;361;385
504;481;464;458;459;478
474;582;649;689;701;684
459;435;434;443;455;467
498;428;387;370;371;400
490;581;635;666;677;670
450;489;524;550;565;562
481;396;353;336;341;373
495;534;554;567;573;579
451;546;610;650;666;650
465;391;359;350;360;385
493;476;463;459;462;482
459;571;641;682;697;682
444;420;420;430;444;458
483;416;379;363;367;398
474;568;624;658;670;665
435;473;506;532;548;548
467;382;340;324;329;362
477;519;542;556;563;569
432;525;589;630;646;633
449;373;340;332;342;368
482;464;452;448;451;471
452;560;628;669;683;667
432;406;405;413;427;442
462;399;364;350;354;386
440;542;603;641;655;649
404;440;476;503;522;524
442;357;315;300;307;341
459;500;523;539;546;552
421;509;569;608;625;609
444;363;327;316;324;350
480;463;448;443;444;461
451;557;624;663;675;657
445;412;405;409;420;433
498;427;384;364;362;390
496;586;639;669;674;661
473;494;518;536;546;540
523;427;375;350;347;371
547;583;597;605;603;598
518;595;647;677;684;659
547;457;413;393;393;409
584;563;544;533;527;535
558;658;719;752;757;733
552;511;499;498;503;511
592;522;479;458;453;476
580;675;728;757;761;745
550;571;594;612;621;615
589;497;447;424;422;447
600;643;664;674;675;673
554;637;694;727;739;719
571;487;449;434;439;462
596;585;576;571;572;585
556;664;734;774;787;769
545;509;503;506;518;534
585;522;484;468;469;498
568;669;727;761;770;759
534;557;583;603;617;617
569;483;437;417;419;449
577;626;652;667;672;673
534;617;674;710;723;707
554;471;433;419;426;452
580;573;564;562;564;578
539;649;718;760;774;758
528;492;486;490;502;518
564;505;470;456;459;488
548;650;710;746;757;748
513;534;559;580;596;598
549;464;417;399;401;433
552;605;633;650;657;660
509;591;649;684;700;686
527;445;407;394;402;431
555;550;544;543;547;562
519;625;695;736;752;737
517;476;465;467;478;496
559;497;460;444;445;473
540;641;701;736;744;732
508;525;548;567;580;582
544;458;411;391;393;422
551;605;634;651;657;656
506;586;642;677;691;675
526;443;405;391;398;425
553;551;546;546;549;563
515;623;692;734;749;734
513;470;459;461;473;490
553;494;459;444;446;474
531;635;697;732;742;730
502;517;538;557;571;574
539;454;408;388;390;420
546;601;631;649;655;656
500;578;633;668;682;668
517;434;396;382;391;419
544;545;542;542;545;560
509;615;684;726;741;725
504;459;446;449;460;477
539;485;452;439;440;469
523;626;688;725;735;722
496;506;525;544;558;561
534;448;401;380;382;412
537;595;627;645;652;652
493;568;621;655;670;657
516;430;390;375;383;411
543;545;543;543;545;559
502;610;680;721;736;721
502;456;442;443;453;471
541;488;455;442;443;469
523;628;690;726;736;721
494;503;521;539;553;556
530;446;400;381;383;411
529;592;627;647;655;655
484;558;613;647;663;651
513;426;385;370;378;409
542;546;544;545;547;560
497;604;674;716;730;716
496;449;434;434;444;463
534;482;451;439;441;467
514;620;682;719;729;714
480;488;507;525;540;544
511;430;387;369;373;403
510;575;613;636;646;647
469;540;592;627;644;634
496;409;368;354;362;395
520;528;529;532;535;550
482;588;656;698;714;700
489;436;418;417;426;445
535;481;448;433;434;458
518;621;681;716;724;706
497;497;510;524;535;536
543;456;406;383;382;406
545;608;641;660;665;660
504;570;617;648;659;645
528;440;397;380;385;413
552;561;563;564;565;575
514;618;686;726;740;724
515;462;444;441;449;467
552;505;475;462;462;485
528;636;700;736;746;728
500;503;518;533;547;551
540;458;413;392;393;422
541;608;646;668;676;674
490;557;609;641;656;647
502;420;382;371;379;412
503;527;538;547;555;571
440;559;637;688;711;703
420;382;375;383;402;430
469;429;408;404;415;447
531;612;663;694;704;690
639;576;549;539;535;529
753;609;516;461;432;438
766;796;797;785;759;729
694;745;772;777;762;724
660;585;541;515;504;513
615;660;680;688;687;687
531;664;754;808;830;814
504;473;474;487;509;534
525;500;491;497;514;548
486;609;689;742;769;765
452;460;485;511;541;560
484;413;378;368;384;426
479;558;606;640;660;671
433;500;553;590;615;618
463;378;340;329;343;384
483;503;513;523;531;550
441;546;618;662;681;673
444;388;368;367;379;404
483;443;418;409;414;441
463;570;636;674;687;671
442;435;446;459;474;483
484;403;359;339;341;370
485;558;600;625;634;632
442;501;546;576;591;584
473;385;341;325;332;364
493;513;521;528;530;542
452;554;623;665;680;666
459;398;375;371;380;401
495;457;432;422;425;447
468;579;645;683;695;677
444;438;449;463;477;483
481;405;364;345;347;376
478;556;602;631;642;639
438;495;541;572;588;582
465;378;337;323;331;364
482;507;518;527;532;544
437;541;611;654;672;660
444;383;361;357;367;390
475;442;421;414;418;441
442;557;626;667;681;665
418;411;422;437;454;465
456;381;340;325;330;361
450;531;579;610;624;623
408;464;509;541;559;556
440;352;311;297;306;341
456;483;496;506;512;523
416;517;586;629;647;633
424;361;337;332;342;365
460;426;405;398;401;424
437;546;611;650;663;646
423;408;414;425;438;446
469;389;345;325;325;353
470;548;593;621;629;624
439;486;524;550;563;554
483;388;340;321;322;351
515;534;539;544;542;546
482;574;634;670;679;658
501;427;393;381;383;398
545;506;477;464;459;473
528;629;689;721;726;701
521;497;494;497;503;504
576;490;438;411;405;425
580;654;694;715;717;703
551;590;621;640;646;632
587;490;439;414;411;435
604;628;636;639;635;635
563;656;717;753;761;738
575;502;468;456;459;474
608;575;552;540;538;552
576;683;749;784;792;770
559;539;540;546;557;563
597;521;477;455;455;481
587;672;721;749;758;750
546;591;628;653;667;661
577;487;442;424;428;459
593;623;637;646;649;656
552;648;711;750;763;746
564;491;460;449;456;477
593;566;546;538;538;557
563;672;738;776;787;769
540;521;523;531;545;554
575;504;463;445;447;475
564;654;707;738;748;742
527;570;607;633;649;645
556;469;425;408;414;446
572;606;622;634;637;644
523;620;686;726;742;726
536;464;433;424;433;456
566;542;524;518;521;541
541;648;714;752;766;748
525;501;501;507;521;532
564;491;448;430;431;460
549;640;693;724;734;728
506;548;585;611;626;624
545;456;410;393;398;429
564;597;614;624;628;633
522;614;675;713;727;710
536;460;426;415;422;445
570;545;528;520;521;538
541;648;714;751;763;744
521;497;496;502;514;525
555;487;447;429;430;460
539;634;690;723;734;727
499;539;576;601;617;615
534;447;403;387;393;425
547;587;606;620;625;631
510;600;662;701;716;700
527;449;414;403;411;435
554;535;520;514;516;533
517;628;697;738;751;734
504;477;476;485;497;510
541;474;435;418;420;450
531;624;679;712;724;716
497;530;562;586;600;599
529;441;396;378;383;413
542;583;603;615;620;624
504;592;653;690;705;689
519;440;405;393;401;425
555;534;519;513;514;531
521;628;696;734;746;729
507;477;474;478;490;504
544;477;437;419;421;451
532;627;683;716;725;717
494;526;557;581;595;593
523;438;395;377;382;412
531;577;601;616;622;626
487;578;640;680;696;680
502;425;391;382;391;417
524;514;504;502;507;525
483;597;669;713;730;716
472;444;442;451;466;483
519;452;414;400;403;435
507;604;661;695;706;698
470;500;530;554;569;569
509;421;375;357;361;393
518;564;588;602;607;611
483;567;625;662;676;660
505;421;383;370;377;402
542;525;511;505;506;520
511;616;682;720;731;712
505;468;459;461;471;485
544;478;438;419;419;446
532;628;685;716;724;712
497;522;549;569;581;580
539;449;401;381;382;409
552;596;618;631;634;634
507;590;648;683;696;677
520;440;403;391;397;421
556;544;533;530;532;545
525;631;698;737;750;732
518;480;471;474;484;498
553;490;453;436;437;464
527;631;692;727;737;727
472;506;538;564;580;583
480;409;374;363;372;407
455;526;567;595;610;620
383;488;564;615;643;638
417;343;316;315;334;372
548;509;486;480;483;501
670;706;728;740;735;708
765;649;581;541;517;508
826;712;627;568;528;523
781;863;893;893;863;815
674;708;729;733;722;694
623;572;544;529;523;536
577;665;718;750;762;760
501;611;694;748;778;770
495;435;420;427;454;494
500;515;529;547;570;602
451;574;659;718;753;756
440;410;413;429;458;493
477;424;397;392;409;453
461;567;634;676;697;698
431;452;479;504;526;538
466;384;341;326;334;371
475;531;561;583;592;600
429;511;568;607;625;616
449;368;332;322;332;363
475;475;474;475;481;498
437;548;620;664;681;668
437;395;386;390;404;423
478;420;388;375;378;407
461;564;626;663;674;664
431;447;470;491;505;509
466;382;337;320;322;354
474;530;561;581;588;591
436;511;565;601;615;603
462;376;335;322;329;356
487;487;484;483;485;499
444;554;625;667;683;667
441;398;387;390;402;421
477;423;392;380;383;412
453;560;625;664;675;664
423;438;460;482;498;502
459;377;332;316;320;351
461;522;556;578;587;590
417;494;550;586;603;593
438;356;319;307;316;347
460;467;468;471;476;492
421;531;603;648;665;652
411;370;361;365;380;400
440;394;367;358;365;395
410;523;593;635;650;640
383;397;422;446;465;473
425;344;301;285;292;325
434;495;529;551;562;565
392;466;519;555;572;562
422;336;295;282;291;321
452;455;453;455;459;473
422;525;592;633;647;633
428;376;358;357;366;383
469;415;382;368;367;392
457;559;618;653;661;643
441;441;455;469;480;480
490;399;347;324;321;346
510;563;590;606;607;601
489;546;588;612;620;601
534;433;380;355;353;374
578;571;559;549;541;543
552;645;703;732;736;709
558;498;472;460;459;466
602;545;506;484;476;490
587;686;743;771;772;745
562;560;570;581;586;581
607;517;466;440;434;454
615;673;704;720;721;712
568;633;679;707;717;698
594;504;459;440;443;468
615;624;624;623;623;631
582;684;749;786;798;780
581;526;505;500;506;521
613;565;535;521;520;541
585;693;757;793;801;782
556;558;572;587;601;604
593;509;464;442;445;472
591;659;696;719;727;725
545;611;660;691;707;697
571;483;440;423;431;464
592;604;607;609;613;625
551;655;723;764;779;765
549;495;475;472;481;501
583;538;510;499;500;525
561;668;732;769;779;763
536;534;546;560;574;579
571;490;444;424;425;453
567;639;679;703;713;710
518;584;634;666;681;672
543;457;417;403;411;443
567;582;588;593;597;610
528;631;700;741;758;744
528;472;451;448;458;478
561;519;494;483;485;509
538;647;712;750;761;744
517;513;524;538;552;557
558;476;429;409;411;438
557;628;668;692;700;698
514;573;619;649;664;655
546;455;411;394;400;431
564;580;586;591;593;604
525;626;694;735;750;734
526;467;444;439;448;468
561;520;493;482;484;506
540;646;710;747;757;739
514;508;518;530;543;549
549;469;425;404;406;434
547;621;664;689;699;696
500;560;607;637;653;645
530;442;400;384;392;425
555;573;580;586;589;600
514;616;683;725;739;725
516;457;433;428;436;457
547;511;487;478;479;502
518;630;697;736;748;731
497;490;500;513;528;535
540;460;416;396;397;426
536;613;658;684;694;690
491;548;594;624;640;632
519;431;390;375;382;415
529;555;567;576;581;592
480;586;658;702;721;708
489;427;405;401;413;435
531;492;468;460;463;487
503;611;677;716;728;711
480;470;478;491;505;513
520;442;397;378;380;410
516;595;641;668;679;676
480;531;573;602;617;611
515;424;378;360;366;399
540;560;568;573;576;585
502;599;663;702;715;699
511;444;415;406;412;431
547;510;486;474;474;493
521;629;694;731;740;719
503;489;494;504;515;520
544;465;420;399;399;426
541;621;666;694;702;696
503;552;593;619;632;625
537;447;401;383;388;417
559;583;593;599;601;607
516;615;679;718;732;715
522;455;428;419;426;446
556;523;502;494;493;513
517;630;698;738;750;731
486;477;486;499;514;524
508;441;404;390;396;428
478;574;633;670;687;688
406;473;528;567;592;595
405;338;312;310;330;374
433;471;495;515;532;552
519;577;623;656;670;657
686;539;460;420;405;414
821;711;630;576;538;531
832;883;894;883;846;790
785;744;713;684;654;624
757;689;638;599;572;568
666;783;847;876;873;846
546;635;703;744;764;752
530;480;468;473;494;532
512;575;619;654;681;702
447;569;659;723;763;768
449;395;384;394;425;469
478;462;455;463;485;525
450;565;640;690;719;719
432;417;424;442;466;492
466;398;361;349;360;401
459;550;605;641;658;662
422;468;509;538;558;561
455;368;327;313;322;359
473;506;524;536;544;555
432;527;593;634;652;640
443;371;342;335;344;369
480;455;437;432;434;455
454;561;628;668;680;664
434;414;416;424;438;450
472;401;361;344;347;377
464;555;608;641;652;647
427;468;505;532;548;545
462;374;331;315;320;352
473;510;529;542;548;555
430;526;591;632;648;633
438;368;339;332;341;365
468;449;435;432;436;456
436;548;618;661;675;660
423;401;402;413;428;441
465;395;356;339;343;374
452;546;602;635;647;641
413;453;491;518;535;532
445;360;318;303;311;342
459;498;519;534;541;547
417;512;576;617;634;619
427;355;324;317;327;352
457;440;427;424;428;448
426;536;606;649;664;649
413;388;388;397;413;428
443;378;341;327;331;362
424;523;583;619;633;628
382;422;461;490;509;510
412;330;290;277;286;321
429;470;493;510;519;527
396;485;547;588;605;591
422;341;305;295;303;328
468;443;425;418;418;435
446;548;610;647;657;637
444;409;401;402;411;421
495;420;374;353;349;373
498;584;633;660;664;649
475;498;522;538;546;538
525;428;374;349;344;367
549;581;595;601;596;591
522;600;653;682;687;661
553;463;417;397;395;410
596;569;547;533;525;531
576;673;732;762;765;737
571;531;517;514;517;521
610;538;492;468;461;481
594;688;742;770;772;754
560;586;612;630;639;631
603;510;459;437;435;459
617;656;674;685;684;681
576;659;714;747;757;736
593;510;468;453;457;477
622;606;592;585;584;597
585;692;758;796;807;787
572;538;531;533;544;556
608;542;503;485;486;514
589;688;747;779;788;777
551;578;607;628;642;641
587;499;454;434;437;466
596;642;666;680;685;687
550;636;696;733;746;731
560;482;446;434;442;469
589;579;570;568;571;587
557;665;733;773;787;772
551;514;505;508;520;536
588;524;486;468;471;499
571;671;730;763;773;762
533;558;585;606;620;621
568;482;437;418;421;451
576;625;651;667;673;675
533;617;675;711;725;710
549;467;429;417;425;451
574;567;559;557;561;576
535;644;714;755;771;756
524;488;480;485;498;516
559;499;464;448;453;483
546;647;706;741;752;742
515;535;559;579;594;596
555;466;419;399;401;432
560;611;636;652;658;660
513;596;653;688;702;687
532;449;411;398;405;432
558;552;546;545;547;563
518;627;699;740;755;740
506;470;463;466;479;497
542;485;452;438;441;472
521;626;689;726;738;728
485;506;533;555;572;576
513;433;391;375;379;413
512;571;604;626;635;640
461;548;609;649;667;657
481;401;367;358;369;400
512;510;507;509;516;533
478;586;656;700;717;704
477;435;424;427;440;459
522;460;424;409;412;440
510;609;668;702;712;699
481;493;514;532;545;546
527;437;387;365;365;394
540;590;615;630;634;632
497;572;624;656;667;651
522;434;392;375;379;404
549;546;541;538;539;550
510;616;685;724;738;720
504;461;448;448;459;474
541;485;452;437;438;465
522;626;689;724;734;719
492;505;526;544;559;562
529;445;399;380;382;411
537;593;624;644;650;650
497;571;624;658;671;656
521;434;393;378;383;412
544;547;544;544;546;558
497;608;679;721;737;721
481;442;433;437;450;469
505;459;434;425;430;461
461;579;652;696;715;705
406;433;466;494;519;531
418;353;323;316;331;371
471;524;558;583;597;607
567;588;610;629;634;619
712;552;461;413;393;406
799;741;687;647;612;596
765;834;864;866;840;791
723;667;633;607;584;570
696;659;629;606;590;592
608;744;825;867;871;842
527;567;609;641;664;665
527;472;451;451;469;506
504;590;647;688;716;730
442;532;603;656;691;697
459;386;359;360;387;435
483;498;508;521;541;571
442;554;630;680;709;708
439;394;384;390;410;441
472;426;401;394;404;440
450;561;629;671;687;679
428;435;453;474;492;502
469;387;342;325;330;362
471;537;573;597;607;610
429;500;552;586;601;593
457;371;330;316;325;357
487;495;497;500;504;517
452;555;622;664;680;665
457;403;385;382;391;410
493;444;413;401;403;427
468;576;640;678;688;671
442;445;461;478;492;496
477;397;353;334;337;366
479;547;585;610;618;618
438;505;555;588;604;593
461;374;334;320;329;361
484;497;501;506;510;523
447;551;621;663;680;666
451;397;379;376;387;406
486;441;413;402;404;429
460;570;636;674;686;669
434;436;452;469;484;489
473;393;349;332;334;363
470;542;582;608;618;618
425;493;543;579;594;586
451;366;326;313;322;355
470;488;495;501;508;520
425;533;606;650;669;656
428;375;359;357;370;392
465;422;398;389;393;420
437;548;617;657;670;655
413;412;427;445;461;468
452;373;329;312;316;346
451;524;565;592;603;603
416;477;523;556;572;564
454;362;317;301;308;340
483;495;498;501;503;514
451;548;613;652;665;649
465;401;375;367;373;390
512;463;432;417;413;432
499;599;658;691;696;673
492;476;479;487;494;493
548;456;401;374;368;388
557;621;654;671;671;660
525;576;613;635;642;624
564;467;416;392;390;413
597;607;606;603;597;599
566;659;719;752;759;734
575;508;478;465;465;477
611;567;536;519;513;527
586;691;753;786;790;763
561;551;558;568;576;576
600;518;472;449;446;470
596;670;712;736;743;735
556;610;653;681;694;683
585;493;448;430;434;464
602;622;629;634;636;644
555;657;724;764;779;763
558;496;471;465;474;493
592;553;530;520;521;542
564;672;739;776;787;769
542;531;538;550;563;570
584;504;457;436;437;465
583;658;701;727;735;731
541;592;635;662;675;668
570;479;434;416;421;452
584;608;618;624;627;635
539;641;708;749;764;748
544;481;456;450;458;479
576;543;520;511;512;534
551;660;727;764;776;757
532;519;525;535;548;556
567;491;447;427;428;456
556;640;687;716;726;722
517;569;612;641;656;651
547;459;415;398;405;438
562;589;602;610;614;623
519;619;687;728;745;730
528;461;434;428;437;459
565;530;507;498;500;522
535;643;710;748;759;742
513;499;504;514;527;536
553;477;432;413;414;443
546;628;677;705;715;711
506;555;596;623;637;632
537;448;403;387;392;424
553;581;594;603;607;615
503;604;671;713;729;714
505;441;416;410;419;442
537;509;491;485;488;510
507;618;686;728;741;726
492;475;480;490;505;516
532;457;415;396;398;429
527;611;660;690;701;696
489;535;574;601;615;611
524;434;389;372;377;408
545;573;586;594;598;604
507;601;665;704;718;701
520;448;416;406;413;433
553;523;502;493;494;512
526;634;700;737;748;729
512;491;491;500;510;519
553;478;433;413;413;440
544;629;679;708;717;710
503;546;584;609;623;618
536;446;402;384;388;419
550;583;599;607;612;618
503;600;666;706;721;705
510;440;412;404;412;435
545;519;501;495;498;518
520;627;694;733;745;727
507;483;483;491;503;514
543;470;427;408;409;439
524;616;670;702;712;707
472;520;561;589;605;605
485;408;372;360;369;404
469;522;551;572;584;597
408;519;597;647;673;666
486;399;364;357;368;397
633;561;515;493;485;499
685;740;766;776;765;732
702;636;597;573;556;545
728;637;571;527;500;504
684;776;820;835;822;793
591;648;689;711;715;696
570;509;482;471;477;502
544;609;649;675;689;697
480;594;677;733;762;755
478;419;402;408;432;469
500;491;488;496;513;546
464;582;659;710;736;733
450;429;433;449;472;499
490;423;386;375;384;425
479;573;630;667;683;685
442;480;515;543;562;566
474;388;346;330;338;374
483;525;547;563;571;579
440;534;598;639;657;645
453;379;348;340;350;378
485;468;456;453;457;478
453;563;633;675;690;675
443;416;414;423;437;451
483;416;378;361;363;395
473;568;624;658;668;661
440;474;506;530;545;544
478;390;345;326;331;362
490;532;554;567;572;575
448;538;601;639;653;637
467;389;354;344;351;376
494;480;467;464;466;484
460;571;640;682;696;680
448;419;416;423;437;452
489;422;383;368;370;401
477;573;629;663;674;666
436;469;501;525;541;541
472;386;342;324;330;361
484;528;552;566;573;576
439;528;591;629;645;630
451;374;341;331;340;367
472;463;455;454;459;478
432;547;619;664;681;667
419;391;390;400;416;434
455;394;360;347;353;385
438;540;602;639;653;647
403;434;468;493;510;513
441;356;314;297;304;337
455;502;527;543;551;556
416;503;563;601;617;603
441;359;322;310;318;345
473;461;450;447;448;464
445;552;619;659;672;655
445;407;398;401;412;426
493;425;384;365;364;391
490;582;637;667;673;660
470;487;510;526;535;531
519;423;370;345;342;367
539;578;596;605;603;600
506;581;633;663;670;648
535;445;400;382;380;399
576;557;540;531;524;532
552;651;711;745;750;726
549;504;489;486;490;498
594;524;480;458;452;473
584;677;731;758;762;743
555;571;592;606;614;608
594;501;451;426;423;447
602;649;672;683;684;680
559;639;694;726;736;716
578;493;453;437;441;464
605;597;587;583;583;595
566;674;743;782;794;775
554;516;507;510;520;535
587;528;493;478;480;508
567;670;732;766;778;765
532;553;578;599;614;616
569;483;437;417;421;451
579;630;658;674;681;682
533;613;670;705;720;705
552;468;430;416;423;451
579;573;567;565;568;583
541;648;718;759;772;758
531;491;480;484;495;512
567;508;474;459;463;491
548;651;712;748;759;747
520;535;558;576;592;594
557;469;422;401;405;434
564;617;646;663;669;670
521;599;653;687;701;686
541;456;416;402;407;437
567;564;559;559;560;574
532;639;707;747;762;745
526;483;471;473;483;499
564;506;473;457;460;486
546;650;712;747;757;742
517;530;551;569;584;585
553;467;420;400;402;431
553;612;644;663;669;669
507;585;641;677;691;677
524;441;403;391;399;429
549;552;550;552;556;571
516;623;693;735;750;736
510;466;454;455;467;485
546;492;460;446;449;478
526;631;695;731;743;729
497;508;528;547;562;567
537;450;404;384;386;416
544;602;632;651;657;658
506;577;628;660;674;660
532;443;400;384;389;417
556;558;555;554;555;567
514;622;690;731;746;730
513;466;451;451;461;478
553;499;465;451;452;478
532;637;700;735;745;729
500;510;529;546;560;563
544;458;411;390;392;420
552;611;642;661;668;667
510;580;631;663;676;662
537;449;406;390;395;423
564;568;565;565;566;577
521;628;698;738;752;735
518;470;454;453;463;480
544;497;469;457;460;486
509;623;692;731;745;730
464;480;505;528;547;554
476;407;373;362;371;406
453;534;583;616;634;642
398;482;546;591;617;617
480;381;336;325;337;375
624;582;554;541;535;544
675;723;749;760;752;721
713;616;557;522;502;496
737;666;610;569;540;540
676;784;838;858;844;803
584;609;634;647;651;639
570;514;487;476;480;502
543;633;689;726;744;745
485;569;636;683;712;710
496;423;394;393;414;457
510;532;545;560;577;602
465;579;657;709;736;734
463;416;404;409;430;461
494;453;430;424;435;470
466;580;649;691;710;703
439;444;464;484;504;517
474;396;354;339;346;381
472;544;586;613;626;631
429;497;549;584;603;599
460;374;333;320;330;366
489;501;505;510;515;529
449;554;624;666;683;670
453;398;379;376;387;407
491;446;418;406;409;434
469;576;642;678;690;674
445;444;458;471;486;492
484;403;358;338;339;369
482;553;594;619;628;627
440;505;553;586;600;592
471;383;340;326;333;365
495;509;514;520;523;535
454;558;627;669;684;670
453;398;378;376;386;405
483;444;420;410;413;437
456;568;636;676;689;672
432;431;445;462;478;485
472;392;349;331;335;365
470;544;587;614;625;624
426;489;538;571;587;580
447;364;324;312;321;355
465;487;497;505;513;526
421;529;601;646;665;653
423;368;349;348;361;384
455;418;397;389;394;421
429;541;610;651;665;650
408;404;417;433;450;458
449;370;327;309;312;343
447;523;567;595;607;606
409;467;512;544;560;554
443;352;310;295;301;334
468;486;493;499;503;512
435;533;599;639;654;639
449;384;356;349;356;375
497;452;422;409;408;426
485;585;645;678;685;662
477;459;460;467;475;476
524;437;385;360;355;377
533;601;639;659;661;651
504;551;587;610;617;602
545;447;396;373;371;395
573;588;589;589;585;586
544;636;696;730;737;713
561;488;455;441;441;453
600;557;527;510;504;517
574;679;740;772;776;750
554;539;543;549;557;556
594;513;466;442;439;461
589;667;711;736;742;733
548;599;639;665;677;667
581;489;443;424;428;457
597;620;629;635;636;643
553;652;718;757;771;754
558;491;464;456;464;483
593;557;534;523;525;545
563;671;737;774;785;766
541;527;532;542;555;562
577;500;456;436;438;466
570;652;700;728;738;734
527;578;618;646;661;656
555;467;423;407;413;445
569;597;610;619;623;633
525;625;693;734;750;735
534;467;439;431;441;463
569;538;516;508;510;531
539;649;716;754;766;748
520;504;509;519;532;541
559;484;440;421;422;451
550;636;685;715;725;720
509;558;597;625;640;635
544;455;410;393;399;430
556;587;601;610;615;622
512;611;678;719;734;719
520;452;424;416;425;448
559;528;508;501;503;522
530;637;704;743;755;737
515;495;496;505;517;526
557;480;435;415;416;445
545;631;681;711;720;714
500;547;585;613;627;623
535;446;402;385;391;422
552;583;597;607;612;619
506;603;669;709;724;709
512;442;413;404;413;436
542;517;500;494;497;517
512;622;690;730;744;727
499;478;479;487;501;513
543;468;425;405;407;437
539;626;676;705;714;707
506;545;579;603;616;611
544;452;405;385;388;417
559;591;606;614;616;620
520;613;676;713;726;706
534;459;425;413;420;440
564;539;521;513;513;530
534;643;709;747;758;739
518;495;494;500;513;523
553;483;441;422;423;452
544;635;689;720;729;722
508;546;581;606;620;617
540;451;406;388;393;424
553;589;607;618;624;628
507;601;666;705;721;704
512;440;409;400;409;434
530;514;503;499;504;524
482;600;675;720;737;724
446;434;442;458;477;495
464;408;379;372;382;419
447;550;615;656;677;678
474;494;521;545;564;566
638;495;416;378;370;394
742;719;691;670;647;633
729;776;798;799;780;737
722;627;568;529;506;501
701;688;668;648;629;623
596;733;813;855;859;827
532;536;554;573;590;599
540;498;480;479;493;527
506;622;698;748;775;777
455;505;554;594;627;639
482;406;374;369;390;435
491;540;570;593;613;631
447;543;611;657;683;679
464;388;358;352;369;405
495;479;469;468;476;502
463;572;642;685;703;694
453;424;421;429;445;465
495;427;388;372;375;410
482;578;635;669;680;674
446;478;509;533;549;549
481;395;350;332;337;369
492;537;560;573;580;584
447;538;600;639;655;639
461;384;350;341;350;377
488;476;466;465;469;487
454;565;636;679;694;679
445;414;411;419;433;450
483;419;382;367;370;401
471;570;628;663;675;667
439;468;497;521;536;537
478;390;345;327;331;361
491;535;559;573;579;581
449;536;596;632;647;631
463;384;349;337;346;372
490;481;472;470;473;490
455;566;636;679;693;678
445;412;409;416;428;446
481;419;383;369;372;403
462;564;625;661;673;665
424;453;483;507;525;527
455;372;330;315;320;353
457;509;539;558;567;573
409;498;562;603;621;609
425;348;315;307;318;348
456;449;442;444;449;468
424;533;603;646;664;651
421;385;378;383;397;415
464;400;363;349;351;382
450;550;609;645;654;644
423;444;470;491;505;505
467;378;331;310;312;341
479;527;552;566;571;570
443;523;579;612;625;608
472;385;344;329;334;357
509;497;486;481;480;492
489;589;652;688;698;677
501;452;435;433;437;448
553;482;436;415;409;430
548;639;690;718;720;700
527;537;552;565;571;563
575;479;424;397;390;411
589;632;653;661;659;651
555;627;676;704;710;686
581;489;443;423;422;442
612;602;589;582;577;584
574;678;743;779;787;764
567;523;510;509;515;527
604;542;505;487;485;509
589;689;747;779;787;769
556;570;591;608;620;619
589;502;455;433;434;461
588;643;673;690;695;695
539;620;677;712;726;711
556;474;436;423;431;459
583;582;578;578;581;596
542;651;721;763;779;765
533;493;483;485;498;516
571;515;481;468;471;500
552;656;718;754;767;754
519;534;556;575;591;595
557;472;426;405;409;439
564;620;651;668;674;675
526;600;654;688;701;686
547;460;419;405;410;438
573;573;569;568;569;583
534;641;709;750;764;748
527;483;470;471;482;499
565;509;476;462;463;491
546;650;712;748;758;743
513;526;546;564;579;581
547;463;418;398;402;432
549;609;641;661;669;670
505;581;635;670;685;673
531;444;403;389;396;427
557;559;556;557;560;574
518;625;694;735;749;735
511;466;452;453;463;482
550;497;466;452;453;479
531;637;700;736;746;731
502;511;530;548;562;565
542;458;411;391;393;421
544;605;638;658;666;665
503;575;627;660;674;662
527;440;398;383;391;421
549;555;555;556;559;572
504;613;684;727;742;728
500;455;441;442;453;472
536;487;458;446;449;476
514;622;687;725;738;723
484;491;510;529;546;551
522;438;393;375;379;409
528;590;624;646;655;656
489;558;607;639;655;644
518;428;384;368;375;406
546;551;549;550;551;564
509;612;680;719;733;717
512;459;440;437;445;462
555;502;469;454;453;476
535;640;701;736;744;725
507;509;524;538;551;552
544;460;414;393;393;419
544;610;646;668;675;672
498;568;618;650;665;654
525;438;397;381;389;419
548;559;561;564;567;580
509;614;683;726;740;725
509;457;439;437;447;466
550;501;471;459;460;485
523;632;697;733;744;727
486;492;509;526;542;547
512;436;396;379;384;414
494;572;618;647;660;662
426;506;567;607;630;626
428;356;328;324;342;383
450;473;486;501;514;536
476;564;625;666;686;676
620;504;448;423;419;432
748;636;560;512;484;489
757;817;838;836;809;764
712;690;676;660;641;615
694;619;567;531;509;513
622;719;771;795;795;778
530;623;691;733;752;738
526;463;442;442;460;496
530;563;587;609;627;649
477;596;679;736;768;766
468;423;415;424;449;483
492;460;444;444;460;499
462;579;653;700;723;719
436;438;457;479;503;521
475;399;358;344;353;392
475;549;593;623;638;644
434;497;546;580;599;597
462;376;335;322;332;370
487;505;512;519;524;539
450;552;621;664;681;668
453;396;374;371;381;403
490;449;424;413;416;441
462;572;639;678;690;673
437;433;446;460;476;482
477;398;354;336;338;368
476;551;595;622;632;630
437;496;542;572;588;581
468;379;336;322;328;361
494;513;519;525;528;539
453;555;622;663;679;664
456;396;373;369;377;398
486;449;426;417;419;442
455;568;637;676;689;672
433;428;439;455;470;477
470;394;352;336;339;368
465;544;591;620;632;631
423;482;528;560;578;573
449;364;324;311;319;354
472;495;506;515;521;533
429;532;602;646;663;650
433;373;351;347;358;381
462;430;409;403;407;431
431;545;615;656;671;656
411;404;415;429;446;455
450;374;333;317;321;352
444;525;573;604;617;616
405;459;504;535;553;549
437;348;306;292;300;334
458;483;494;502;507;518
423;521;588;629;645;630
436;369;342;335;343;364
478;440;415;405;406;425
460;565;627;663;673;653
450;431;433;441;452;456
504;419;369;345;342;367
511;583;624;646;650;641
484;526;560;582;589;577
531;432;380;356;354;378
564;581;582;583;578;577
539;626;683;715;720;695
561;483;444;427;425;436
601;560;530;513;505;515
579;681;740;771;773;745
565;543;541;544;548;548
607;525;477;452;445;466
601;681;726;750;752;741
564;608;644;668;677;665
598;504;457;436;436;463
612;640;650;656;656;659
569;664;729;767;778;758
578;506;476;465;471;489
605;575;554;545;545;563
571;681;748;786;797;778
547;530;535;544;557;566
583;509;467;448;451;480
575;660;712;742;752;748
536;580;619;645;660;656
569;479;433;416;420;452
579;611;626;636;641;647
535;632;698;737;753;738
546;475;444;435;443;466
578;551;532;524;526;545
544;655;724;762;775;757
529;508;511;519;532;542
566;493;451;432;434;464
552;642;695;726;736;731
513;557;595;622;637;634
547;458;413;396;402;434
562;596;612;622;627;634
521;616;680;719;734;718
531;458;427;417;424;448
559;536;519;513;515;533
523;635;705;745;759;742
505;484;486;496;510;523
545;474;433;416;418;449
538;627;680;712;723;718
504;542;576;601;616;613
536;446;400;383;388;419
549;585;602;613;618;623
507;600;664;703;717;701
520;445;412;401;409;433
551;528;512;505;506;525
518;628;696;735;748;731
503;478;477;485;498;511
543;472;430;412;414;444
535;626;680;711;721;714
503;538;572;594;608;605
534;446;401;381;385;416
544;584;604;616;620;623
500;594;658;697;712;694
513;438;405;396;404;428
545;525;510;505;507;526
510;621;690;730;744;726
491;467;467;475;489;503
529;462;423;408;410;441
521;615;671;705;715;709
489;522;554;579;593;592
522;433;387;370;374;405
537;576;595;608;612;616
496;585;646;684;699;681
508;430;396;385;392;417
537;519;506;501;504;520
503;612;681;721;735;719
490;461;458;465;478;492
527;460;421;405;407;438
515;611;668;701;713;704
479;511;543;567;582;582
515;427;381;363;368;399
525;568;590;605;609;613
478;570;632;671;686;669
492;415;382;371;381;406
520;508;498;494;498;515
482;594;666;708;724;709
470;441;439;446;461;478
511;446;409;393;397;429
502;599;656;690;701;693
467;496;526;550;564;564
507;418;372;353;356;387
524;566;588;601;605;608
482;567;626;663;676;658
497;417;380;368;375;399
531;517;505;500;502;517
508;612;678;716;728;710
504;465;455;457;467;481
544;476;435;416;415;442
530;627;683;714;722;710
496;522;548;567;579;577
536;446;398;378;379;407
548;593;615;629;632;632
509;591;648;682;696;677
527;444;405;390;397;420
553;543;533;528;529;543
515;624;693;733;747;730
508;472;465;469;480;495
545;483;445;431;432;460
517;622;684;719;731;721
469;501;533;558;574;577
489;412;374;360;368;402
470;535;573;598;611;619
407;507;578;625;650;643
454;371;338;331;347;381
589;544;516;503;501;515
678;722;748;760;753;723
734;637;581;547;526;519
774;679;607;558;525;526
720;815;858;869;849;809
621;658;687;700;698;678
590;534;506;493;494;514
555;637;689;719;735;736
488;592;671;723;754;747
488;423;403;407;432;472
503;512;521;534;555;584
458;577;658;712;743;743
448;415;414;427;453;484
488;432;403;395;408;449
468;574;639;680;699;697
435;456;483;506;527;538
477;392;348;331;338;373
484;540;569;589;598;603
440;521;578;615;632;621
462;380;342;330;338;369
490;489;485;485;489;506
451;562;633;676;693;677
447;407;397;401;414;433
487;431;398;385;388;417
464;571;634;672;684;672
435;452;476;497;513;517
474;389;344;326;330;361
483;539;569;589;596;599
437;515;572;607;622;609
457;374;336;324;331;361
480;482;481;483;487;502
441;550;622;667;683;669
437;394;385;387;400;420
477;422;390;378;382;411
462;566;628;665;677;664
431;444;465;485;500;504
466;382;337;319;323;353
467;528;561;582;591;592
421;499;555;591;608;596
442;359;322;310;319;350
463;469;471;474;480;495
417;530;604;650;668;656
410;369;360;366;380;402
446;397;369;360;366;397
425;534;601;641;656;644
395;408;431;452;470;477
435;352;309;292;298;330
443;504;539;561;571;573
407;478;531;565;581;568
437;348;307;292;300;330
462;467;466;466;469;482
428;534;602;644;658;643
435;383;367;366;375;392
481;425;391;377;376;401
468;569;629;663;671;653
451;451;464;478;489;489
507;413;359;335;332;356
522;576;602;618;619;612
493;553;596;622;629;611
530;433;383;361;359;383
564;562;555;550;543;548
535;632;693;727;734;710
544;484;460;451;453;463
587;530;493;473;467;484
571;672;730;760;762;738
548;547;558;568;576;572
590;501;450;426;422;443
594;655;688;705;708;700
552;617;663;692;702;686
577;487;443;424;428;454
602;609;609;609;609;617
562;666;733;772;784;767
563;508;488;484;491;508
597;549;518;505;503;527
569;678;742;778;786;768
538;541;557;573;586;589
580;495;449;429;430;458
582;647;685;707;716;713
539;602;650;680;696;685
566;475;431;414;421;452
585;597;599;601;604;616
540;646;715;756;771;757
539;485;466;463;473;492
575;530;501;489;492;516
550;658;723;760;771;754
528;525;537;552;566;571
569;485;437;416;417;445
570;638;676;699;706;704
524;588;635;665;679;669
550;462;420;403;410;441
571;587;592;595;598;609
532;636;706;745;761;746
537;479;457;452;461;481
573;529;501;489;490;513
548;656;721;757;767;749
522;519;531;545;558;562
559;479;433;413;414;443
555;628;671;697;705;703
512;574;621;653;668;660
541;452;409;394;401;433
561;578;584;589;593;605
522;624;692;734;750;735
528;467;443;438;447;468
560;519;493;482;483;507
531;640;707;745;756;737
505;500;512;526;540;546
546;465;420;400;403;431
544;618;661;686;696;694
503;560;606;635;650;643
534;443;400;383;389;421
557;575;581;586;589;599
515;616;683;725;739;724
516;457;433;427;436;456
551;512;488;477;479;501
522;632;700;738;749;731
498;492;501;515;529;536
537;459;415;396;398;427
531;610;656;683;694;691
490;547;592;622;639;632
520;431;389;373;380;414
542;563;573;579;583;594
500;602;669;710;726;712
508;445;419;413;422;443
543;506;482;473;473;495
515;624;690;729;740;721
495;484;492;503;515;523
534;455;410;391;392;420
530;609;656;683;693;688
492;543;586;614;629;622
522;432;387;371;377;409
545;567;576;582;586;594
502;601;668;709;723;708
507;442;415;408;416;438
537;504;482;473;475;495
509;619;686;725;738;719
488;475;482;493;507;515
529;452;409;389;391;419
520;604;652;681;692;688
480;532;574;603;619;614
507;420;378;363;369;402
519;549;564;574;580;590
474;577;646;689;707;693
484;419;392;387;397;421
523;491;469;462;464;486
497;605;671;711;722;705
480;464;468;479;491;500
523;445;401;381;382;411
521;602;650;678;688;682
483;529;567;594;608;602
519;427;381;362;366;397
542;567;578;585;587;592
499;595;660;698;712;694
514;441;409;400;406;425
553;519;496;486;485;502
526;632;697;733;742;722
507;488;490;497;507;515
547;471;426;405;404;432
541;625;675;704;712;705
502;546;584;609;623;618
535;445;399;381;385;416
547;580;595;604;607;613
500;600;667;708;722;706
500;435;408;401;410;433
523;502;488;484;489;510
481;598;672;716;733;718
439;432;445;461;481;497
452;396;367;359;370;408
429;532;599;640;662;666
444;477;513;543;563;567
603;464;390;357;353;381
716;688;659;639;618;609
717;763;784;788;769;728
719;620;559;520;496;491
705;681;653;628;606;601
610;740;816;852;852;817
541;546;565;581;596;600
551;502;480;475;486;517
521;630;703;749;772;773
465;520;573;613;643;652
484;409;378;374;394;439
494;538;566;588;607;626
445;546;618;666;694;690
457;387;360;357;375;410
490;469;457;456;465;493
462;572;642;685;703;693
447;424;425;434;452;470
490;419;379;362;366;400
485;576;630;663;674;669
449;486;521;546;561;560
484;396;351;334;338;371
500;537;556;569;573;578
456;550;613;653;668;652
467;393;361;351;360;385
497;478;465;461;463;483
465;576;646;688;702;685
454;428;427;434;449;463
495;425;385;368;370;401
483;578;634;667;678;671
444;480;514;540;555;554
477;390;347;330;335;367
490;531;552;566;572;578
446;539;602;642;657;642
462;385;352;342;351;377
492;475;463;458;461;480
455;567;636;678;693;676
441;414;413;421;435;451
481;414;376;360;364;395
468;565;623;658;669;661
434;467;500;525;541;540
468;382;338;321;326;358
475;521;544;560;566;571
425;520;584;625;641;627
432;360;330;323;334;362
457;448;441;441;448;468
422;536;609;653;671;658
414;385;384;393;410;428
455;390;353;338;343;376
446;544;602;636;649;641
416;445;475;498;514;514
459;369;323;304;307;338
480;519;539;553;556;558
442;526;583;619;631;613
465;380;341;327;333;356
504;486;471;464;463;477
480;583;647;684;694;673
484;442;430;430;438;449
536;461;415;392;388;413
538;625;675;701;704;687
512;529;550;565;571;564
560;463;408;382;376;399
581;618;634;641;637;631
549;625;675;705;710;684
572;483;438;418;417;434
604;588;572;562;557;564
565;672;738;774;782;758
558;520;510;510;517;527
602;534;493;474;471;496
591;687;743;773;778;763
556;576;600;618;629;625
589;501;453;432;431;458
594;643;668;683;686;685
549;633;691;726;739;722
568;485;446;432;438;464
599;589;579;576;577;591
562;669;736;776;790;773
549;511;503;505;518;533
584;522;486;470;472;501
568;669;729;763;773;762
532;553;578;599;614;615
569;481;434;414;417;448
574;626;652;668;674;676
529;611;668;704;718;705
548;464;425;412;420;447
576;570;562;561;562;577
538;646;716;756;771;755
530;490;481;483;495;512
573;511;474;458;459;488
556;658;718;752;762;749
521;539;563;583;596;598
555;469;423;404;406;436
560;614;643;661;667;668
517;598;654;690;704;689
541;455;416;402;408;435
567;564;558;557;559;573
528;637;706;748;762;746
521;480;470;472;484;500
561;502;467;453;455;482
542;645;707;742;753;741
510;525;547;567;582;584
549;462;415;395;397;428
557;611;639;657;663;664
512;589;643;678;692;677
532;446;406;392;399;427
559;558;553;552;556;569
519;627;698;739;754;738
520;474;462;462;473;490
561;502;466;450;452;479
541;644;706;741;751;736
508;521;541;560;574;576
544;459;412;392;394;423
547;606;638;657;664;663
502;580;634;669;684;670
523;438;399;385;393;422
546;550;549;550;554;568
508;616;688;729;746;731
499;457;445;447;460;479
538;484;452;440;445;472
519;625;689;726;738;724
493;502;521;540;555;560
535;448;400;380;382;411
541;599;630;650;656;656
499;572;624;656;670;656
523;435;392;377;384;413
547;551;549;549;552;564
507;614;684;725;740;724
506;457;443;442;452;471
548;493;460;446;446;472
527;632;695;731;740;724
497;505;522;539;553;556
533;449;403;383;384;414
533;596;631;653;660;660
490;562;615;648;663;652
517;428;387;372;379;410
540;547;548;549;552;565
500;608;679;720;735;720
501;451;435;434;444;463
538;487;457;444;446;472
513;622;687;725;735;719
482;489;507;526;541;545
522;439;394;375;378;407
527;591;627;649;658;658
484;553;605;637;653;642
509;422;380;364;373;404
531;541;544;545;549;562
496;601;671;712;727;712
497;444;426;424;434;453
530;482;453;440;441;467
506;615;680;717;728;712
485;486;500;517;531;535
530;444;395;374;375;403
536;599;634;655;662;659
498;561;608;637;650;638
529;436;391;373;378;408
554;563;564;563;563;573
513;617;684;724;737;720
511;457;438;433;442;459
549;501;472;458;459;482
525;633;698;734;743;725
501;501;514;529;542;545
544;460;412;391;392;420
544;612;650;673;681;678
504;567;615;645;659;649
532;442;399;382;388;418
547;563;569;572;575;586
491;602;676;720;737;723
473;428;416;417;431;454
481;452;438;435;444;473
427;556;636;686;708;700
388;402;430;458;484;500
481;390;344;329;337;373
618;635;645;652;651;646
695;685;682;677;665;638
765;619;528;473;444;449
771;761;735;707;675;656
683;787;844;866;853;811
614;580;566;559;555;556
590;580;574;572;575;592
530;667;756;809;830;815
482;500;531;563;592;607
505;441;413;409;429;470
492;578;634;674;701;714
447;515;571;613;643;649
474;390;354;347;366;411
491;514;528;539;552;574
445;553;626;674;697;692
448;393;374;373;388;417
478;443;422;417;423;454
452;566;635;677;692;681
431;426;438;455;472;484
474;395;352;334;338;370
474;551;595;622;634;634
439;495;540;570;585;580
465;377;335;319;326;360
488;509;518;525;529;539
446;548;617;659;675;661
457;393;369;364;372;393
495;455;430;420;422;444
467;577;643;682;692;674
445;435;444;457;470;477
485;406;362;343;345;373
476;557;604;632;643;640
431;489;534;566;582;576
458;372;332;317;326;359
476;502;514;523;530;541
435;538;608;650;668;655
445;381;357;352;362;384
481;446;424;416;418;440
453;564;632;671;684;666
429;420;429;442;457;465
464;390;349;332;335;365
456;541;591;622;634;632
419;472;517;548;566;561
443;358;318;303;312;347
457;487;502;514;520;531
413;516;587;632;650;638
418;356;332;330;341;366
451;421;403;398;402;426
420;534;604;646;660;645
400;389;397;411;427;438
445;369;326;310;314;346
447;527;575;605;617;614
415;461;500;527;542;537
456;362;316;297;301;332
480;504;513;519;522;528
448;541;603;640;653;634
473;397;362;349;353;371
521;480;452;438;434;448
507;606;665;697;701;677
503;475;470;473;478;479
557;470;417;389;383;403
562;637;677;698;700;684
534;571;602;620;625;610
577;478;424;399;395;417
601;623;629;631;625;622
567;656;715;747;753;728
578;502;466;450;451;465
614;581;556;543;537;549
584;691;754;789;795;770
567;545;543;549;557;561
607;530;485;463;460;485
599;684;733;761;767;758
563;603;639;663;674;667
594;502;455;434;437;466
607;638;652;660;663;667
562;657;721;759;773;755
567;496;464;454;462;484
601;574;555;547;547;565
567;678;745;783;795;776
547;526;526;535;548;559
581;509;468;450;452;482
567;658;712;743;755;750
525;569;606;632;649;646
555;467;424;407;414;447
565;602;621;633;639;648
521;617;684;724;740;726
536;462;430;420;429;454
574;548;529;523;524;543
541;651;718;757;769;751
524;500;499;507;519;532
562;491;450;431;433;463
552;643;698;729;739;732
511;551;587;612;626;624
545;457;412;394;399;431
562;598;617;627;632;638
522;613;676;715;729;712
532;457;423;413;420;445
559;539;523;518;520;538
522;633;703;744;758;742
511;485;483;491;504;518
552;480;439;421;423;453
541;633;688;719;729;721
500;537;571;596;610;608
534;445;400;383;388;419
547;586;606;619;624;628
506;597;659;697;712;696
520;442;408;397;404;430
551;531;516;511;513;530
519;628;696;736;749;731
508;479;475;481;494;507
548;479;438;420;421;450
539;633;688;720;729;720
502;535;568;590;603;601
538;449;403;384;387;417
543;587;609;623;628;631
496;589;653;692;707;690
510;434;401;391;399;426
544;528;515;511;514;532
511;621;690;731;745;729
495;466;463;470;483;498
534;468;429;414;417;447
521;617;675;710;721;712
486;516;547;571;586;586
524;435;388;370;375;404
537;579;600;614;619;622
492;580;640;678;692;675
511;430;393;381;389;415
543;528;514;509;511;527
506;615;684;724;737;720
495;463;457;462;475;489
535;469;431;413;415;445
525;622;679;711;722;711
491;517;546;567;581;580
526;438;392;373;376;405
534;581;605;620;625;627
487;575;637;675;689;673
502;423;388;378;386;412
530;520;512;510;513;530
492;603;674;717;733;717
480;448;443;449;463;481
519;457;421;406;409;440
503;604;665;701;712;703
466;493;523;546;562;564
499;414;370;354;359;391
510;560;587;604;611;615
475;557;615;651;666;652
494;411;373;360;368;395
523;513;503;501;503;519
487;596;664;705;720;705
487;448;438;440;452;467
532;465;427;409;410;437
518;616;674;706;715;702
490;509;532;550;562;561
531;441;391;369;370;397
542;590;614;627;630;630
498;579;636;669;681;664
518;433;394;380;385;410
547;540;531;529;529;542
514;622;691;730;742;724
510;470;459;461;471;486
553;490;453;435;436;461
539;638;698;730;739;725
504;522;546;565;578;577
536;450;405;385;387;416
535;592;622;640;646;647
482;568;628;667;683;669
491;415;381;372;382;412
497;504;507;513;521;540
434;559;640;691;714;706
397;375;381;397;421;448
453;399;373;368;381;419
541;610;654;682;692;681
643;593;572;564;560;552
753;603;508;451;421;428
768;785;775;757;728;700
693;761;794;804;787;744
650;580;540;516;504;511
612;639;651;655;652;655
531;668;759;813;835;817
496;478;488;506;531;555
515;478;464;466;485;525
485;603;681;732;760;760
448;472;505;536;566;584
485;406;368;357;372;416
488;550;587;612;629;642
439;521;582;621;643;639
459;379;343;334;347;384
482;488;489;494;501;522
443;554;627;673;692;683
439;397;388;392;407;429
480;427;396;385;390;421
463;569;632;669;683;671
436;448;469;488;504;509
476;390;345;325;329;359
483;541;574;594;601;602
445;517;570;603;617;605
467;381;340;326;332;362
487;492;492;494;497;511
449;557;627;671;686;672
445;400;387;389;401;419
484;432;402;389;392;420
464;570;635;671;683;669
435;444;464;483;498;503
475;391;345;326;329;359
479;541;575;596;604;605
436;509;562;596;611;600
465;378;337;323;330;360
489;496;496;498;501;513
446;555;626;669;685;670
440;395;382;383;395;415
476;428;401;389;393;420
447;559;626;667;679;665
412;424;447;469;486;493
447;368;328;313;318;350
447;515;555;581;593;596
403;477;531;568;587;579
426;343;305;294;305;339
450;461;464;470;476;492
413;520;591;635;654;641
418;367;351;351;363;384
458;409;379;368;371;398
440;545;609;646;657;642
418;419;434;451;465;469
462;376;329;308;309;338
468;532;567;588;594;592
436;499;545;576;587;576
476;382;335;316;320;348
513;515;511;509;507;515
485;581;643;679;688;668
498;437;412;402;405;418
548;492;456;437;431;448
541;638;694;723;725;700
530;520;525;532;537;532
580;487;433;405;396;415
590;650;679;695;693;681
555;612;652;676;682;662
585;491;443;419;418;441
611;618;616;615;611;614
574;673;737;773;782;760
575;516;493;485;489;502
610;563;533;519;515;534
588;692;755;788;795;773
566;560;569;580;591;592
605;520;471;449;447;472
600;670;708;729;735;730
557;618;664;692;706;694
581;493;449;431;438;468
603;617;621;624;626;636
559;663;731;770;786;770
559;501;481;476;485;504
589;548;522;511;513;536
561;670;737;775;785;768
534;532;544;558;572;579
575;494;449;429;431;460
578;649;689;713;721;719
534;594;638;669;682;674
560;472;428;413;418;450
581;599;605;610;612;623
540;642;711;752;766;751
545;484;462;456;465;484
579;538;513;501;502;524
555;663;728;764;775;756
530;524;534;546;559;565
562;485;441;422;423;452
554;632;677;705;715;713
512;570;617;648;664;658
543;454;411;396;403;436
566;584;592;598;602;613
527;626;693;733;749;735
533;470;444;437;446;467
566;527;504;492;492;514
538;647;712;750;760;742
517;508;516;528;541;547
558;478;432;413;413;441
554;631;675;701;709;706
515;568;611;639;654;647
544;454;410;393;399;430
560;583;592;599;603;612
514;617;686;727;743;728
517;456;432;427;437;458
549;516;495;486;489;511
522;633;700;738;751;735
500;490;499;511;525;533
539;463;419;400;403;433
534;615;662;690;701;698
497;549;591;620;635;629
527;439;395;379;385;417
545;570;581;589;593;602
506;605;671;712;728;713
511;446;419;411;420;442
547;513;490;480;482;504
519;627;693;731;743;725
499;485;491;501;514;522
539;462;417;398;399;428
531;613;661;690;699;696
490;541;582;610;624;619
521;433;389;373;379;411
535;563;576;585;591;599
492;592;659;700;717;702
500;434;407;399;409;431
535;504;484;475;478;499
509;618;685;723;734;717
494;478;481;490;502;511
532;457;413;395;394;423
522;608;658;688;697;693
480;529;570;598;613;609
510;424;381;365;371;404
522;554;570;581;587;595
472;574;644;686;704;689
479;414;388;383;393;417
519;490;472;465;470;491
493;601;668;708;721;705
478;459;461;471;484;496
514;440;398;379;381;410
510;595;645;675;685;680
476;518;555;581;595;590
520;426;378;359;363;393
541;567;578;585;587;592
502;594;656;693;705;686
513;439;407;395;400;420
546;517;498;489;488;504
518;625;690;729;738;718
505;482;481;489;499;508
542;468;424;405;405;433
529;619;671;702;711;703
491;534;571;596;611;606
526;438;393;376;380;410
541;575;591;601;607;611
495;592;657;696;711;694
505;434;403;394;402;425
532;511;496;491;494;513
492;606;677;719;733;718
465;449;455;467;483;497
481;421;389;378;385;419
436;546;613;657;676;677
386;441;490;528;554;561
487;385;336;320;330;367
628;611;597;591;584;585
681;712;729;735;724;690
723;602;528;483;459;457
734;694;652;619;590;581
656;769;830;855;845;803
582;578;586;593;596;593
571;528;505;497;501;526
531;648;721;768;788;783
476;531;581;621;650;656
495;422;392;388;407;450
499;548;580;604;623;641
453;552;623;671;699;696
465;394;368;364;382;417
494;479;469;470;480;508
461;573;644;689;708;700
450;424;424;435;452;472
488;422;383;369;374;408
476;573;629;664;677;672
442;477;510;536;552;553
480;393;349;332;337;369
493;534;556;569;575;580
449;541;604;642;658;643
463;387;355;345;354;380
496;480;467;464;467;485
463;572;640;682;696;680
450;421;419;427;440;455
489;422;384;369;371;402
474;571;629;663;674;667
444;474;505;529;544;543
487;397;351;332;336;366
497;539;561;574;579;581
455;543;603;640;655;638
468;390;355;344;353;377
497;484;473;470;472;489
465;573;642;683;697;681
453;422;418;425;438;453
489;425;390;374;377;406
471;571;631;666;679;671
432;464;497;521;538;539
467;383;340;325;330;362
475;523;549;567;574;579
428;519;582;622;639;625
444;367;334;325;335;364
469;461;454;455;460;479
429;542;614;659;677;663
412;384;383;393;409;428
450;390;357;345;351;385
433;536;598;636;650;644
402;429;459;484;503;506
441;354;311;294;300;332
460;504;528;544;551;554
424;505;562;599;613;597
449;364;325;312;318;343
484;471;459;455;455;470
460;562;627;665;677;658
464;421;408;408;416;429
520;447;403;382;378;402
520;610;661;688;691;673
502;513;530;543;549;542
552;454;399;371;365;386
571;611;629;636;632;624
536;610;661;689;693;669
566;474;429;409;407;424
601;587;572;563;557;562
573;673;736;769;775;751
569;525;510;507;511;520
609;543;503;482;478;499
593;691;748;778;783;764
563;579;600;616;626;621
598;510;461;438;438;462
605;655;680;694;697;695
562;641;696;729;740;723
579;494;454;439;444;470
604;599;592;590;590;603
563;671;739;781;794;776
550;511;501;505;517;533
584;526;492;480;482;510
565;668;730;766;777;766
531;548;572;592;609;611
565;480;434;415;419;450
569;624;654;671;679;681
527;605;661;695;711;697
550;465;425;410;417;446
576;573;568;567;569;584
537;645;714;755;770;754
531;490;479;480;491;508
567;511;478;463;465;493
545;650;714;749;760;747
515;529;552;572;587;589
553;467;422;402;405;435
557;613;644;663;670;671
514;590;645;679;694;681
534;449;410;397;403;432
557;559;557;558;560;574
521;628;698;740;755;739
517;473;460;461;473;491
556;499;466;452;454;481
535;639;701;737;748;734
504;516;535;554;569;572
546;460;413;392;395;423
555;611;641;659;665;665
515;587;638;670;682;669
538;451;409;393;398;426
563;565;561;561;562;574
522;629;698;739;752;737
515;470;457;457;468;485
548;497;466;453;455;482
527;633;697;735;746;732
497;507;528;547;562;566
537;453;408;388;391;420
546;605;637;657;664;664
506;576;628;659;673;662
528;441;400;385;391;420
546;554;554;556;558;571
504;612;683;726;741;726
508;459;444;444;454;473
547;495;464;449;452;478
525;631;695;731;742;725
498;504;523;539;553;556
535;452;406;386;388;417
533;597;632;654;663;662
489;560;612;646;662;650
514;427;386;373;380;412
540;547;547;550;553;567
503;608;676;717;733;718
507;454;436;434;443;463
542;492;461;447;449;473
516;624;689;725;735;720
489;493;510;527;541;545
522;441;397;378;381;410
517;585;624;648;657;657
468;540;593;629;646;638
492;408;369;357;366;399
520;531;534;539;544;558
481;587;657;699;717;703
484;432;414;413;424;444
518;472;444;433;436;462
502;608;672;709;720;704
485;483;496;510;524;528
533;445;397;374;374;401
539;602;636;656;661;658
500;563;608;637;648;635
524;435;391;374;378;407
547;559;561;563;564;573
509;612;679;720;733;716
519;460;438;433;441;458
554;506;476;463;463;485
528;635;699;735;744;725
500;500;513;527;540;544
543;460;414;393;394;421
543;612;650;672;681;679
503;565;612;642;655;645
529;440;396;380;387;417
539;557;564;570;573;585
484;594;667;712;731;717
467;421;409;410;425;448
476;449;433;431;440;470
429;554;634;683;704;695
408;414;436;460;484;499
520;419;365;344;348;381
662;672;675;676;669;659
723;714;708;700;684;653
778;640;551;497;465;467
773;771;750;725;695;674
676;787;848;874;864;823
605;575;566;562;562;565
587;578;575;576;582;600
531;666;755;809;832;819
484;500;531;563;593;609
510;445;417;413;432;475
500;585;639;679;705;717
452;519;573;614;644;651
474;393;357;350;369;414
492;517;529;542;556;578
451;557;628;674;698;693
455;398;377;376;391;419
487;451;429;422;428;458
459;571;640;680;695;683
438;432;444;459;476;486
476;399;356;340;343;376
473;552;597;626;637;638
433;491;537;568;585;580
464;376;335;321;328;362
487;508;518;525;530;541
445;547;615;657;674;660
451;390;366;362;371;393
488;452;429;420;423;445
461;571;638;677;690;672
443;433;442;455;468;476
483;406;362;343;345;374
477;557;603;632;642;639
435;491;535;566;581;575
466;378;335;321;329;361
483;508;520;528;533;543
443;544;611;653;670;656
449;386;361;356;366;387
477;445;425;418;422;444
444;557;626;668;682;666
420;412;422;436;453;463
456;383;343;327;332;363
448;532;582;615;627;627
402;458;504;536;555;553
428;344;305;293;303;339
445;475;490;502;509;522
407;508;577;620;640;627
416;352;327;322;333;357
450;419;400;394;397;420
419;531;600;641;655;639
403;390;397;410;424;435
450;373;331;313;315;345
454;533;579;609;618;614
420;466;504;531;545;538
455;364;319;301;305;335
475;502;513;521;524;530
443;537;600;639;653;633
467;392;359;348;352;371
517;477;449;436;434;449
505;603;661;693;698;674
507;477;470;471;475;476
563;475;421;392;384;404
573;644;682;702;700;685
546;579;607;624;628;611
586;487;432;407;401;421
611;632;638;638;632;628
574;663;720;752;757;731
589;512;475;459;458;471
621;588;564;551;545;556
586;694;758;792;799;774
565;545;546;552;561;566
602;528;485;465;463;489
594;681;731;760;768;759
553;596;633;658;671;665
588;497;452;433;437;467
600;632;648;658;661;666
552;648;713;752;767;750
560;489;459;449;457;480
591;565;548;542;544;562
558;668;737;774;787;770
540;519;520;528;541;553
577;506;465;447;448;479
571;659;711;741;751;745
535;573;608;632;646;643
568;478;431;413;417;448
578;613;630;641;644;650
535;628;692;730;745;728
544;471;439;429;437;460
573;551;535;528;530;549
537;648;717;757;770;754
521;498;498;506;520;533
560;490;449;431;433;464
552;642;696;727;737;730
513;551;585;610;624;622
547;460;414;397;401;432
561;599;617;628;633;638
516;609;673;711;726;710
526;453;420;411;419;443
560;539;524;518;520;539
526;636;705;744;758;741
512;486;484;491;504;517
552;483;442;424;427;456
540;633;688;721;731;723
504;539;572;596;611;608
536;448;403;386;391;421
548;588;609;622;627;632
505;595;657;696;712;696
518;441;407;396;405;430
547;529;516;511;513;531
517;625;694;733;747;730
509;478;473;479;492;505
546;477;436;418;420;450
530;626;682;714;724;716
492;525;558;581;595;594
527;439;395;376;381;412
541;583;603;617;622;625
499;587;648;685;700;684
513;435;401;388;397;422
540;526;514;510;512;529
503;614;685;725;740;723
493;463;460;467;480;495
533;467;428;413;415;446
521;617;674;708;718;710
490;519;547;570;584;583
528;439;392;373;377;406
533;579;602;615;621;623
484;575;637;675;690;674
498;422;388;377;387;413
528;516;506;504;508;525
494;604;674;716;731;716
480;448;444;451;465;483
518;454;418;403;407;438
507;605;662;697;708;701
481;504;531;553;567;568
524;432;383;363;365;395
542;583;603;615;617;618
503;584;640;673;684;666
523;439;399;384;389;412
555;540;528;522;521;534
524;629;695;733;744;725
513;477;468;470;480;494
553;488;449;432;432;459
534;634;693;726;735;722
500;525;552;573;586;585
538;451;404;385;388;417
545;594;620;635;640;641
499;584;644;680;694;678
521;438;401;389;396;422
551;541;533;530;532;547
513;622;691;732;746;730
498;464;458;462;475;491
529;472;438;425;429;459
490;601;668;707;722;714
429;467;505;533;555;562
433;367;337;330;344;383
455;512;548;574;590;601
520;567;607;635;648;636
648;508;432;396;385;403
735;676;627;593;568;562
713;787;821;831;813;772
675;626;599;580;566;558
658;611;576;552;538;548
581;710;784;823;830;808
509;554;598;630;651;652
524;459;431;427;441;477
516;585;629;661;681;693
467;558;626;673;702;699
484;408;378;375;394;433
505;509;510;517;529;555
462;576;652;700;724;719
457;420;414;422;440;467
493;439;408;398;406;441
474;580;644;683;698;691
445;463;488;509;528;535
485;400;356;338;343;376
491;547;578;598;606;609
446;525;582;618;634;622
466;384;347;334;343;374
493;493;490;491;495;512
460;567;636;679;695;681
456;413;402;405;416;435
496;440;406;392;394;423
475;580;642;679;690;676
442;457;480;501;516;519
481;397;352;334;337;367
491;547;579;598;606;606
453;526;579;613;628;615
477;390;349;334;341;370
500;502;499;498;501;515
458;567;638;680;695;680
457;413;401;403;414;432
494;441;410;398;400;428
474;580;643;681;692;679
442;455;477;496;512;516
479;397;353;334;338;368
480;542;577;599;607;609
436;512;567;603;619;609
457;374;336;324;332;364
475;483;485;491;495;511
431;543;616;662;679;668
425;383;373;377;391;413
459;412;385;376;381;411
441;547;613;653;667;656
415;424;444;464;482;488
455;371;327;309;313;344
459;521;556;577;587;588
421;491;542;576;592;581
453;364;322;307;314;344
486;488;485;486;487;499
454;557;622;661;675;657
459;405;387;384;391;407
506;450;416;400;399;421
498;596;654;687;693;672
485;481;491;502;510;509
534;443;389;364;359;381
545;602;631;646;647;638
513;574;617;644;651;633
551;455;406;384;384;407
585;585;578;574;569;574
557;654;715;749;756;732
564;505;480;471;473;483
603;549;513;495;489;506
583;685;745;776;779;755
553;554;566;578;587;585
589;505;458;435;434;456
588;654;690;711;716;711
550;613;660;690;702;689
574;484;440;424;429;457
596;605;606;608;609;620
555;659;726;766;780;765
554;500;480;476;484;502
587;540;511;499;500;523
559;667;732;769;779;761
529;531;545;560;576;580
564;483;439;419;422;451
561;631;671;695;705;704
520;584;632;664;680;672
547;458;415;400;408;440
569;583;586;590;593;605
528;632;701;743;758;744
532;476;455;452;460;480
566;523;495;483;484;508
540;649;713;751;762;744
517;515;527;542;555;561
554;474;428;408;409;438
547;620;662;687;697;695
505;568;616;648;664;656
532;445;403;389;396;428
554;570;576;581;585;597
514;617;686;727;744;729
520;461;439;434;444;464
559;515;487;476;476;498
536;642;705;741;752;733
513;507;517;529;542;546
552;471;425;402;403;430
548;622;664;688;696;693
505;566;611;641;656;646
536;447;403;387;393;425
555;573;579;585;588;598
514;616;685;726;741;725
520;460;436;431;439;458
557;515;489;478;479;502
530;638;704;740;751;733
503;498;509;522;535;541
539;461;418;399;400;429
538;614;658;685;695;692
499;556;600;630;645;638
529;440;397;381;387;419
548;569;577;583;586;596
505;608;676;718;732;718
505;446;423;419;428;448
536;501;478;471;474;496
508;619;686;726;739;723
488;480;490;502;517;525
528;449;405;386;389;418
522;600;646;674;685;683
483;536;580;610;626;620
515;425;382;366;372;405
534;557;566;573;576;586
497;596;662;702;717;702
510;443;416;407;415;435
548;509;484;472;473;493
523;629;693;729;738;719
503;490;495;504;515;521
544;465;420;397;398;424
540;619;664;690;698;692
500;552;593;620;633;625
532;443;398;381;386;416
550;576;587;593;596;603
509;608;675;716;730;714
517;451;424;416;424;443
552;519;497;487;488;508
526;634;700;738;749;730
508;493;498;507;520;527
543;467;424;405;407;434
527;614;664;695;706;701
472;529;575;607;625;621
482;405;370;359;371;407
473;517;541;559;571;587
407;524;603;656;682;676
434;370;349;349;367;397
571;507;467;451;450;472
676;719;742;752;745;714
729;650;605;576;557;542
772;659;579;525;491;490
730;806;836;841;820;787
627;689;730;747;744;718
591;532;505;493;495;517
561;622;659;683;695;702
493;614;702;760;789;781
484;434;423;432;457;491
503;490;487;494;514;548
466;586;667;718;745;744
445;433;446;465;492;517
482;413;378;367;380;422
473;564;620;656;675;681
433;481;523;555;576;581
467;381;340;326;336;375
486;519;536;548;556;568
447;543;609;650;668;655
458;387;358;350;359;385
488;464;448;442;445;467
459;569;637;678;692;676
446;425;427;436;450;462
486;413;372;354;356;386
477;566;619;651;662;657
438;481;518;545;560;558
467;381;338;323;329;362
478;515;534;548;553;561
437;533;599;640;657;642
453;380;349;340;349;374
486;462;447;441;444;463
451;562;631;672;686;669
436;414;416;425;440;453
477;406;367;351;353;384
468;560;614;646;658;652
431;471;507;533;548;546
465;379;335;318;324;355
477;516;535;548;554;560
426;524;591;632;649;633
