ecg
-13.13496604867628
-16.064698252841993
-16.45532921339742
-14.892805371175708
-10.79118028534371
-6.982528419928283
-6.005951018539712
-7.666132600900283
-10.302891584649425
-8.545052262149996
1.8066681925688564
26.61173418783856
64.69825284199283
96.43701838712138
91.1635004196231
34.81498435950255
-44.77607385366598
-99.26909285114824
-106.39810788128482
-80.61646448462653
-51.02616922255284
-34.61966887922484
-30.322728313115128
-31.592278934920273
-31.396963454642556
-28.564888990615703
-24.267948424505988
-18.701457236591136
-13.13496604867628
-7.959105821316854
-4.345769436179141
-1.513694972152285
2.490272373540856
7.275501640344854
12.353704127565424
15.185778591592278
14.306858930342566
11.963073167009995
9.42397192339971
8.05676356145571
6.884870679789426
6.494239719233997
8.838025482566568
12.74433508812085
17.334248874647134
20.55695429922942
21.92416266117342
21.63118944075685
19.18974593728542
16.55298695353628
14.599832150759136
13.81857022964828
13.81857022964828
12.646677347981994
11.377126726176853
10.595864805065995
11.08415350576028
12.060730907148852
10.79118028534371
8.349736781872283
6.103608758678568
5.420004577706569
5.71297779812314
4.931715877012284
3.5645075150682843
1.6113527122911422
-0.34180209048599985
-1.6113527122911422
-3.466849774929427
-6.591897459372854
-12.158388647287708
-17.82253757534142
-20.263981078812847
-18.994430457007706
-14.306858930342566
-8.642710002288853
-3.662165255207141
0.04882887006942855
1.513694972152285
1.9043259327077133
1.3183794918745708
0.24414435034714274
0.04882887006942855
0.24414435034714274
2.490272373540856
6.103608758678568
8.838025482566568
9.619287403677424
7.373159380483711
4.248111696040284
1.7090104524299992
1.513694972152285
4.345769436179141
7.275501640344854
9.033340962844282
8.44739452201114
5.71297779812314
3.36919203479057
2.5879301136797133
4.248111696040284
6.201266498817426
7.275501640344854
8.252079041733426
7.959105821316854
6.884870679789426
4.931715877012284
2.490272373540856
-0.04882887006942855
-3.466849774929427
-6.201266498817426
-8.05676356145571
-8.44739452201114
-7.275501640344854
-6.005951018539712
-4.638742656595713
-4.345769436179141
-6.005951018539712
-8.838025482566568
-12.060730907148852
-12.84199282825971
-11.865415426871138
-10.888838025482567
-10.302891584649425
-10.498207064927138
-9.619287403677424
-8.252079041733426
-8.05676356145571
-9.130998702983138
-10.986495765621424
-11.47478446631571
-11.670099946593423
-12.84199282825971
-13.525597009231708
-11.865415426871138
-5.908293278400855
1.1230640115968566
4.345769436179141
1.6113527122911422
-6.591897459372854
-15.47875181200885
-21.338216220340275
-22.705424582284277
-19.385061417563133
-13.037308308537423
-4.052796215762569
3.7598229953459983
5.908293278400855
3.076218814373999
-0.6347753109025711
1.2207217517357138
11.377126726176853
32.178225375753414
63.72167544060426
91.35881589990082
89.40566109712367
43.99481193255512
-22.803082322423133
-69.58113984893568
-76.51483939879454
-55.127794308384836
-29.053177691309987
-11.963073167009995
-5.224689097428855
-5.71297779812314
-7.666132600900283
-8.05676356145571
-6.591897459372854
-3.5645075150682843
-0.34180209048599985
2.783245593957427
4.248111696040284
3.5645075150682843
2.490272373540856
1.416037232013428
2.197299153124285
3.8574807354848555
5.615320057984283
6.982528419928283
7.080186160067139
6.982528419928283
7.568474860761425
9.42397192339971
12.646677347981994
14.306858930342566
13.525597009231708
9.619287403677424
5.420004577706569
4.541084916456855
6.005951018539712
7.568474860761425
7.275501640344854
6.39658197909514
6.787212939650568
7.763790341039139
9.912260624093996
11.767757686732281
12.646677347981994
12.84199282825971
11.670099946593423
10.009918364232853
8.349736781872283
7.861448081177996
8.935683222705425
10.400549324788281
13.232623788815136
15.674067292286564
14.892805371175708
10.498207064927138
3.9551384756237127
-1.2207217517357138
-4.736400396734569
-6.6895551995117115
-6.884870679789426
-6.6895551995117115
-6.201266498817426
-6.298924238956283
-6.884870679789426
-6.201266498817426
-3.8574807354848555
-0.04882887006942855
1.8066681925688564
0.43945983062485694
-2.0996414129854277
-4.345769436179141
-4.052796215762569
-2.392614633401999
-1.7090104524299992
-3.1738765545128556
-6.6895551995117115
-9.130998702983138
-9.71694514381628
-8.838025482566568
-6.884870679789426
-6.005951018539712
-5.810635538261997
-6.494239719233997
-8.05676356145571
-10.10757610437171
-13.232623788815136
-15.381094071869994
-16.45532921339742
-18.017853055619135
-20.16632333867399
-22.412451361867703
-21.338216220340275
-17.627222095063708
-13.720912489509422
-10.302891584649425
-8.44739452201114
-6.6895551995117115
-4.541084916456855
-0.9277485313191425
5.322346837567712
12.84199282825971
20.263981078812847
24.560921644922562
26.025787747005417
26.90470740825513
25.439841306172273
20.654612039368278
12.549019607843137
3.662165255207141
-4.931715877012284
-14.990463111314565
-24.072632944228275
-29.834439612420844
-31.103990234225986
-27.588311589227132
-22.314793621728846
-17.334248874647134
-14.892805371175708
-14.697489890897993
-13.525597009231708
-10.400549324788281
-4.248111696040284
4.345769436179141
19.385061417563133
46.72922865644312
80.03051804379339
96.53467612726024
71.33897917143511
7.568474860761425
-57.86221103227283
-87.15953307392996
-72.5108720531014
-38.23300526436255
-11.670099946593423
-2.0019836728465705
-4.638742656595713
-9.521629663538567
-12.060730907148852
-11.670099946593423
-7.763790341039139
-1.6113527122911422
5.908293278400855
10.498207064927138
10.10757610437171
8.642710002288853
8.44739452201114
9.619287403677424
9.521629663538567
8.838025482566568
10.400549324788281
13.525597009231708
16.55298695353628
16.943617914091707
14.697489890897993
12.549019607843137
10.498207064927138
8.545052262149996
6.39658197909514
6.39658197909514
10.498207064927138
15.674067292286564
18.506141756313422
16.748302433813993
12.84199282825971
10.986495765621424
10.986495765621424
12.060730907148852
12.256046387426567
9.71694514381628
4.443427176317998
-0.6347753109025711
-0.43945983062485694
3.9551384756237127
7.568474860761425
7.470817120622568
3.466849774929427
-1.1230640115968566
-4.834058136873426
-6.494239719233997
-6.494239719233997
-7.373159380483711
-8.935683222705425
-11.279468986037996
-13.81857022964828
-14.990463111314565
-15.185778591592278
-13.720912489509422
-11.865415426871138
-9.521629663538567
-5.810635538261997
-2.197299153124285
0.6347753109025711
1.513694972152285
0.43945983062485694
-0.6347753109025711
-2.0019836728465705
-2.9785610742351416
-4.541084916456855
-6.298924238956283
-6.787212939650568
-6.005951018539712
-2.783245593957427
1.2207217517357138
3.662165255207141
3.7598229953459983
1.6113527122911422
0.04882887006942855
0.04882887006942855
1.513694972152285
3.662165255207141
4.052796215762569
3.466849774929427
2.2949568932631417
0.537117570763714
-1.513694972152285
-5.224689097428855
-8.44739452201114
-9.326314183260854
-7.763790341039139
-4.736400396734569
-2.490272373540856
-0.14648661020828566
1.6113527122911422
2.0996414129854277
2.0019836728465705
1.416037232013428
1.513694972152285
1.0254062714579995
-1.1230640115968566
-4.443427176317998
-6.884870679789426
-5.615320057984283
-2.392614633401999
0.34180209048599985
2.783245593957427
4.638742656595713
6.591897459372854
7.275501640344854
5.420004577706569
2.0019836728465705
-1.1230640115968566
-0.8300907911802854
1.8066681925688564
4.345769436179141
5.615320057984283
4.834058136873426
2.9785610742351416
1.0254062714579995
0.24414435034714274
1.3183794918745708
2.490272373540856
4.052796215762569
5.615320057984283
6.6895551995117115
7.763790341039139
8.252079041733426
9.81460288395514
13.232623788815136
17.43190661478599
19.48271915770199
16.16235599298085
9.81460288395514
3.8574807354848555
0.6347753109025711
0.6347753109025711
1.0254062714579995
0.9277485313191425
0.43945983062485694
0.43945983062485694
0.7324330510414282
0.24414435034714274
2.5879301136797133
14.50217441062028
43.018234531166556
85.59700923170824
117.72640573739223
108.44892042420081
47.80346379797055
-37.15877012283513
-99.75738155184253
-113.33180743114366
-86.8665598535134
-50.73319600213626
-26.416418707560844
-17.43190661478599
-18.799114976729992
-22.998397802700847
-25.92813000686656
-25.63515678644999
-21.728847180895706
-17.041275654230564
-12.549019607843137
-9.71694514381628
-8.545052262149996
-6.494239719233997
-3.8574807354848555
-0.7324330510414282
0.7324330510414282
0.34180209048599985
0.04882887006942855
-0.14648661020828566
1.416037232013428
3.662165255207141
5.127031357289998
6.494239719233997
8.05676356145571
10.009918364232853
10.302891584649425
8.935683222705425
8.545052262149996
9.619287403677424
12.256046387426567
15.088120851453422
17.236591134508277
18.701457236591136
18.017853055619135
15.674067292286564
12.549019607843137
10.10757610437171
9.912260624093996
10.79118028534371
13.232623788815136
15.576409552147707
16.16235599298085
14.990463111314565
11.572442206454566
7.861448081177996
4.834058136873426
1.9043259327077133
-1.3183794918745708
-5.908293278400855
-9.619287403677424
-11.572442206454566
-12.353704127565424
-12.84199282825971
-14.697489890897993
-16.16235599298085
-16.357671473258563
-15.674067292286564
-14.599832150759136
-14.50217441062028
-13.330281528953995
-11.377126726176853
-9.912260624093996
-8.74036774242771
-8.05676356145571
-6.298924238956283
-4.345769436179141
-3.076218814373999
-2.490272373540856
-4.052796215762569
-5.71297779812314
-5.615320057984283
-3.466849774929427
-0.8300907911802854
-1.2207217517357138
-4.248111696040284
-7.666132600900283
-8.349736781872283
-5.322346837567712
-1.8066681925688564
0.8300907911802854
1.7090104524299992
1.0254062714579995
-0.24414435034714274
-3.2715342946517127
-6.6895551995117115
-9.521629663538567
-10.498207064927138
-8.44739452201114
-5.224689097428855
-1.8066681925688564
-0.04882887006942855
-0.43945983062485694
-0.8300907911802854
-0.7324330510414282
0.04882887006942855
0.04882887006942855
-0.7324330510414282
-1.416037232013428
-1.9043259327077133
-0.43945983062485694
1.513694972152285
2.0996414129854277
1.6113527122911422
0.43945983062485694
1.0254062714579995
3.1738765545128556
5.224689097428855
5.810635538261997
3.2715342946517127
0.8300907911802854
1.8066681925688564
6.982528419928283
13.720912489509422
16.650644693675137
14.306858930342566
8.545052262149996
2.490272373540856
-1.416037232013428
-4.052796215762569
-2.9785610742351416
2.490272373540856
9.521629663538567
13.037308308537423
8.838025482566568
0.7324330510414282
-4.345769436179141
-0.9277485313191425
15.283436331731137
45.947966735332265
87.55016403448539
118.31235217822538
108.64423590447852
48.584725719081405
-37.35408560311284
-101.02693217364767
-113.82009613183794
-86.8665598535134
-51.02616922255284
-28.467231250476843
-20.16632333867399
-18.994430457007706
-19.18974593728542
-17.52956435492485
-15.088120851453422
-13.232623788815136
-13.330281528953995
-14.013885709925994
-12.353704127565424
-8.545052262149996
-3.7598229953459983
-1.416037232013428
-2.490272373540856
-3.662165255207141
-3.9551384756237127
-3.1738765545128556
-2.2949568932631417
-0.34180209048599985
4.052796215762569
8.642710002288853
12.158388647287708
13.037308308537423
11.963073167009995
11.377126726176853
11.572442206454566
12.45136186770428
12.646677347981994
12.158388647287708
11.767757686732281
10.986495765621424
11.47478446631571
13.330281528953995
14.990463111314565
15.771725032425422
14.892805371175708
13.720912489509422
13.232623788815136
13.81857022964828
15.088120851453422
14.892805371175708
13.720912489509422
11.47478446631571
7.959105821316854
3.8574807354848555
-1.8066681925688564
-7.959105821316854
-13.916227969787137
-18.21316853589685
-20.361638818951704
-22.119478141451133
-22.705424582284277
-22.119478141451133
-20.947585259784848
-19.678034637979707
-20.068665598535134
-20.947585259784848
-20.45929655909056
-16.84596017395285
-9.619287403677424
-2.783245593957427
1.3183794918745708
1.9043259327077133
0.14648661020828566
-0.7324330510414282
-0.8300907911802854
-0.537117570763714
-1.8066681925688564
-4.736400396734569
-6.6895551995117115
-6.591897459372854
-3.466849774929427
0.14648661020828566
1.7090104524299992
1.8066681925688564
0.8300907911802854
0.04882887006942855
-1.1230640115968566
-2.8809033340962844
-3.7598229953459983
-3.7598229953459983
-1.7090104524299992
0.8300907911802854
1.416037232013428
0.04882887006942855
-2.0996414129854277
-1.8066681925688564
1.2207217517357138
5.0293736171511405
7.470817120622568
7.080186160067139
6.884870679789426
8.252079041733426
9.81460288395514
10.302891584649425
8.44739452201114
6.201266498817426
4.248111696040284
2.392614633401999
1.2207217517357138
0.04882887006942855
0.537117570763714
2.5879301136797133
3.466849774929427
2.0996414129854277
-1.9043259327077133
-5.0293736171511405
-4.150453955901427
1.513694972152285
9.033340962844282
12.353704127565424
10.205233844510566
4.443427176317998
-1.2207217517357138
-4.541084916456855
-6.494239719233997
-6.591897459372854
-5.127031357289998
-2.0996414129854277
1.416037232013428
3.076218814373999
4.052796215762569
6.494239719233997
13.720912489509422
31.787594415197987
63.91699092088197
104.24963759822995
127.29686427100023
102.68711375600824
29.541466392004274
-53.27229724574655
-99.07377737087053
-96.14404516670481
-68.01861600671397
-42.04165712977798
-31.00633249408713
-30.420386053253985
-32.27588311589227
-31.201647974364842
-26.61173418783856
-22.21713588158999
-17.920195315480278
-12.646677347981994
-7.373159380483711
-3.076218814373999
-0.9277485313191425
0.537117570763714
2.0019836728465705
3.076218814373999
3.662165255207141
3.466849774929427
4.834058136873426
7.080186160067139
7.959105821316854
7.080186160067139
5.224689097428855
5.127031357289998
6.591897459372854
8.74036774242771
11.670099946593423
13.81857022964828
14.892805371175708
13.81857022964828
10.400549324788281
6.591897459372854
2.392614633401999
-0.43945983062485694
-1.0254062714579995
1.0254062714579995
4.931715877012284
6.982528419928283
6.884870679789426
5.224689097428855
3.076218814373999
2.197299153124285
1.513694972152285
0.8300907911802854
-0.14648661020828566
-1.0254062714579995
-1.3183794918745708
-2.5879301136797133
-4.052796215762569
-5.615320057984283
-7.275501640344854
-8.642710002288853
-10.888838025482567
-13.427939269092851
-15.674067292286564
-16.45532921339742
-14.404516670481422
-11.181811245899137
-7.470817120622568
-4.443427176317998
-2.8809033340962844
-1.3183794918745708
0.14648661020828566
1.9043259327077133
2.8809033340962844
3.1738765545128556
3.8574807354848555
3.7598229953459983
3.8574807354848555
4.736400396734569
6.103608758678568
7.666132600900283
7.763790341039139
6.6895551995117115
4.345769436179141
0.43945983062485694
-2.9785610742351416
-4.834058136873426
-2.5879301136797133
2.2949568932631417
6.298924238956283
7.373159380483711
3.8574807354848555
-1.7090104524299992
-6.103608758678568
-5.810635538261997
-0.6347753109025711
4.541084916456855
7.568474860761425
8.74036774242771
10.79118028534371
16.357671473258563
23.096055542839704
28.369573510337986
29.834439612420844
26.61173418783856
19.385061417563133
9.81460288395514
0.7324330510414282
-7.861448081177996
-17.43190661478599
-27.002365148393988
-35.596246280613414
-39.99084458686198
-38.62363622491798
-32.86182955672541
-25.439841306172273
-19.87335011825742
-14.892805371175708
-10.10757610437171
-7.177843900205997
-5.615320057984283
-2.8809033340962844
7.959105821316854
33.64309147783627
70.94834821087969
98.19485770962082
86.76890211337454
32.86182955672541
-34.0337224383917
-74.95231555657283
-74.26871137560083
-49.56130312046998
-24.65857938506142
-11.865415426871138
-9.619287403677424
-10.693522545204852
-11.08415350576028
-7.666132600900283
-2.5879301136797133
0.9277485313191425
3.076218814373999
4.638742656595713
6.884870679789426
8.252079041733426
7.959105821316854
7.177843900205997
6.494239719233997
7.861448081177996
10.009918364232853
10.888838025482567
10.693522545204852
9.619287403677424
9.42397192339971
10.205233844510566
11.963073167009995
14.306858930342566
15.185778591592278
15.283436331731137
15.283436331731137
14.795147631036851
13.916227969787137
11.181811245899137
8.349736781872283
7.177843900205997
9.033340962844282
14.013885709925994
18.89677271686885
21.43587396047913
19.18974593728542
13.232623788815136
8.44739452201114
6.494239719233997
7.177843900205997
7.568474860761425
5.908293278400855
2.9785610742351416
-0.9277485313191425
-4.345769436179141
-7.666132600900283
-11.670099946593423
-15.967040512703136
-21.045242999923705
-24.95155260547799
-26.416418707560844
-25.24452582589456
-22.803082322423133
-22.119478141451133
-22.510109102006563
-22.998397802700847
-22.803082322423133
-19.87335011825742
-15.576409552147707
-11.279468986037996
-8.838025482566568
-8.05676356145571
-6.982528419928283
-6.103608758678568
-4.150453955901427
-2.0019836728465705
-1.1230640115968566
-0.7324330510414282
-0.537117570763714
1.1230640115968566
4.150453955901427
7.861448081177996
11.670099946593423
12.74433508812085
11.279468986037996
7.959105821316854
4.248111696040284
2.490272373540856
2.0019836728465705
2.9785610742351416
5.71297779812314
11.08415350576028
19.58037689784085
27.68596932936599
33.3501182574197
35.010299839780274
32.471198596169984
26.514076447699704
16.16235599298085
2.2949568932631417
-12.84199282825971
-26.709391927977418
-36.768139162279695
-42.822919050888835
-43.604180971999696
-40.772106507972836
-36.86579690241855
-32.08056763561456
-27.100022888532845
-21.338216220340275
-16.748302433813993
-15.771725032425422
-17.82253757534142
-19.48271915770199
-13.427939269092851
6.591897459372854
42.529945830472265
82.96025024795911
98.48783093003739
67.13969634546426
0.7324330510414282
-59.03410391393912
-79.3469138628214
-63.13572899977112
-33.3501182574197
-10.986495765621424
-2.8809033340962844
-4.052796215762569
-8.05676356145571
-9.130998702983138
-6.884870679789426
-3.7598229953459983
-1.2207217517357138
-0.14648661020828566
1.6113527122911422
4.541084916456855
6.201266498817426
5.127031357289998
1.513694972152285
-0.6347753109025711
-0.24414435034714274
1.3183794918745708
2.9785610742351416
4.052796215762569
6.982528419928283
11.767757686732281
15.967040512703136
18.40848401617456
18.40848401617456
18.11551079575799
18.310826276035705
18.506141756313422
18.994430457007706
18.60379949645228
18.506141756313422
18.994430457007706
19.385061417563133
19.775692378118563
18.89677271686885
18.60379949645228
18.701457236591136
17.43190661478599
14.306858930342566
9.71694514381628
6.591897459372854
4.834058136873426
2.783245593957427
0.6347753109025711
-2.2949568932631417
-5.517662317845426
-9.130998702983138
-13.13496604867628
-15.771725032425422
-16.84596017395285
-16.357671473258563
-17.236591134508277
-20.45929655909056
-22.705424582284277
-22.021820401312276
-18.11551079575799
-13.330281528953995
-10.009918364232853
-8.252079041733426
-8.05676356145571
-6.103608758678568
-1.416037232013428
3.466849774929427
6.494239719233997
5.517662317845426
2.5879301136797133
0.04882887006942855
-0.24414435034714274
1.8066681925688564
3.9551384756237127
5.0293736171511405
5.0293736171511405
4.541084916456855
4.931715877012284
4.345769436179141
2.783245593957427
0.537117570763714
-1.7090104524299992
-3.466849774929427
-5.224689097428855
-4.443427176317998
0.04882887006942855
7.177843900205997
15.869382772564279
23.48668650339513
29.834439612420844
33.74074921797513
33.93606469825284
30.908674753948272
25.049210345616846
18.017853055619135
8.154421301594567
-5.71297779812314
-21.045242999923705
-35.4009308003357
-45.362020294499125
-48.584725719081405
-43.99481193255512
-33.93606469825284
-24.560921644922562
-17.724879835202564
-13.13496604867628
-10.595864805065995
-9.42397192339971
-9.228656443121995
-6.103608758678568
5.908293278400855
32.37354085603113
68.11627374685283
89.21034561684596
73.29213397421225
22.998397802700847
-30.029755092698558
-54.053559166857404
-46.43625543602655
-25.049210345616846
-8.642710002288853
-3.8574807354848555
-7.568474860761425
-14.599832150759136
-18.701457236591136
-17.724879835202564
-14.11154345006485
-10.205233844510566
-8.154421301594567
-6.591897459372854
-4.345769436179141
-1.0254062714579995
2.5879301136797133
4.541084916456855
6.298924238956283
9.033340962844282
11.767757686732281
13.720912489509422
13.916227969787137
13.330281528953995
12.353704127565424
10.888838025482567
9.619287403677424
8.44739452201114
8.545052262149996
9.71694514381628
10.302891584649425
9.912260624093996
7.861448081177996
5.224689097428855
3.2715342946517127
3.1738765545128556
6.591897459372854
11.572442206454566
16.943617914091707
19.971007858396277
18.60379949645228
14.599832150759136
9.42397192339971
5.517662317845426
3.7598229953459983
3.5645075150682843
4.834058136873426
5.322346837567712
4.638742656595713
1.8066681925688564
-2.9785610742351416
-8.44739452201114
-14.599832150759136
-19.87335011825742
-23.48668650339513
-26.22110322728313
-27.881284809643702
-28.467231250476843
-24.853894865339132
-17.236591134508277
-9.42397192339971
-4.443427176317998
-4.443427176317998
-7.177843900205997
-9.71694514381628
-10.205233844510566
-7.861448081177996
-5.0293736171511405
-1.8066681925688564
0.537117570763714
0.8300907911802854
-0.7324330510414282
-4.150453955901427
-6.494239719233997
-6.787212939650568
-5.420004577706569
-2.8809033340962844
-1.2207217517357138
0.537117570763714
2.9785610742351416
5.0293736171511405
6.298924238956283
5.615320057984283
5.127031357289998
7.373159380483711
13.037308308537423
20.84992751964599
26.90470740825513
30.029755092698558
30.420386053253985
28.174258030060273
23.096055542839704
12.646677347981994
-2.490272373540856
-19.287403677424276
-34.22903791866941
-45.16670481422141
-52.002746623941405
-52.6863508049134
-48.48706797894255
-42.43228809033341
-35.4009308003357
-28.369573510337986
-21.14290074006256
-14.892805371175708
-10.693522545204852
-7.470817120622568
-2.8809033340962844
8.74036774242771
33.44777599755856
71.04600595101854
104.44495307850767
101.22224765392538
48.48706797894255
-25.830472266727703
-74.85465781643397
-76.31952391851682
-48.19409475852598
-17.920195315480278
0.43945983062485694
7.177843900205997
7.568474860761425
5.810635538261997
6.201266498817426
8.349736781872283
8.838025482566568
6.6895551995117115
3.36919203479057
2.9785610742351416
5.810635538261997
8.74036774242771
10.79118028534371
10.79118028534371
9.033340962844282
4.638742656595713
-0.34180209048599985
-1.513694972152285
1.2207217517357138
5.908293278400855
8.935683222705425
9.130998702983138
8.349736781872283
6.787212939650568
5.420004577706569
4.834058136873426
6.39658197909514
10.595864805065995
13.623254749370565
13.81857022964828
11.670099946593423
9.42397192339971
9.130998702983138
9.521629663538567
10.009918364232853
9.228656443121995
6.6895551995117115
4.052796215762569
1.513694972152285
-0.34180209048599985
-3.36919203479057
-7.666132600900283
-10.986495765621424
-13.720912489509422
-15.47875181200885
-15.967040512703136
-15.771725032425422
-16.260013733119706
-19.287403677424276
-21.24055848020142
-19.385061417563133
-14.599832150759136
-8.935683222705425
-5.615320057984283
-4.345769436179141
-3.9551384756237127
-3.1738765545128556
-0.43945983062485694
2.392614633401999
4.541084916456855
4.541084916456855
1.9043259327077133
-0.9277485313191425
-3.466849774929427
-4.345769436179141
-3.2715342946517127
-0.9277485313191425
1.8066681925688564
2.5879301136797133
2.2949568932631417
2.392614633401999
2.783245593957427
4.150453955901427
4.443427176317998
3.8574807354848555
2.2949568932631417
-0.14648661020828566
-1.9043259327077133
-2.8809033340962844
-1.416037232013428
2.0019836728465705
5.810635538261997
9.326314183260854
12.256046387426567
16.748302433813993
22.60776684214542
27.588311589227132
30.518043793392845
30.615701533531702
28.760204470893417
24.072632944228275
15.674067292286564
4.052796215762569
-10.888838025482567
-26.416418707560844
-38.72129396505684
-45.85030899519341
-47.21751735713741
-45.069047074082555
-39.5025558861677
-32.08056763561456
-25.342183566033416
-19.971007858396277
-17.52956435492485
-16.943617914091707
-16.357671473258563
-12.256046387426567
2.5879301136797133
33.3501182574197
72.02258335240711
91.55413138017853
67.23735408560312
5.71297779812314
-58.25284199282826
-89.60097657740138
-81.20241092545967
-52.10040436408026
-25.049210345616846
-11.670099946593423
-8.935683222705425
-10.888838025482567
-13.037308308537423
-11.279468986037996
-6.39658197909514
-1.2207217517357138
1.416037232013428
2.0019836728465705
3.076218814373999
5.0293736171511405
8.44739452201114
12.256046387426567
14.404516670481422
15.576409552147707
15.576409552147707
15.869382772564279
16.55298695353628
17.724879835202564
20.654612039368278
24.365606164644845
29.150835431448844
33.74074921797513
35.69390402075227
34.61966887922484
30.908674753948272
27.392996108949415
25.439841306172273
24.17029068436713
23.779659723811704
22.998397802700847
22.21713588158999
20.947585259784848
19.092088197146563
18.017853055619135
16.84596017395285
15.185778591592278
12.256046387426567
7.959105821316854
4.541084916456855
2.5879301136797133
2.392614633401999
1.7090104524299992
-0.7324330510414282
-3.9551384756237127
-8.154421301594567
-12.646677347981994
-18.21316853589685
-26.123445487144274
-35.69390402075227
-44.580758373388264
-48.97535667963683
-49.56130312046998
-48.97535667963683
-46.72922865644312
-43.99481193255512
-41.84634164950027
-40.186160067139696
-37.15877012283513
-31.201647974364842
-23.48668650339513
-14.013885709925994
-4.150453955901427
3.076218814373999
7.861448081177996
10.009918364232853
11.08415350576028
11.572442206454566
11.670099946593423
12.060730907148852
11.767757686732281
13.037308308537423
16.357671473258563
19.18974593728542
20.263981078812847
18.994430457007706
17.920195315480278
18.506141756313422
21.14290074006256
26.416418707560844
32.178225375753414
37.94003204394598
42.529945830472265
44.19012741283284
42.72526131074998
37.06111238269627
28.076600289921416
16.357671473258563
2.0019836728465705
-12.549019607843137
-24.95155260547799
-31.494621194781413
-32.178225375753414
-30.029755092698558
-26.416418707560844
-22.803082322423133
-18.701457236591136
-15.185778591592278
-13.720912489509422
-13.525597009231708
-13.525597009231708
-7.959105821316854
9.42397192339971
42.72526131074998
84.62043183031967
107.76531624322881
85.6946669718471
21.92416266117342
-46.240939955748836
-79.73754482337682
-71.1436636911574
-40.08850232700084
-10.888838025482567
3.2715342946517127
3.662165255207141
-3.1738765545128556
-9.326314183260854
-10.888838025482567
-8.838025482566568
-4.541084916456855
-1.0254062714579995
1.0254062714579995
2.0019836728465705
1.6113527122911422
1.513694972152285
1.9043259327077133
3.36919203479057
4.834058136873426
4.931715877012284
4.443427176317998
4.248111696040284
6.6895551995117115
11.279468986037996
14.697489890897993
15.576409552147707
13.232623788815136
10.205233844510566
8.252079041733426
7.373159380483711
7.959105821316854
9.033340962844282
11.47478446631571
14.50217441062028
16.260013733119706
17.13893339436942
16.357671473258563
15.283436331731137
14.209201190203707
12.549019607843137
10.888838025482567
8.642710002288853
6.201266498817426
3.466849774929427
0.6347753109025711
-0.9277485313191425
-3.8574807354848555
-8.545052262149996
-14.306858930342566
-19.971007858396277
-23.58434424353399
-25.63515678644999
-25.439841306172273
-23.389028763256274
-21.045242999923705
-18.11551079575799
-16.064698252841993
-14.50217441062028
-13.037308308537423
-11.181811245899137
-8.44739452201114
-7.275501640344854
-6.787212939650568
-5.615320057984283
-3.1738765545128556
0.43945983062485694
2.8809033340962844
3.2715342946517127
2.0019836728465705
1.2207217517357138
3.2715342946517127
6.103608758678568
7.861448081177996
7.763790341039139
6.298924238956283
5.810635538261997
5.127031357289998
4.345769436179141
3.2715342946517127
2.9785610742351416
5.224689097428855
8.74036774242771
13.720912489509422
19.58037689784085
25.146868085755703
29.346150911726557
30.127412832837415
28.467231250476843
25.537499046311133
21.24055848020142
15.771725032425422
8.642710002288853
-0.9277485313191425
-14.697489890897993
-30.518043793392845
-43.21355001144427
-51.51445792324712
-55.61608300907912
-56.29968719005112
-54.83482108796826
-51.51445792324712
-47.998779278248264
-43.11589227130541
-37.06111238269627
-31.494621194781413
-26.807049668116274
-22.705424582284277
-13.525597009231708
8.74036774242771
44.873731593804834
78.27267872129397
80.12817578393225
39.40489814602884
-22.021820401312276
-66.55374990463112
-72.70618753337911
-51.416800183108265
-24.95155260547799
-7.666132600900283
-2.197299153124285
-3.662165255207141
-8.05676356145571
-10.302891584649425
-8.44739452201114
-4.638742656595713
-0.9277485313191425
0.04882887006942855
0.04882887006942855
1.0254062714579995
3.7598229953459983
7.666132600900283
10.986495765621424
15.283436331731137
21.24055848020142
25.63515678644999
26.61173418783856
23.682001983672848
20.361638818951704
18.799114976729992
18.506141756313422
18.701457236591136
17.920195315480278
16.650644693675137
15.185778591592278
13.232623788815136
11.670099946593423
10.10757610437171
9.521629663538567
9.619287403677424
9.71694514381628
10.302891584649425
10.400549324788281
10.302891584649425
9.521629663538567
7.763790341039139
6.005951018539712
2.9785610742351416
-0.6347753109025711
-3.8574807354848555
-5.908293278400855
-6.39658197909514
-7.568474860761425
-9.619287403677424
-13.13496604867628
-17.920195315480278
-20.654612039368278
-21.045242999923705
-19.775692378118563
-18.40848401617456
-17.52956435492485
-15.381094071869994
-12.45136186770428
-9.130998702983138
-6.884870679789426
-7.177843900205997
-9.033340962844282
-12.158388647287708
-14.599832150759136
-14.404516670481422
-11.963073167009995
-8.74036774242771
-8.05676356145571
-7.666132600900283
-4.541084916456855
0.7324330510414282
5.908293278400855
6.298924238956283
1.513694972152285
-5.517662317845426
-10.693522545204852
-10.498207064927138
-7.275501640344854
-2.8809033340962844
1.2207217517357138
5.908293278400855
12.549019607843137
18.701457236591136
22.119478141451133
23.096055542839704
24.17029068436713
28.66254673075456
35.69390402075227
43.311207751583126
47.51049057755398
45.26436255436027
37.4517433432517
24.756237125200276
9.521629663538567
-6.884870679789426
-23.48668650339513
-36.86579690241855
-43.79949645227741
-41.45571068894484
-32.764171816586554
-24.4632639047837
-18.994430457007706
-15.869382772564279
-12.45136186770428
-9.326314183260854
-7.275501640344854
-3.466849774929427
5.224689097428855
25.24452582589456
59.42473487449455
97.3159380483711
111.18333714808881
73.68276493476768
-5.71297779812314
-80.03051804379339
-106.49576562142367
-82.0813305867094
-38.62363622491798
-5.322346837567712
8.154421301594567
7.470817120622568
2.783245593957427
-0.14648661020828566
-0.34180209048599985
-0.7324330510414282
-2.9785610742351416
-4.345769436179141
-4.345769436179141
-2.0019836728465705
2.8809033340962844
8.545052262149996
12.939650568398566
12.549019607843137
8.44739452201114
3.8574807354848555
2.490272373540856
5.810635538261997
10.009918364232853
12.353704127565424
11.865415426871138
9.71694514381628
9.42397192339971
10.79118028534371
13.037308308537423
14.795147631036851
16.064698252841993
16.943617914091707
14.50217441062028
9.71694514381628
6.6895551995117115
7.959105821316854
11.572442206454566
11.865415426871138
10.302891584649425
11.181811245899137
14.892805371175708
17.724879835202564
14.795147631036851
8.44739452201114
3.8574807354848555
2.9785610742351416
3.662165255207141
-0.24414435034714274
-8.74036774242771
-16.943617914091707
-21.338216220340275
-22.119478141451133
-23.779659723811704
-26.90470740825513
-29.053177691309987
-28.66254673075456
-26.025787747005417
-24.365606164644845
-22.998397802700847
-19.775692378118563
-14.404516670481422
-8.05676356145571
-4.248111696040284
-2.783245593957427
-2.392614633401999
-2.68558785381857
-2.197299153124285
-1.513694972152285
-0.24414435034714274
0.04882887006942855
-1.6113527122911422
-3.2715342946517127
-4.052796215762569
-3.466849774929427
-2.9785610742351416
-3.662165255207141
-3.662165255207141
-3.36919203479057
-2.68558785381857
-2.8809033340962844
-4.931715877012284
-7.177843900205997
-7.861448081177996
-5.0293736171511405
-0.7324330510414282
2.197299153124285
5.517662317845426
10.205233844510566
16.84596017395285
24.072632944228275
29.346150911726557
32.178225375753414
31.2993057145037
27.588311589227132
20.654612039368278
9.033340962844282
-6.005951018539712
-22.510109102006563
-35.889219501029984
-42.822919050888835
-42.822919050888835
-37.94003204394598
-32.27588311589227
-25.830472266727703
-18.506141756313422
-12.549019607843137
-9.81460288395514
-11.47478446631571
-12.84199282825971
-7.470817120622568
12.256046387426567
52.588693064774546
102.98008697642481
130.71488517586022
100.34332799267567
13.916227969787137
-78.76096742198825
-124.8554207675288
-110.20675974670024
-62.9404135194934
-19.87335011825742
2.68558785381857
7.080186160067139
3.8574807354848555
0.43945983062485694
-1.2207217517357138
-0.34180209048599985
2.0019836728465705
5.810635538261997
9.42397192339971
10.79118028534371
10.888838025482567
9.71694514381628
9.521629663538567
11.767757686732281
14.892805371175708
16.748302433813993
15.088120851453422
12.060730907148852
10.205233844510566
10.302891584649425
12.549019607843137
14.599832150759136
15.869382772564279
16.357671473258563
16.064698252841993
15.381094071869994
13.916227969787137
12.84199282825971
12.060730907148852
10.498207064927138
9.033340962844282
8.05676356145571
8.838025482566568
10.205233844510566
10.302891584649425
9.42397192339971
6.884870679789426
3.8574807354848555
1.0254062714579995
-1.416037232013428
-2.490272373540856
-3.2715342946517127
-3.9551384756237127
-6.005951018539712
-10.205233844510566
-14.892805371175708
-19.48271915770199
-22.705424582284277
-23.58434424353399
-22.314793621728846
-19.092088197146563
-16.16235599298085
-13.13496604867628
-9.81460288395514
-7.666132600900283
-6.591897459372854
-6.39658197909514
-5.420004577706569
-3.7598229953459983
-3.076218814373999
-3.1738765545128556
-4.150453955901427
-3.8574807354848555
-1.6113527122911422
0.9277485313191425
3.7598229953459983
5.517662317845426
6.884870679789426
7.373159380483711
6.201266498817426
5.224689097428855
4.736400396734569
4.931715877012284
4.931715877012284
3.7598229953459983
3.466849774929427
4.931715877012284
8.154421301594567
11.572442206454566
14.306858930342566
18.21316853589685
23.389028763256274
30.322728313115128
37.4517433432517
40.57679102769512
36.67048142214084
24.65857938506142
9.521629663538567
-4.248111696040284
-16.650644693675137
-28.27191577019913
-39.20958266575113
-46.14328221560998
-47.21751735713741
-43.604180971999696
-37.15877012283513
-31.494621194781413
-27.68596932936599
-25.146868085755703
-23.291371023117417
-20.55695429922942
-16.260013733119706
-4.248111696040284
25.049210345616846
74.26871137560083
124.46478980697337
135.40245670252537
83.15556572823682
-10.693522545204852
-91.35881589990082
-116.45685511558709
-90.2845807583734
-46.33859769588769
-14.404516670481422
-3.2715342946517127
-4.834058136873426
-10.205233844510566
-12.84199282825971
-11.181811245899137
-6.787212939650568
-1.0254062714579995
2.68558785381857
4.345769436179141
4.834058136873426
4.150453955901427
3.2715342946517127
2.2949568932631417
2.5879301136797133
3.466849774929427
4.248111696040284
6.494239719233997
9.521629663538567
12.84199282825971
15.576409552147707
16.84596017395285
16.650644693675137
14.404516670481422
12.45136186770428
12.353704127565424
13.330281528953995
15.185778591592278
16.16235599298085
16.748302433813993
17.43190661478599
17.82253757534142
17.627222095063708
15.771725032425422
14.209201190203707
13.916227969787137
13.13496604867628
11.47478446631571
8.545052262149996
6.787212939650568
6.298924238956283
5.420004577706569
3.076218814373999
-2.0996414129854277
-8.545052262149996
-15.185778591592278
-22.119478141451133
-28.174258030060273
-32.95948729686427
-34.22903791866941
-32.178225375753414
-28.95551995117113
-25.63515678644999
-23.87731746395056
-22.803082322423133
-21.045242999923705
-18.21316853589685
-14.50217441062028
-12.549019607843137
-11.670099946593423
-9.71694514381628
-6.201266498817426
-1.513694972152285
2.783245593957427
7.080186160067139
10.009918364232853
10.693522545204852
10.986495765621424
11.279468986037996
12.353704127565424
13.525597009231708
13.916227969787137
13.427939269092851
10.986495765621424
8.252079041733426
6.103608758678568
4.052796215762569
2.783245593957427
2.5879301136797133
5.810635538261997
12.939650568398566
20.947585259784848
26.514076447699704
27.1976806286717
25.92813000686656
24.95155260547799
23.096055542839704
19.48271915770199
12.45136186770428
3.076218814373999
-8.545052262149996
-21.63118944075685
-32.56885633630884
-40.28381780727855
-43.70183871213855
-43.50652323186084
-40.186160067139696
-33.64309147783627
-26.123445487144274
-18.799114976729992
-13.037308308537423
-10.888838025482567
-10.595864805065995
-7.666132600900283
6.787212939650568
39.79552910658427
85.40169375143053
119.09361409933624
107.37468528267338
41.84634164950027
-44.77607385366598
-101.71053635461966
-104.1519798580911
-71.33897917143511
-36.182192721446555
-18.21316853589685
-16.748302433813993
-21.43587396047913
-24.95155260547799
-23.48668650339513
-18.40848401617456
-13.623254749370565
-10.498207064927138
-9.521629663538567
-8.642710002288853
-6.6895551995117115
-4.541084916456855
-2.392614633401999
-0.6347753109025711
2.68558785381857
8.44739452201114
13.623254749370565
16.748302433813993
17.724879835202564
18.60379949645228
19.287403677424276
18.310826276035705
17.236591134508277
16.748302433813993
17.920195315480278
19.775692378118563
19.971007858396277
19.092088197146563
17.82253757534142
17.920195315480278
18.40848401617456
17.52956435492485
16.748302433813993
16.357671473258563
17.334248874647134
18.60379949645228
18.799114976729992
18.310826276035705
16.357671473258563
13.916227969787137
10.888838025482567
7.080186160067139
3.662165255207141
0.14648661020828566
-3.2715342946517127
-7.763790341039139
-13.037308308537423
-17.627222095063708
-22.021820401312276
-25.049210345616846
-26.025787747005417
-25.342183566033416
-22.412451361867703
-18.60379949645228
-13.81857022964828
-8.935683222705425
-5.810635538261997
-5.127031357289998
-7.666132600900283
-11.181811245899137
-13.623254749370565
-13.720912489509422
-10.595864805065995
-6.201266498817426
-1.416037232013428
2.68558785381857
5.224689097428855
6.39658197909514
5.127031357289998
2.9785610742351416
0.537117570763714
-2.2949568932631417
-4.248111696040284
-5.224689097428855
-3.7598229953459983
-0.34180209048599985
2.9785610742351416
6.884870679789426
11.279468986037996
17.52956435492485
24.95155260547799
30.908674753948272
35.596246280613414
38.33066300450141
39.11192492561227
36.27985046158541
28.66254673075456
18.21316853589685
5.127031357289998
-8.935683222705425
-22.803082322423133
-34.91264209964141
-43.018234531166556
-46.92454413672083
-45.362020294499125
-38.818951705195694
-30.518043793392845
-23.19371328297856
-19.48271915770199
-18.11551079575799
-18.310826276035705
-19.775692378118563
-19.18974593728542
-11.670099946593423
12.74433508812085
58.74113069352254
110.89036392767224
133.5469596398871
96.04638742656596
11.572442206454566
-68.4092469672694
-99.95269703212024
-80.51880674448768
-42.04165712977798
-12.84199282825971
-1.513694972152285
-2.197299153124285
-5.0293736171511405
-5.810635538261997
-3.076218814373999
0.43945983062485694
2.783245593957427
4.443427176317998
3.9551384756237127
1.8066681925688564
-0.24414435034714274
-1.0254062714579995
0.04882887006942855
1.0254062714579995
1.8066681925688564
1.9043259327077133
1.416037232013428
2.68558785381857
5.224689097428855
9.326314183260854
13.623254749370565
15.47875181200885
14.50217441062028
11.08415350576028
8.252079041733426
7.080186160067139
6.39658197909514
6.884870679789426
8.642710002288853
12.84199282825971
18.60379949645228
23.19371328297856
24.756237125200276
21.826504921034562
17.041275654230564
12.549019607843137
8.154421301594567
5.322346837567712
3.9551384756237127
4.345769436179141
4.345769436179141
2.197299153124285
-0.537117570763714
-3.662165255207141
-6.39658197909514
-10.498207064927138
-16.650644693675137
-21.92416266117342
-24.65857938506142
-23.389028763256274
-19.678034637979707
-16.357671473258563
-14.11154345006485
-13.623254749370565
-13.330281528953995
-13.037308308537423
-13.037308308537423
-11.767757686732281
-9.130998702983138
-4.541084916456855
0.43945983062485694
3.5645075150682843
4.638742656595713
3.8574807354848555
3.466849774929427
3.076218814373999
1.513694972152285
0.24414435034714274
-0.04882887006942855
1.9043259327077133
6.298924238956283
11.08415350576028
14.11154345006485
12.549019607843137
7.861448081177996
3.1738765545128556
1.0254062714579995
3.5645075150682843
9.130998702983138
16.357671473258563
23.48668650339513
28.760204470893417
32.95948729686427
35.010299839780274
34.717326619363696
30.518043793392845
21.533531700617992
9.71694514381628
-3.7598229953459983
-17.236591134508277
-29.834439612420844
-39.69787136644541
-43.79949645227741
-42.43228809033341
-36.768139162279695
-30.029755092698558
-24.756237125200276
-19.971007858396277
-16.260013733119706
-13.427939269092851
-12.060730907148852
-11.572442206454566
-7.470817120622568
6.6895551995117115
38.525978484779124
81.5930418860151
106.8863965819791
84.62043183031967
16.064698252841993
-57.66689555199512
-93.50728618295567
-82.17898832684826
-46.14328221560998
-15.674067292286564
-4.052796215762569
-8.349736781872283
-18.017853055619135
-22.314793621728846
-19.58037689784085
-12.45136186770428
-5.127031357289998
-1.1230640115968566
-0.8300907911802854
-3.662165255207141
-5.908293278400855
-6.591897459372854
-6.884870679789426
-6.005951018539712
-4.541084916456855
-2.0996414129854277
0.537117570763714
2.197299153124285
3.466849774929427
4.150453955901427
5.420004577706569
7.080186160067139
8.545052262149996
10.986495765621424
13.81857022964828
17.236591134508277
20.45929655909056
22.803082322423133
24.65857938506142
24.65857938506142
23.58434424353399
22.021820401312276
19.678034637979707
18.21316853589685
17.724879835202564
18.11551079575799
18.017853055619135
15.47875181200885
11.181811245899137
5.517662317845426
1.2207217517357138
-0.9277485313191425
-2.197299153124285
-2.783245593957427
-4.248111696040284
-6.591897459372854
-10.302891584649425
-14.990463111314565
-18.506141756313422
-20.361638818951704
-20.068665598535134
-19.287403677424276
-20.068665598535134
-21.14290074006256
-21.24055848020142
-17.920195315480278
-11.181811245899137
-3.8574807354848555
1.513694972152285
2.9785610742351416
2.490272373540856
1.416037232013428
-0.04882887006942855
-1.3183794918745708
-2.197299153124285
-1.7090104524299992
-0.43945983062485694
0.14648661020828566
0.9277485313191425
1.416037232013428
2.197299153124285
2.5879301136797133
2.197299153124285
2.2949568932631417
2.2949568932631417
3.466849774929427
6.494239719233997
10.595864805065995
14.990463111314565
18.40848401617456
22.510109102006563
27.392996108949415
31.9829098954757
36.27985046158541
37.94003204394598
35.10795757991913
26.90470740825513
15.185778591592278
3.2715342946517127
-9.326314183260854
-21.43587396047913
-31.201647974364842
-36.96345464255741
-37.256427862973986
-34.131380178530556
-28.564888990615703
-21.826504921034562
-16.064698252841993
-12.256046387426567
-11.572442206454566
-12.256046387426567
-12.939650568398566
-11.181811245899137
0.04882887006942855
27.002365148393988
67.7256427862974
99.26909285114824
91.45647364003968
38.33066300450141
-31.00633249408713
-74.07339589532312
-73.78042267490653
-47.31517509727627
-20.84992751964599
-8.935683222705425
-8.545052262149996
-11.181811245899137
-12.158388647287708
-10.009918364232853
-7.080186160067139
-3.8574807354848555
-2.0019836728465705
-2.8809033340962844
-4.736400396734569
-6.6895551995117115
-6.005951018539712
-2.392614633401999
2.197299153124285
6.6895551995117115
9.326314183260854
11.47478446631571
12.549019607843137
11.181811245899137
8.74036774242771
7.373159380483711
9.033340962844282
12.158388647287708
13.330281528953995
11.572442206454566
8.154421301594567
6.494239719233997
7.177843900205997
8.349736781872283
9.228656443121995
9.326314183260854
10.302891584649425
12.060730907148852
13.037308308537423
12.549019607843137
9.521629663538567
6.6895551995117115
5.420004577706569
5.615320057984283
6.884870679789426
6.6895551995117115
5.0293736171511405
2.5879301136797133
0.04882887006942855
-2.783245593957427
-8.252079041733426
-13.720912489509422
-16.16235599298085
-15.576409552147707
-14.795147631036851
-17.13893339436942
-19.775692378118563
-18.994430457007706
-15.283436331731137
-10.693522545204852
-7.959105821316854
-6.201266498817426
-4.736400396734569
-3.8574807354848555
-2.9785610742351416
-3.1738765545128556
-3.36919203479057
-2.197299153124285
-0.04882887006942855
1.416037232013428
-0.04882887006942855
-1.6113527122911422
-0.8300907911802854
0.537117570763714
0.7324330510414282
-1.2207217517357138
-1.7090104524299992
0.7324330510414282
4.248111696040284
6.494239719233997
4.834058136873426
0.8300907911802854
-2.783245593957427
-4.150453955901427
-1.6113527122911422
3.9551384756237127
13.720912489509422
25.92813000686656
36.27985046158541
41.74868390936141
39.79552910658427
32.95948729686427
23.19371328297856
10.400549324788281
-4.736400396734569
-21.045242999923705
-33.15480277714199
-38.1353475242237
-37.35408560311284
-33.74074921797513
-30.811017013809415
-28.27191577019913
-26.416418707560844
-25.830472266727703
-24.853894865339132
-23.096055542839704
-19.87335011825742
-14.599832150759136
-5.127031357289998
15.869382772564279
53.36995498588541
99.17143511100939
122.12100404364081
89.30800335698481
6.201266498817426
-79.73754482337682
-119.3865873197528
-104.05432211795224
-62.15915159838254
-24.95155260547799
-6.982528419928283
-3.662165255207141
-6.298924238956283
-8.44739452201114
-7.275501640344854
-5.517662317845426
-4.052796215762569
-1.2207217517357138
2.9785610742351416
7.568474860761425
8.74036774242771
7.666132600900283
6.982528419928283
8.74036774242771
13.037308308537423
14.404516670481422
10.888838025482567
6.005951018539712
6.005951018539712
12.939650568398566
20.84992751964599
23.87731746395056
20.16632333867399
12.158388647287708
5.908293278400855
4.052796215762569
8.252079041733426
15.967040512703136
22.510109102006563
25.537499046311133
23.389028763256274
16.748302433813993
6.982528419928283
-1.7090104524299992
-3.9551384756237127
-0.04882887006942855
5.127031357289998
7.080186160067139
5.615320057984283
3.662165255207141
1.1230640115968566
-1.513694972152285
-4.638742656595713
-8.935683222705425
-13.13496604867628
-16.943617914091707
-19.092088197146563
-19.48271915770199
-18.701457236591136
-16.064698252841993
-14.306858930342566
-14.599832150759136
-16.650644693675137
-17.334248874647134
-14.209201190203707
-10.400549324788281
-7.373159380483711
-4.443427176317998
-1.0254062714579995
1.7090104524299992
1.416037232013428
0.04882887006942855
-1.416037232013428
-3.466849774929427
-4.541084916456855
-3.5645075150682843
1.2207217517357138
6.884870679789426
8.545052262149996
5.615320057984283
0.34180209048599985
-3.466849774929427
-5.71297779812314
-6.103608758678568
-1.513694972152285
5.810635538261997
11.08415350576028
10.595864805065995
6.005951018539712
2.0996414129854277
0.04882887006942855
0.7324330510414282
3.5645075150682843
5.517662317845426
5.908293278400855
4.834058136873426
5.0293736171511405
6.494239719233997
6.982528419928283
6.494239719233997
5.615320057984283
6.591897459372854
7.177843900205997
3.466849774929427
-3.1738765545128556
-8.05676356145571
-5.908293278400855
1.2207217517357138
6.787212939650568
7.763790341039139
4.541084916456855
1.3183794918745708
-0.537117570763714
-1.9043259327077133
-2.0996414129854277
-2.0996414129854277
-1.3183794918745708
0.04882887006942855
1.513694972152285
2.9785610742351416
1.6113527122911422
-2.0996414129854277
-6.494239719233997
-9.228656443121995
-7.861448081177996
-3.9551384756237127
0.6347753109025711
4.345769436179141
7.177843900205997
10.888838025482567
14.892805371175708
19.092088197146563
22.60776684214542
25.24452582589456
27.783627069504846
27.881284809643702
23.682001983672848
13.81857022964828
-0.537117570763714
-16.064698252841993
-30.908674753948272
-41.26039520866713
-44.97138933394369
-42.92057679102769
-37.15877012283513
-31.494621194781413
-26.416418707560844
-21.728847180895706
-17.13893339436942
-8.44739452201114
10.009918364232853
45.947966735332265
94.19089036392768
127.00389105058366
110.40207522697796
35.69390402075227
-60.987258716716255
-125.24605172808423
-128.17578393224994
-85.0110627908751
-35.49858854047456
-5.224689097428855
2.783245593957427
-0.8300907911802854
-5.224689097428855
-6.591897459372854
-4.736400396734569
-1.0254062714579995
2.392614633401999
5.0293736171511405
5.810635538261997
6.103608758678568
5.420004577706569
2.68558785381857
-0.24414435034714274
-2.5879301136797133
-2.0996414129854277
1.1230640115968566
4.834058136873426
7.568474860761425
8.545052262149996
9.619287403677424
10.79118028534371
10.693522545204852
10.10757610437171
9.521629663538567
10.595864805065995
13.13496604867628
14.599832150759136
14.209201190203707
12.158388647287708
10.986495765621424
10.79118028534371
10.009918364232853
8.935683222705425
7.568474860761425
8.252079041733426
10.79118028534371
13.720912489509422
15.967040512703136
15.869382772564279
14.892805371175708
13.13496604867628
10.009918364232853
7.373159380483711
5.71297779812314
5.224689097428855
4.345769436179141
1.416037232013428
-3.2715342946517127
-10.302891584649425
-16.45532921339742
-19.678034637979707
-20.55695429922942
-20.068665598535134
-20.068665598535134
-19.385061417563133
-16.748302433813993
-12.45136186770428
-7.763790341039139
-5.420004577706569
-4.931715877012284
-5.71297779812314
-6.494239719233997
-5.127031357289998
-2.9785610742351416
-0.6347753109025711
0.7324330510414282
1.513694972152285
3.076218814373999
4.345769436179141
5.224689097428855
5.224689097428855
3.5645075150682843
1.513694972152285
-0.7324330510414282
-0.24414435034714274
3.7598229953459983
8.838025482566568
10.498207064927138
5.615320057984283
-1.7090104524299992
-6.591897459372854
-7.275501640344854
-4.638742656595713
-2.197299153124285
-0.9277485313191425
-0.9277485313191425
-2.2949568932631417
-3.662165255207141
-5.322346837567712
-5.517662317845426
-4.150453955901427
-1.7090104524299992
1.513694972152285
3.7598229953459983
5.322346837567712
6.787212939650568
7.568474860761425
6.591897459372854
2.8809033340962844
-0.6347753109025711
-1.7090104524299992
-0.43945983062485694
2.0019836728465705
2.2949568932631417
0.04882887006942855
-4.443427176317998
-9.228656443121995
-11.08415350576028
-8.74036774242771
-1.513694972152285
6.884870679789426
11.279468986037996
10.400549324788281
5.0293736171511405
-0.9277485313191425
-5.71297779812314
-8.642710002288853
-9.326314183260854
-8.44739452201114
-5.0293736171511405
-1.3183794918745708
-1.1230640115968566
-4.345769436179141
-8.545052262149996
-6.6895551995117115
7.470817120622568
38.62363622491798
85.49935149156939
130.5195696955825
142.14084077210651
94.48386358434425
-3.466849774929427
-101.41756313420309
-146.53543907835507
-126.80857557030595
-74.75700007629511
-30.127412832837415
-8.74036774242771
-5.71297779812314
-8.349736781872283
-10.009918364232853
-9.521629663538567
-6.6895551995117115
-3.8574807354848555
-1.0254062714579995
1.9043259327077133
4.541084916456855
6.494239719233997
6.201266498817426
4.736400396734569
2.8809033340962844
1.0254062714579995
0.9277485313191425
1.513694972152285
3.076218814373999
5.810635538261997
8.545052262149996
10.595864805065995
10.498207064927138
10.10757610437171
10.10757610437171
10.302891584649425
11.377126726176853
12.45136186770428
13.525597009231708
14.11154345006485
13.330281528953995
11.767757686732281
8.74036774242771
5.71297779812314
2.9785610742351416
0.04882887006942855
-2.0019836728465705
-3.8574807354848555
-4.150453955901427
-2.8809033340962844
-1.0254062714579995
1.0254062714579995
1.9043259327077133
1.7090104524299992
-0.6347753109025711
-6.298924238956283
-12.939650568398566
-18.310826276035705
-19.971007858396277
-19.775692378118563
-20.55695429922942
-21.826504921034562
-22.21713588158999
-19.385061417563133
-14.795147631036851
-11.181811245899137
-8.545052262149996
-7.275501640344854
-5.615320057984283
-3.5645075150682843
-1.7090104524299992
-0.43945983062485694
-0.6347753109025711
0.04882887006942855
1.6113527122911422
3.1738765545128556
4.736400396734569
5.517662317845426
6.298924238956283
7.275501640344854
7.763790341039139
6.884870679789426
3.9551384756237127
1.7090104524299992
1.416037232013428
2.5879301136797133
4.736400396734569
6.201266498817426
7.568474860761425
9.228656443121995
9.912260624093996
9.130998702983138
5.810635538261997
2.5879301136797133
0.14648661020828566
-2.392614633401999
-4.248111696040284
-5.224689097428855
-3.9551384756237127
-1.1230640115968566
0.537117570763714
0.34180209048599985
-1.6113527122911422
-2.2949568932631417
-0.34180209048599985
2.783245593957427
6.298924238956283
7.275501640344854
6.005951018539712
3.5645075150682843
1.6113527122911422
0.8300907911802854
-1.3183794918745708
-5.420004577706569
-10.302891584649425
-12.84199282825971
-10.10757610437171
-3.36919203479057
5.224689097428855
12.939650568398566
16.84596017395285
15.381094071869994
7.959105821316854
-1.1230640115968566
-8.642710002288853
-12.646677347981994
-11.670099946593423
-7.177843900205997
-0.9277485313191425
3.36919203479057
3.1738765545128556
-1.0254062714579995
-6.494239719233997
-4.931715877012284
10.10757610437171
42.13931486991684
89.7962920576791
134.52353704127566
140.5783169298848
80.12817578393225
-26.514076447699704
-117.04280155642023
-143.5080491340505
-108.74189364461738
-54.15121690699626
-16.748302433813993
-4.443427176317998
-7.666132600900283
-12.646677347981994
-13.81857022964828
-12.939650568398566
-11.767757686732281
-10.986495765621424
-8.935683222705425
-6.298924238956283
-3.8574807354848555
-0.9277485313191425
1.0254062714579995
3.2715342946517127
6.298924238956283
9.326314183260854
10.888838025482567
9.71694514381628
7.861448081177996
6.103608758678568
4.248111696040284
3.7598229953459983
4.248111696040284
6.201266498817426
9.228656443121995
12.158388647287708
13.81857022964828
13.037308308537423
12.353704127565424
12.74433508812085
13.13496604867628
13.427939269092851
11.963073167009995
10.009918364232853
8.74036774242771
9.033340962844282
10.79118028534371
11.377126726176853
11.181811245899137
10.205233844510566
8.935683222705425
8.252079041733426
6.494239719233997
3.2715342946517127
-1.2207217517357138
-6.005951018539712
-9.619287403677424
-13.81857022964828
-18.11551079575799
-21.826504921034562
-23.974975204089418
-22.803082322423133
-20.068665598535134
-16.55298695353628
-13.232623788815136
-10.888838025482567
-9.326314183260854
-9.81460288395514
-11.08415350576028
-12.74433508812085
-14.209201190203707
-13.232623788815136
-10.302891584649425
-5.224689097428855
0.537117570763714
5.0293736171511405
7.275501640344854
6.982528419928283
6.494239719233997
5.420004577706569
2.490272373540856
-0.14648661020828566
-1.416037232013428
0.34180209048599985
3.8574807354848555
6.298924238956283
6.494239719233997
4.443427176317998
3.2715342946517127
3.466849774929427
2.490272373540856
0.14648661020828566
-2.68558785381857
-2.5879301136797133
1.416037232013428
7.568474860761425
12.45136186770428
13.81857022964828
14.892805371175708
17.43190661478599
21.338216220340275
26.514076447699704
30.811017013809415
32.471198596169984
29.150835431448844
21.045242999923705
10.009918364232853
-4.345769436179141
-19.971007858396277
-34.0337224383917
-43.70183871213855
-47.21751735713741
-45.654993514915695
-39.11192492561227
-29.834439612420844
-21.533531700617992
-16.650644693675137
-16.943617914091707
-19.385061417563133
-20.55695429922942
-15.869382772564279
2.490272373540856
39.20958266575113
88.13611047531853
122.02334630350195
108.05828946364538
40.57679102769512
-46.04562447547112
-100.0503547722591
-99.56206607156481
-64.69825284199283
-27.881284809643702
-8.349736781872283
-3.2715342946517127
-3.8574807354848555
-4.248111696040284
-2.783245593957427
-2.2949568932631417
-2.68558785381857
-3.662165255207141
-4.150453955901427
-2.197299153124285
0.537117570763714
3.2715342946517127
5.322346837567712
6.884870679789426
8.642710002288853
9.228656443121995
9.521629663538567
9.42397192339971
9.228656443121995
10.205233844510566
11.377126726176853
13.330281528953995
16.357671473258563
19.092088197146563
19.971007858396277
16.943617914091707
13.330281528953995
11.377126726176853
10.888838025482567
11.47478446631571
12.256046387426567
14.599832150759136
17.920195315480278
20.263981078812847
20.16632333867399
16.84596017395285
13.525597009231708
11.279468986037996
8.935683222705425
6.787212939650568
4.638742656595713
2.8809033340962844
0.43945983062485694
-3.36919203479057
-7.666132600900283
-12.646677347981994
-16.748302433813993
-19.971007858396277
-21.826504921034562
-21.533531700617992
-20.263981078812847
-18.506141756313422
-16.943617914091707
-15.967040512703136
-14.892805371175708
-14.306858930342566
-12.74433508812085
-10.693522545204852
-9.130998702983138
-7.666132600900283
-6.298924238956283
-3.076218814373999
1.7090104524299992
6.103608758678568
7.177843900205997
3.36919203479057
-1.3183794918745708
-3.9551384756237127
-3.8574807354848555
-1.3183794918745708
1.1230640115968566
2.68558785381857
2.8809033340962844
2.392614633401999
2.0996414129854277
1.0254062714579995
0.537117570763714
1.7090104524299992
5.0293736171511405
11.377126726176853
18.701457236591136
25.537499046311133
30.811017013809415
33.74074921797513
33.44777599755856
27.68596932936599
18.506141756313422
8.252079041733426
-1.6113527122911422
-10.693522545204852
-20.068665598535134
-28.467231250476843
-35.4009308003357
-39.40489814602884
-39.11192492561227
-35.889219501029984
-30.420386053253985
-24.267948424505988
-18.40848401617456
-12.353704127565424
-8.349736781872283
-5.517662317845426
0.14648661020828566
17.236591134508277
52.39337758449683
96.53467612726024
122.02334630350195
98.19485770962082
24.4632639047837
-58.54581521324483
-104.1519798580911
-97.51125352864881
-62.15915159838254
-29.541466392004274
-13.525597009231708
-11.47478446631571
-13.330281528953995
-13.720912489509422
-12.74433508812085
-10.986495765621424
-9.81460288395514
-7.080186160067139
-2.0019836728465705
2.9785610742351416
5.810635538261997
4.931715877012284
3.8574807354848555
4.052796215762569
5.517662317845426
8.642710002288853
12.158388647287708
15.967040512703136
18.60379949645228
18.89677271686885
16.84596017395285
12.353704127565424
7.861448081177996
4.541084916456855
2.783245593957427
3.36919203479057
5.0293736171511405
8.252079041733426
12.74433508812085
17.041275654230564
19.48271915770199
18.310826276035705
15.869382772564279
13.916227969787137
12.646677347981994
12.256046387426567
10.986495765621424
9.228656443121995
6.6895551995117115
3.8574807354848555
1.513694972152285
-1.3183794918745708
-3.7598229953459983
-6.201266498817426
-9.521629663538567
-13.037308308537423
-16.748302433813993
-18.40848401617456
-18.21316853589685
-17.334248874647134
-17.13893339436942
-18.994430457007706
-20.45929655909056
-19.385061417563133
-14.795147631036851
-6.982528419928283
-0.04882887006942855
3.466849774929427
3.1738765545128556
0.43945983062485694
-1.6113527122911422
-2.5879301136797133
-1.7090104524299992
-0.7324330510414282
-0.9277485313191425
-0.8300907911802854
-0.537117570763714
0.14648661020828566
0.537117570763714
0.24414435034714274
0.24414435034714274
0.537117570763714
2.2949568932631417
3.7598229953459983
2.8809033340962844
1.7090104524299992
1.513694972152285
3.8574807354848555
6.6895551995117115
8.642710002288853
10.595864805065995
13.037308308537423
17.627222095063708
22.60776684214542
25.146868085755703
24.853894865339132
22.119478141451133
18.89677271686885
13.81857022964828
6.201266498817426
-2.5879301136797133
-13.037308308537423
-23.974975204089418
-34.91264209964141
-42.529945830472265
-42.236972610055695
-36.182192721446555
-28.564888990615703
-21.826504921034562
-14.404516670481422
-6.6895551995117115
-3.662165255207141
-4.638742656595713
-2.0019836728465705
17.13893339436942
57.95986877241169
99.46440833142596
104.54261081864652
51.90508888380255
-32.08056763561456
-93.80025940337224
-105.61684596017395
-81.20241092545967
-50.04959182116426
-26.61173418783856
-10.79118028534371
-3.466849774929427
-2.490272373540856
-2.0996414129854277
1.416037232013428
4.931715877012284
2.68558785381857
-1.7090104524299992
-2.0019836728465705
3.076218814373999
10.302891584649425
13.037308308537423
11.181811245899137
8.545052262149996
8.252079041733426
10.009918364232853
10.498207064927138
10.79118028534371
11.47478446631571
12.549019607843137
14.892805371175708
16.84596017395285
18.11551079575799
18.40848401617456
18.21316853589685
18.506141756313422
18.21316853589685
18.017853055619135
16.84596017395285
13.720912489509422
11.08415350576028
10.693522545204852
13.720912489509422
17.236591134508277
17.627222095063708
14.599832150759136
8.545052262149996
3.5645075150682843
1.0254062714579995
-0.24414435034714274
-1.0254062714579995
-2.392614633401999
-3.2715342946517127
-4.931715877012284
-9.130998702983138
-15.674067292286564
-23.779659723811704
-28.857862211032273
-29.736781872281988
-27.783627069504846
-24.365606164644845
-21.826504921034562
-18.994430457007706
-14.990463111314565
-10.009918364232853
-5.224689097428855
-2.783245593957427
-1.0254062714579995
0.537117570763714
1.7090104524299992
2.783245593957427
2.9785610742351416
3.7598229953459983
5.810635538261997
8.154421301594567
9.42397192339971
7.666132600900283
5.517662317845426
4.736400396734569
5.615320057984283
7.763790341039139
8.349736781872283
6.787212939650568
3.466849774929427
0.8300907911802854
0.537117570763714
0.7324330510414282
1.416037232013428
2.197299153124285
3.7598229953459983
8.05676356145571
14.50217441062028
22.510109102006563
30.127412832837415
35.49858854047456
36.37750820172427
30.029755092698558
19.58037689784085
8.642710002288853
-1.9043259327077133
-13.330281528953995
-26.318760967421987
-36.86579690241855
-42.33463035019455
-42.13931486991684
-38.23300526436255
-34.91264209964141
-33.05714503700313
-32.56885633630884
-32.37354085603113
-30.908674753948272
-28.857862211032273
-24.853894865339132
-15.283436331731137
7.275501640344854
47.90112153810941
93.8979171435111
115.77325093461509
85.59700923170824
8.642710002288853
-70.94834821087969
-107.96063172350652
-91.1635004196231
-47.31517509727627
-9.228656443121995
8.349736781872283
7.373159380483711
-0.9277485313191425
-8.935683222705425
-12.84199282825971
-11.181811245899137
-6.787212939650568
-1.1230640115968566
3.36919203479057
5.420004577706569
5.71297779812314
4.931715877012284
6.005951018539712
8.642710002288853
10.693522545204852
10.888838025482567
8.545052262149996
7.177843900205997
8.642710002288853
11.963073167009995
14.990463111314565
16.064698252841993
17.236591134508277
17.236591134508277
14.306858930342566
10.302891584649425
7.177843900205997
7.177843900205997
8.642710002288853
10.205233844510566
12.060730907148852
13.427939269092851
15.869382772564279
17.627222095063708
16.84596017395285
14.306858930342566
11.279468986037996
10.009918364232853
9.912260624093996
9.619287403677424
8.252079041733426
3.662165255207141
-2.0996414129854277
-7.373159380483711
-11.279468986037996
-13.232623788815136
-14.50217441062028
-14.50217441062028
-14.11154345006485
-13.720912489509422
-13.720912489509422
-15.185778591592278
-16.064698252841993
-15.869382772564279
-14.306858930342566
-11.279468986037996
-8.545052262149996
-6.39658197909514
-5.71297779812314
-6.201266498817426
-7.080186160067139
-8.252079041733426
-7.470817120622568
-5.322346837567712
-3.076218814373999
-0.24414435034714274
1.9043259327077133
3.7598229953459983
4.150453955901427
3.662165255207141
3.9551384756237127
4.150453955901427
4.638742656595713
4.150453955901427
2.0996414129854277
-0.04882887006942855
-1.1230640115968566
1.0254062714579995
6.884870679789426
15.185778591592278
24.072632944228275
29.736781872281988
32.56885633630884
32.86182955672541
30.518043793392845
26.514076447699704
20.654612039368278
13.13496604867628
2.0019836728465705
-12.45136186770428
-26.807049668116274
-38.42832074464027
-44.38544289311055
-44.77607385366598
-41.16273746852827
-34.717326619363696
-28.369573510337986
-22.90074006256199
-19.287403677424276
-18.017853055619135
-18.310826276035705
-17.041275654230564
-4.834058136873426
26.709391927977418
76.51483939879454
123.78118562600137
132.1797512779431
81.30006866559853
-8.838025482566568
-84.91340505073624
-107.37468528267338
-82.27664606698711
-41.84634164950027
-14.599832150759136
-7.763790341039139
-12.158388647287708
-17.920195315480278
-18.701457236591136
-15.088120851453422
-10.009918364232853
-5.517662317845426
-2.783245593957427
-0.04882887006942855
2.0996414129854277
2.5879301136797133
1.9043259327077133
-0.34180209048599985
-1.2207217517357138
1.3183794918745708
6.591897459372854
11.08415350576028
10.986495765621424
9.033340962844282
7.861448081177996
8.252079041733426
10.009918364232853
11.181811245899137
12.45136186770428
14.11154345006485
16.16235599298085
17.724879835202564
17.52956435492485
17.43190661478599
17.724879835202564
18.21316853589685
18.89677271686885
18.799114976729992
18.994430457007706
19.18974593728542
19.18974593728542
18.40848401617456
15.576409552147707
12.84199282825971
10.009918364232853
5.908293278400855
0.7324330510414282
-4.638742656595713
-8.545052262149996
-12.060730907148852
-15.576409552147707
-17.920195315480278
-19.385061417563133
-19.48271915770199
-20.55695429922942
-23.19371328297856
-24.853894865339132
-23.779659723811704
-18.994430457007706
-12.74433508812085
-7.373159380483711
-3.662165255207141
-1.9043259327077133
-0.6347753109025711
-0.537117570763714
-2.0019836728465705
-2.5879301136797133
-1.7090104524299992
1.513694972152285
5.810635538261997
8.935683222705425
9.326314183260854
5.810635538261997
1.3183794918745708
-3.076218814373999
-7.275501640344854
-9.521629663538567
-9.42397192339971
-6.201266498817426
-1.416037232013428
3.2715342946517127
6.884870679789426
8.44739452201114
10.400549324788281
14.209201190203707
19.678034637979707
26.025787747005417
31.201647974364842
33.93606469825284
32.471198596169984
27.392996108949415
19.287403677424276
6.494239719233997
-9.130998702983138
-25.049210345616846
-37.06111238269627
-42.13931486991684
-41.45571068894484
-36.0845349813077
-29.541466392004274
-24.65857938506142
-22.510109102006563
-22.314793621728846
-21.045242999923705
-19.58037689784085
-19.287403677424276
-15.674067292286564
-1.3183794918745708
32.95948729686427
82.56961928740368
119.97253376058595
109.62081330586709
41.651026169222554
-45.75265125505455
-100.44098573281453
-101.12458991378652
-66.3584344243534
-29.346150911726557
-7.568474860761425
-2.0996414129854277
-5.615320057984283
-10.302891584649425
-12.74433508812085
-10.986495765621424
-7.373159380483711
-4.248111696040284
-1.2207217517357138
0.6347753109025711
2.0996414129854277
3.1738765545128556
4.150453955901427
5.224689097428855
5.127031357289998
5.0293736171511405
5.127031357289998
5.517662317845426
7.763790341039139
10.498207064927138
13.037308308537423
13.81857022964828
13.13496604867628
12.45136186770428
12.45136186770428
15.283436331731137
19.092088197146563
20.752269779507134
19.18974593728542
14.892805371175708
10.693522545204852
7.666132600900283
6.39658197909514
7.080186160067139
8.154421301594567
9.912260624093996
10.986495765621424
10.205233844510566
8.545052262149996
6.591897459372854
5.908293278400855
5.615320057984283
4.638742656595713
2.0996414129854277
-3.9551384756237127
-11.181811245899137
-16.84596017395285
-18.701457236591136
-16.357671473258563
-13.427939269092851
-11.08415350576028
-10.595864805065995
-11.572442206454566
-13.037308308537423
-14.697489890897993
-14.209201190203707
-11.865415426871138
-8.74036774242771
-5.420004577706569
-3.2715342946517127
-1.3183794918745708
0.34180209048599985
2.392614633401999
5.322346837567712
8.05676356145571
10.693522545204852
10.79118028534371
7.959105821316854
4.541084916456855
2.490272373540856
3.36919203479057
5.322346837567712
6.6895551995117115
6.298924238956283
2.783245593957427
-0.8300907911802854
-2.197299153124285
0.6347753109025711
8.154421301594567
16.748302433813993
23.87731746395056
27.881284809643702
30.22507057297627
31.396963454642556
28.95551995117113
23.682001983672848
16.357671473258563
7.275501640344854
-3.662165255207141
-16.650644693675137
-27.783627069504846
-34.32669565880827
-35.303273060196844
-33.05714503700313
-31.68993667505913
-31.2993057145037
-31.2993057145037
-29.9320973525597
-26.22110322728313
-22.510109102006563
-18.89677271686885
-13.330281528953995
-0.34180209048599985
26.807049668116274
67.33501182574197
104.05432211795224
105.0308995193408
53.760585946440834
-25.049210345616846
-83.35088120851454
-91.55413138017853
-62.15915159838254
-26.709391927977418
-6.591897459372854
-4.541084916456855
-9.42397192339971
-12.646677347981994
-11.47478446631571
-7.177843900205997
-3.2715342946517127
0.04882887006942855
2.68558785381857
4.736400396734569
5.810635538261997
4.834058136873426
4.541084916456855
5.0293736171511405
6.005951018539712
8.252079041733426
10.79118028534371
14.209201190203707
16.650644693675137
16.84596017395285
15.088120851453422
12.84199282825971
13.427939269092851
15.47875181200885
16.748302433813993
17.13893339436942
16.45532921339742
16.84596017395285
17.82253757534142
18.701457236591136
18.994430457007706
17.52956435492485
15.381094071869994
12.45136186770428
9.912260624093996
9.912260624093996
11.572442206454566
12.939650568398566
11.767757686732281
9.033340962844282
6.103608758678568
2.2949568932631417
-0.7324330510414282
-3.36919203479057
-6.005951018539712
-8.349736781872283
-11.279468986037996
-13.330281528953995
-14.795147631036851
-15.576409552147707
-15.47875181200885
-15.185778591592278
-13.525597009231708
-11.47478446631571
-9.130998702983138
-5.420004577706569
-2.392614633401999
-1.1230640115968566
-2.2949568932631417
-3.9551384756237127
-5.127031357289998
-6.494239719233997
-6.591897459372854
-5.71297779812314
-4.638742656595713
-3.8574807354848555
-5.0293736171511405
-6.787212939650568
-7.763790341039139
-7.275501640344854
-5.71297779812314
-4.443427176317998
-2.2949568932631417
-0.6347753109025711
0.04882887006942855
1.513694972152285
4.052796215762569
7.666132600900283
10.595864805065995
12.84199282825971
15.185778591592278
17.236591134508277
20.654612039368278
23.682001983672848
23.779659723811704
20.068665598535134
12.84199282825971
4.052796215762569
-6.6895551995117115
-19.287403677424276
-32.178225375753414
-43.99481193255512
-50.53788052185855
-51.123826962691695
-47.31517509727627
-40.96742198825055
-34.81498435950255
-28.95551995117113
-24.756237125200276
-23.096055542839704
-23.682001983672848
-23.096055542839704
-11.08415350576028
20.16632333867399
64.89356832227054
97.02296482795452
85.20637827115281
26.61173418783856
-45.069047074082555
-86.28061341268025
-81.78835736629281
-51.80743114366369
-22.60776684214542
-8.838025482566568
-8.44739452201114
-12.353704127565424
-14.990463111314565
-13.81857022964828
-11.08415350576028
-8.154421301594567
-5.71297779812314
-5.420004577706569
-5.615320057984283
-5.71297779812314
-4.834058136873426
-2.0996414129854277
1.513694972152285
6.884870679789426
12.353704127565424
16.064698252841993
16.748302433813993
13.330281528953995
9.521629663538567
8.154421301594567
10.400549324788281
14.404516670481422
16.260013733119706
16.55298695353628
17.724879835202564
21.045242999923705
24.267948424505988
23.974975204089418
21.92416266117342
19.775692378118563
18.506141756313422
18.21316853589685
17.627222095063708
17.041275654230564
15.869382772564279
14.795147631036851
13.81857022964828
11.767757686732281
10.498207064927138
9.521629663538567
7.470817120622568
4.052796215762569
-0.6347753109025711
-4.541084916456855
-7.373159380483711
-9.033340962844282
-10.498207064927138
-13.427939269092851
-16.748302433813993
-19.678034637979707
-20.752269779507134
-18.506141756313422
-14.697489890897993
-11.08415350576028
-10.302891584649425
-11.767757686732281
-13.525597009231708
-15.674067292286564
-16.064698252841993
-14.50217441062028
-10.888838025482567
-6.005951018539712
-2.2949568932631417
0.537117570763714
3.076218814373999
5.615320057984283
6.982528419928283
4.638742656595713
0.7324330510414282
-2.5879301136797133
-3.8574807354848555
-2.197299153124285
0.34180209048599985
3.076218814373999
5.0293736171511405
7.177843900205997
9.619287403677424
10.10757610437171
10.009918364232853
11.47478446631571
16.55298695353628
25.049210345616846
32.6665140764477
35.79156176089113
32.37354085603113
23.87731746395056
12.549019607843137
-2.0019836728465705
-17.82253757534142
-32.37354085603113
-41.84634164950027
-43.50652323186084
-39.307240405889985
-31.9829098954757
-25.537499046311133
-21.24055848020142
-18.310826276035705
-17.334248874647134
-16.943617914091707
-17.041275654230564
-15.088120851453422
-5.127031357289998
19.385061417563133
60.401312275883114
99.85503929198138
107.5700007629511
67.13969634546426
-2.5879301136797133
-58.44815747310597
-74.26871137560083
-57.08094911116198
-29.9320973525597
-11.181811245899137
-3.8574807354848555
-3.7598229953459983
-4.443427176317998
-2.5879301136797133
0.7324330510414282
5.615320057984283
9.326314183260854
10.693522545204852
10.888838025482567
10.205233844510566
9.42397192339971
7.763790341039139
6.103608758678568
5.615320057984283
5.908293278400855
7.959105821316854
10.595864805065995
13.037308308537423
15.771725032425422
17.82253757534142
19.287403677424276
19.48271915770199
19.092088197146563
17.82253757534142
14.209201190203707
10.205233844510566
7.080186160067139
5.517662317845426
5.420004577706569
5.322346837567712
5.810635538261997
6.787212939650568
8.838025482566568
10.400549324788281
7.861448081177996
2.68558785381857
-1.9043259327077133
-2.8809033340962844
0.04882887006942855
3.36919203479057
4.541084916456855
1.0254062714579995
-4.931715877012284
-10.595864805065995
-15.185778591592278
-17.52956435492485
-18.799114976729992
-18.799114976729992
-16.55298695353628
-13.232623788815136
-9.81460288395514
-8.935683222705425
-10.693522545204852
-13.525597009231708
-15.869382772564279
-14.990463111314565
-11.767757686732281
-7.666132600900283
-3.8574807354848555
-2.0996414129854277
-1.6113527122911422
-1.0254062714579995
1.416037232013428
4.345769436179141
4.150453955901427
2.0996414129854277
0.04882887006942855
-0.43945983062485694
1.416037232013428
3.9551384756237127
5.71297779812314
5.0293736171511405
3.466849774929427
3.2715342946517127
4.248111696040284
6.982528419928283
9.42397192339971
11.181811245899137
14.209201190203707
18.799114976729992
24.756237125200276
29.443808651865414
32.27588311589227
32.95948729686427
30.420386053253985
25.537499046311133
16.16235599298085
-0.14648661020828566
-21.826504921034562
-41.358052948805984
-50.34256504158083
-48.97535667963683
-42.04165712977798
-35.10795757991913
-31.592278934920273
-29.443808651865414
-27.392996108949415
-24.4632639047837
-20.361638818951704
-17.041275654230564
-12.939650568398566
-3.36919203479057
20.263981078812847
58.936446173800256
91.65178912031739
89.1126878767071
41.651026169222554
-23.48668650339513
-65.77248798352025
-68.11627374685283
-44.28778515297169
-19.48271915770199
-6.39658197909514
-4.052796215762569
-7.275501640344854
-9.228656443121995
-8.349736781872283
-4.736400396734569
0.34180209048599985
3.8574807354848555
4.931715877012284
3.662165255207141
2.5879301136797133
2.8809033340962844
3.36919203479057
5.420004577706569
8.154421301594567
10.888838025482567
13.623254749370565
15.283436331731137
16.84596017395285
17.52956435492485
17.334248874647134
15.185778591592278
10.009918364232853
5.0293736171511405
2.392614633401999
3.36919203479057
7.568474860761425
12.158388647287708
15.674067292286564
16.357671473258563
15.185778591592278
12.939650568398566
8.642710002288853
4.638742656595713
2.2949568932631417
2.5879301136797133
4.931715877012284
7.080186160067139
8.44739452201114
8.154421301594567
7.177843900205997
6.591897459372854
4.638742656595713
1.6113527122911422
-3.662165255207141
-10.595864805065995
-17.13893339436942
-22.21713588158999
-23.974975204089418
-22.412451361867703
-18.017853055619135
-13.232623788815136
-11.572442206454566
-11.963073167009995
-12.353704127565424
-10.400549324788281
-5.908293278400855
-2.0019836728465705
0.14648661020828566
0.43945983062485694
-0.14648661020828566
-1.513694972152285
-4.052796215762569
-4.736400396734569
-3.36919203479057
-0.7324330510414282
2.197299153124285
4.345769436179141
6.103608758678568
6.103608758678568
3.7598229953459983
-0.24414435034714274
-5.322346837567712
-7.666132600900283
-6.787212939650568
-3.8574807354848555
-0.24414435034714274
2.68558785381857
6.884870679789426
13.330281528953995
21.63118944075685
28.95551995117113
31.494621194781413
30.908674753948272
29.053177691309987
26.22110322728313
20.361638818951704
9.912260624093996
-2.2949568932631417
-14.404516670481422
-24.4632639047837
-32.56885633630884
-39.11192492561227
-40.38147554741741
-35.69390402075227
-26.807049668116274
-17.041275654230564
-10.400549324788281
-7.080186160067139
-7.080186160067139
-8.05676356145571
-7.275501640344854
-0.14648661020828566
22.412451361867703
59.91302357518883
90.96818493934539
86.28061341268025
39.014267185473415
-21.24055848020142
-58.54581521324483
-60.30365453574426
-40.57679102769512
-20.55695429922942
-9.326314183260854
-7.861448081177996
-10.888838025482567
-12.549019607843137
-11.767757686732281
-9.42397192339971
-8.252079041733426
-7.861448081177996
-7.666132600900283
-8.545052262149996
-8.154421301594567
-6.982528419928283
-5.224689097428855
-2.392614633401999
0.43945983062485694
3.5645075150682843
6.103608758678568
9.130998702983138
12.646677347981994
14.990463111314565
17.13893339436942
18.11551079575799
18.11551079575799
18.11551079575799
18.310826276035705
19.58037689784085
20.752269779507134
21.92416266117342
22.314793621728846
20.947585259784848
20.068665598535134
20.068665598535134
20.654612039368278
21.63118944075685
22.705424582284277
24.365606164644845
24.072632944228275
21.63118944075685
17.334248874647134
10.400549324788281
3.36919203479057
-2.0019836728465705
-4.931715877012284
-6.298924238956283
-8.349736781872283
-10.400549324788281
-12.549019607843137
-13.427939269092851
-12.84199282825971
-13.330281528953995
-14.306858930342566
-15.674067292286564
-16.16235599298085
-14.697489890897993
-12.060730907148852
-8.44739452201114
-6.39658197909514
-6.298924238956283
-7.568474860761425
-9.130998702983138
-9.033340962844282
-7.666132600900283
-5.322346837567712
-2.197299153124285
-0.14648661020828566
0.6347753109025711
0.7324330510414282
1.513694972152285
1.0254062714579995
-3.2715342946517127
-8.349736781872283
-10.888838025482567
-9.71694514381628
-6.884870679789426
-5.71297779812314
-5.908293278400855
-6.298924238956283
-4.248111696040284
0.7324330510414282
6.298924238956283
11.963073167009995
15.869382772564279
18.11551079575799
19.48271915770199
19.775692378118563
18.994430457007706
14.013885709925994
3.5645075150682843
-11.47478446631571
-27.783627069504846
-38.62363622491798
-41.943999389639124
-38.72129396505684
-31.396963454642556
-24.17029068436713
-19.385061417563133
-18.799114976729992
-20.068665598535134
-19.971007858396277
-17.627222095063708
-12.158388647287708
-4.541084916456855
10.10757610437171
40.08850232700084
79.3469138628214
101.22224765392538
78.17502098115511
16.84596017395285
-44.580758373388264
-73.19447623407339
-64.89356832227054
-40.67444876783398
-20.16632333867399
-10.009918364232853
-7.666132600900283
-7.763790341039139
-7.763790341039139
-6.982528419928283
-6.787212939650568
-8.74036774242771
-9.619287403677424
-8.05676356145571
-4.443427176317998
-1.0254062714579995
-0.7324330510414282
-2.5879301136797133
-4.638742656595713
-4.150453955901427
-1.9043259327077133
-0.9277485313191425
-0.14648661020828566
1.0254062714579995
3.466849774929427
6.494239719233997
8.642710002288853
10.302891584649425
11.572442206454566
13.916227969787137
17.041275654230564
17.920195315480278
16.260013733119706
12.353704127565424
9.033340962844282
8.05676356145571
8.05676356145571
7.666132600900283
5.810635538261997
4.052796215762569
2.68558785381857
0.537117570763714
-0.6347753109025711
-1.3183794918745708
-1.7090104524299992
-1.9043259327077133
-2.197299153124285
-2.197299153124285
-3.36919203479057
-5.615320057984283
-8.642710002288853
-12.158388647287708
-13.427939269092851
-13.232623788815136
-12.549019607843137
-11.377126726176853
-9.326314183260854
-5.810635538261997
-2.8809033340962844
-1.416037232013428
-1.3183794918745708
-2.0019836728465705
-1.1230640115968566
0.34180209048599985
1.9043259327077133
3.5645075150682843
4.638742656595713
5.615320057984283
5.322346837567712
4.931715877012284
5.615320057984283
6.884870679789426
9.130998702983138
9.912260624093996
7.763790341039139
3.9551384756237127
0.14648661020828566
-0.9277485313191425
-0.43945983062485694
1.0254062714579995
2.68558785381857
3.2715342946517127
4.345769436179141
6.39658197909514
10.79118028534371
18.017853055619135
26.025787747005417
32.6665140764477
34.52201113908598
31.9829098954757
25.63515678644999
14.599832150759136
0.9277485313191425
-14.013885709925994
-27.588311589227132
-37.35408560311284
-41.45571068894484
-38.525978484779124
-31.494621194781413
-24.072632944228275
-19.58037689784085
-19.385061417563133
-20.361638818951704
-20.45929655909056
-18.506141756313422
-14.306858930342566
-7.275501640344854
9.42397192339971
40.772106507972836
76.51483939879454
88.52674143587396
55.713740749217976
-5.615320057984283
-56.006713969634546
-68.4092469672694
-48.584725719081405
-21.24055848020142
-3.466849774929427
0.43945983062485694
-3.1738765545128556
-7.959105821316854
-10.986495765621424
-11.377126726176853
-11.08415350576028
-8.74036774242771
-2.490272373540856
4.736400396734569
10.10757610437171
11.279468986037996
9.81460288395514
6.298924238956283
0.43945983062485694
-3.662165255207141
-3.466849774929427
0.9277485313191425
7.080186160067139
10.986495765621424
12.549019607843137
11.670099946593423
9.71694514381628
7.568474860761425
5.0293736171511405
4.638742656595713
5.810635538261997
7.861448081177996
10.10757610437171
11.670099946593423
12.549019607843137
11.377126726176853
9.326314183260854
7.666132600900283
6.494239719233997
6.6895551995117115
6.591897459372854
5.517662317845426
3.7598229953459983
1.416037232013428
-0.04882887006942855
-1.416037232013428
-1.8066681925688564
-2.392614633401999
-5.71297779812314
-10.302891584649425
-14.697489890897993
-16.650644693675137
-16.357671473258563
-15.967040512703136
-15.185778591592278
-14.697489890897993
-13.623254749370565
-11.572442206454566
-9.619287403677424
-6.982528419928283
-4.736400396734569
-2.490272373540856
-0.24414435034714274
1.1230640115968566
2.68558785381857
3.9551384756237127
5.224689097428855
5.71297779812314
4.345769436179141
3.9551384756237127
4.736400396734569
6.103608758678568
6.787212939650568
6.005951018539712
5.517662317845426
5.908293278400855
7.861448081177996
9.912260624093996
9.71694514381628
8.44739452201114
7.275501640344854
8.252079041733426
12.646677347981994
19.092088197146563
25.63515678644999
29.150835431448844
29.443808651865414
27.100022888532845
21.14290074006256
13.720912489509422
5.71297779812314
-2.490272373540856
-11.572442206454566
-22.119478141451133
-31.787594415197987
-39.5025558861677
-43.311207751583126
-42.62760357061112
-38.62363622491798
-31.68993667505913
-24.95155260547799
-20.45929655909056
-18.11551079575799
-17.236591134508277
-15.576409552147707
-12.549019607843137
-3.8574807354848555
16.943617914091707
48.19409475852598
73.09681849393453
66.45609216449226
23.58434424353399
-29.346150911726557
-59.62005035477226
-56.006713969634546
-35.4009308003357
-17.627222095063708
-11.08415350576028
-13.525597009231708
-17.627222095063708
-19.58037689784085
-17.724879835202564
-13.232623788815136
-9.130998702983138
-5.810635538261997
-4.345769436179141
-3.8574807354848555
-3.5645075150682843
-3.8574807354848555
-2.8809033340962844
-0.34180209048599985
3.5645075150682843
7.959105821316854
10.986495765621424
13.525597009231708
15.185778591592278
16.84596017395285
18.11551079575799
17.627222095063708
17.041275654230564
16.064698252841993
14.892805371175708
14.50217441062028
14.795147631036851
16.748302433813993
18.701457236591136
20.45929655909056
21.43587396047913
20.55695429922942
19.87335011825742
19.971007858396277
21.533531700617992
24.65857938506142
27.1976806286717
27.881284809643702
24.756237125200276
19.87335011825742
15.381094071869994
10.79118028534371
6.39658197909514
1.3183794918745708
-3.36919203479057
-6.787212939650568
-8.935683222705425
-9.81460288395514
-10.986495765621424
-11.670099946593423
-11.670099946593423
-12.158388647287708
-12.353704127565424
-12.549019607843137
-11.767757686732281
-10.10757610437171
-8.642710002288853
-6.982528419928283
-6.201266498817426
-5.908293278400855
-5.908293278400855
-6.6895551995117115
-6.201266498817426
-5.322346837567712
-4.345769436179141
-3.662165255207141
-3.36919203479057
-2.5879301136797133
-2.0996414129854277
-1.7090104524299992
-1.7090104524299992
-3.076218814373999
-3.36919203479057
-2.0996414129854277
0.7324330510414282
3.662165255207141
4.443427176317998
3.466849774929427
1.3183794918745708
1.1230640115968566
4.736400396734569
10.986495765621424
19.385061417563133
26.90470740825513
30.22507057297627
26.61173418783856
16.260013733119706
2.9785610742351416
-11.279468986037996
-24.267948424505988
-34.61966887922484
-41.943999389639124
-44.28778515297169
-43.11589227130541
-38.818951705195694
-32.56885633630884
-25.732814526588847
-18.506141756313422
-12.549019607843137
-8.252079041733426
-5.908293278400855
-3.7598229953459983
6.39658197909514
31.592278934920273
67.92095826657511
93.40962844281681
81.5930418860151
30.029755092698558
-33.3501182574197
-71.1436636911574
-68.79987792782482
-41.5533684290837
-11.963073167009995
3.7598229953459983
4.638742656595713
-1.416037232013428
-5.71297779812314
-3.7598229953459983
0.14648661020828566
2.2949568932631417
2.5879301136797133
3.466849774929427
7.177843900205997
9.71694514381628
8.349736781872283
4.736400396734569
2.2949568932631417
3.466849774929427
6.103608758678568
8.545052262149996
9.521629663538567
7.666132600900283
4.541084916456855
1.513694972152285
0.43945983062485694
1.7090104524299992
3.7598229953459983
6.298924238956283
7.959105821316854
9.033340962844282
9.130998702983138
6.787212939650568
3.1738765545128556
-0.14648661020828566
-0.6347753109025711
1.9043259327077133
4.541084916456855
5.224689097428855
3.5645075150682843
2.2949568932631417
2.197299153124285
0.14648661020828566
-4.248111696040284
-9.228656443121995
-9.521629663538567
-4.541084916456855
0.34180209048599985
1.3183794918745708
-3.1738765545128556
-9.81460288395514
-15.674067292286564
-20.263981078812847
-22.21713588158999
-22.119478141451133
-18.60379949645228
-12.256046387426567
-6.591897459372854
-3.076218814373999
-1.7090104524299992
-0.14648661020828566
1.416037232013428
1.3183794918745708
1.8066681925688564
4.443427176317998
10.009918364232853
16.45532921339742
20.16632333867399
19.58037689784085
13.916227969787137
7.568474860761425
4.541084916456855
4.248111696040284
5.0293736171511405
3.9551384756237127
1.7090104524299992
0.34180209048599985
0.537117570763714
1.8066681925688564
0.6347753109025711
-3.1738765545128556
-7.470817120622568
-10.10757610437171
-9.326314183260854
-7.470817120622568
-6.787212939650568
-7.666132600900283
-9.033340962844282
-8.349736781872283
-5.810635538261997
-1.8066681925688564
2.392614633401999
4.736400396734569
5.908293278400855
6.591897459372854
7.763790341039139
9.521629663538567
10.888838025482567
12.646677347981994
14.599832150759136
17.334248874647134
19.18974593728542
18.60379949645228
17.627222095063708
17.82253757534142
19.092088197146563
20.16632333867399
19.287403677424276
16.650644693675137
10.498207064927138
2.392614633401999
-5.810635538261997
-14.404516670481422
-22.60776684214542
-29.63912413214313
-32.37354085603113
-29.736781872281988
-24.95155260547799
-20.263981078812847
-17.041275654230564
-13.525597009231708
-9.71694514381628
-6.39658197909514
0.24414435034714274
16.16235599298085
47.705806057831694
91.65178912031739
124.66010528725108
113.2341496910048
42.62760357061112
-54.639505607690545
-122.6092927443351
-131.59380483710993
-94.77683680476082
-48.19409475852598
-16.357671473258563
-3.36919203479057
-2.5879301136797133
-5.322346837567712
-7.763790341039139
-8.838025482566568
-10.302891584649425
-13.427939269092851
-15.576409552147707
-15.674067292286564
-13.037308308537423
-8.44739452201114
-3.5645075150682843
1.513694972152285
5.810635538261997
9.033340962844282
10.205233844510566
7.959105821316854
4.541084916456855
1.8066681925688564
2.2949568932631417
6.298924238956283
10.302891584649425
12.549019607843137
12.45136186770428
12.060730907148852
11.767757686732281
10.79118028534371
10.693522545204852
11.377126726176853
12.939650568398566
15.381094071869994
17.724879835202564
19.18974593728542
17.920195315480278
15.47875181200885
13.13496604867628
9.71694514381628
5.908293278400855
2.5879301136797133
2.5879301136797133
5.224689097428855
6.884870679789426
6.201266498817426
2.2949568932631417
-2.2949568932631417
-6.884870679789426
-11.963073167009995
-15.869382772564279
-18.60379949645228
-19.092088197146563
-17.041275654230564
-13.232623788815136
-8.44739452201114
-4.931715877012284
-2.392614633401999
-1.416037232013428
-2.783245593957427
-4.443427176317998
-5.224689097428855
-3.8574807354848555
-1.3183794918745708
-0.43945983062485694
-1.6113527122911422
-4.345769436179141
-5.420004577706569
-3.5645075150682843
-0.537117570763714
2.68558785381857
3.7598229953459983
3.1738765545128556
2.490272373540856
1.8066681925688564
2.0019836728465705
2.490272373540856
5.0293736171511405
10.888838025482567
18.89677271686885
27.68596932936599
33.74074921797513
35.98687724116884
35.889219501029984
34.32669565880827
30.811017013809415
22.60776684214542
10.498207064927138
-3.8574807354848555
-20.263981078812847
-35.889219501029984
-47.90112153810941
-53.36995498588541
-52.19806210421912
-47.51049057755398
-40.86976424811169
-34.81498435950255
-28.760204470893417
-23.682001983672848
-21.43587396047913
-19.775692378118563
-13.623254749370565
7.275501640344854
51.123826962691695
109.71847104600594
150.1487754634928
131.98443579766536
51.51445792324712
-45.75265125505455
-103.76134889753567
-101.12458991378652
-62.45212481879911
-23.48668650339513
-3.466849774929427
-1.416037232013428
-6.39658197909514
-10.79118028534371
-11.47478446631571
-10.009918364232853
-8.545052262149996
-6.201266498817426
-3.8574807354848555
-1.2207217517357138
2.0019836728465705
4.834058136873426
7.275501640344854
8.349736781872283
8.935683222705425
8.935683222705425
7.861448081177996
7.470817120622568
7.763790341039139
9.42397192339971
12.256046387426567
14.795147631036851
16.943617914091707
17.920195315480278
18.60379949645228
17.82253757534142
14.697489890897993
12.549019607843137
13.232623788815136
17.13893339436942
21.24055848020142
22.412451361867703
20.947585259784848
18.017853055619135
16.45532921339742
16.45532921339742
15.967040512703136
14.50217441062028
11.670099946593423
8.44739452201114
5.0293736171511405
0.7324330510414282
-4.931715877012284
-13.427939269092851
-22.314793621728846
-28.27191577019913
-29.63912413214313
-26.22110322728313
-22.119478141451133
-19.18974593728542
-17.236591134508277
-16.064698252841993
-14.892805371175708
-14.795147631036851
-15.47875181200885
-16.650644693675137
-17.920195315480278
-17.334248874647134
-15.771725032425422
-13.330281528953995
-10.10757610437171
-7.568474860761425
-5.908293278400855
-5.908293278400855
-5.71297779812314
-4.736400396734569
-3.466849774929427
-1.2207217517357138
0.6347753109025711
3.076218814373999
6.787212939650568
10.205233844510566
11.865415426871138
10.595864805065995
8.935683222705425
7.959105821316854
6.39658197909514
5.71297779812314
7.373159380483711
13.232623788815136
22.412451361867703
30.811017013809415
35.596246280613414
34.61966887922484
29.443808651865414
21.045242999923705
8.935683222705425
-5.322346837567712
-19.971007858396277
-31.494621194781413
-38.818951705195694
-43.40886549172198
-44.77607385366598
-43.311207751583126
-38.818951705195694
-33.44777599755856
-30.127412832837415
-28.27191577019913
-27.68596932936599
-25.63515678644999
-17.334248874647134
3.2715342946517127
42.43228809033341
93.31197070267795
131.2031738765545
121.92568856336308
53.66292820630198
-39.99084458686198
-105.0308995193408
-111.08567940794995
-74.07339589532312
-31.00633249408713
-4.931715877012284
1.9043259327077133
-0.7324330510414282
-5.71297779812314
-9.033340962844282
-8.05676356145571
-5.127031357289998
-2.2949568932631417
0.6347753109025711
4.345769436179141
8.349736781872283
10.10757610437171
10.10757610437171
9.81460288395514
10.009918364232853
11.767757686732281
12.939650568398566
13.720912489509422
14.697489890897993
15.674067292286564
16.748302433813993
17.13893339436942
17.627222095063708
17.920195315480278
17.43190661478599
17.920195315480278
18.310826276035705
18.506141756313422
18.506141756313422
18.21316853589685
19.18974593728542
20.55695429922942
22.021820401312276
21.63118944075685
17.724879835202564
12.84199282825971
9.521629663538567
9.619287403677424
11.572442206454566
11.767757686732281
8.642710002288853
1.9043259327077133
-4.931715877012284
-10.79118028534371
-16.650644693675137
-21.728847180895706
-25.830472266727703
-27.588311589227132
-27.1976806286717
-26.416418707560844
-25.830472266727703
-26.123445487144274
-25.732814526588847
-24.17029068436713
-21.14290074006256
-15.674067292286564
-10.205233844510566
-6.298924238956283
-4.345769436179141
-4.052796215762569
-4.150453955901427
-4.834058136873426
-4.541084916456855
-3.466849774929427
-2.68558785381857
-1.3183794918745708
0.04882887006942855
2.9785610742351416
7.373159380483711
10.693522545204852
11.279468986037996
7.568474860761425
2.392614633401999
-2.0996414129854277
-4.834058136873426
-4.150453955901427
-1.416037232013428
3.662165255207141
11.08415350576028
19.287403677424276
26.416418707560844
30.22507057297627
31.494621194781413
30.22507057297627
25.146868085755703
17.334248874647134
6.6895551995117115
-5.517662317845426
-18.994430457007706
-32.08056763561456
-41.45571068894484
-46.72922865644312
-47.21751735713741
-44.09246967269398
-39.5025558861677
-33.93606469825284
-28.760204470893417
-24.072632944228275
-21.14290074006256
-20.752269779507134
-19.18974593728542
-8.935683222705425
21.24055848020142
71.43663691157397
115.77325093461509
117.14045929655909
59.522392614633404
-27.100022888532845
-90.67521171892882
-101.6128786144808
-70.75303273060197
-32.37354085603113
-9.228656443121995
-4.834058136873426
-10.693522545204852
-16.16235599298085
-17.724879835202564
-15.283436331731137
-10.986495765621424
-7.373159380483711
-4.638742656595713
-3.7598229953459983
-3.1738765545128556
-2.68558785381857
-2.5879301136797133
-1.3183794918745708
1.2207217517357138
5.71297779812314
11.181811245899137
15.381094071869994
16.943617914091707
14.990463111314565
12.256046387426567
10.498207064927138
9.521629663538567
9.81460288395514
10.888838025482567
14.209201190203707
19.48271915770199
23.48668650339513
23.48668650339513
19.18974593728542
15.185778591592278
14.209201190203707
15.088120851453422
16.16235599298085
15.47875181200885
14.599832150759136
15.088120851453422
16.260013733119706
17.13893339436942
15.576409552147707
12.158388647287708
7.470817120622568
1.416037232013428
-3.8574807354848555
-8.154421301594567
-10.205233844510566
-11.08415350576028
-12.74433508812085
-14.404516670481422
-15.576409552147707
-14.697489890897993
-12.74433508812085
-11.572442206454566
-10.205233844510566
-8.935683222705425
-6.298924238956283
-2.392614633401999
0.8300907911802854
2.197299153124285
0.8300907911802854
-0.8300907911802854
-1.3183794918745708
-0.8300907911802854
0.43945983062485694
1.1230640115968566
2.0996414129854277
4.345769436179141
6.103608758678568
6.103608758678568
3.076218814373999
0.04882887006942855
-1.0254062714579995
0.04882887006942855
3.36919203479057
5.810635538261997
6.6895551995117115
7.568474860761425
10.693522545204852
17.52956435492485
24.17029068436713
27.783627069504846
27.881284809643702
27.100022888532845
28.27191577019913
28.857862211032273
25.63515678644999
16.650644693675137
3.2715342946517127
-10.888838025482567
-24.365606164644845
-35.4009308003357
-42.72526131074998
-45.947966735332265
-43.311207751583126
-37.06111238269627
-29.150835431448844
-21.728847180895706
-16.45532921339742
-13.720912489509422
-14.50217441062028
-14.892805371175708
-8.252079041733426
14.404516670481422
58.54581521324483
106.8863965819791
122.6092927443351
78.95628290226597
-5.615320057984283
-78.37033646143283
-101.6128786144808
-79.54222934309911
-43.21355001144427
-19.092088197146563
-11.670099946593423
-14.404516670481422
-17.236591134508277
-15.283436331731137
-9.71694514381628
-3.076218814373999
0.7324330510414282
1.2207217517357138
-1.2207217517357138
-5.224689097428855
-6.6895551995117115
-5.810635538261997
-3.1738765545128556
-0.34180209048599985
1.513694972152285
3.7598229953459983
5.810635538261997
7.861448081177996
8.44739452201114
6.884870679789426
5.615320057984283
5.517662317845426
7.861448081177996
12.060730907148852
14.990463111314565
14.013885709925994
8.44739452201114
3.466849774929427
2.783245593957427
6.298924238956283
12.256046387426567
16.943617914091707
18.310826276035705
16.357671473258563
13.232623788815136
11.377126726176853
9.912260624093996
8.74036774242771
7.275501640344854
4.443427176317998
1.0254062714579995
-3.076218814373999
-6.39658197909514
-8.935683222705425
-11.963073167009995
-14.50217441062028
-16.943617914091707
-18.40848401617456
-19.48271915770199
-21.43587396047913
-22.60776684214542
-22.314793621728846
-18.89677271686885
-13.232623788815136
-7.959105821316854
-4.150453955901427
-2.783245593957427
-2.68558785381857
-2.392614633401999
-1.6113527122911422
0.9277485313191425
4.248111696040284
7.959105821316854
10.595864805065995
10.595864805065995
8.838025482566568
6.39658197909514
5.71297779812314
6.298924238956283
6.103608758678568
5.420004577706569
4.443427176317998
4.931715877012284
7.275501640344854
10.205233844510566
13.232623788815136
15.381094071869994
18.40848401617456
22.021820401312276
23.87731746395056
24.756237125200276
25.24452582589456
25.92813000686656
24.365606164644845
18.40848401617456
9.228656443121995
-2.783245593957427
-15.869382772564279
-28.564888990615703
-38.91660944533455
-43.50652323186084
-42.92057679102769
-38.23300526436255
-32.178225375753414
-26.90470740825513
-21.63118944075685
-16.748302433813993
-12.353704127565424
-9.912260624093996
-9.619287403677424
-6.884870679789426
5.71297779812314
37.549401083390556
83.05790798809797
112.64820325017166
93.50728618295567
24.267948424505988
-53.56527046616312
-95.36278324559396
-92.33539330128939
-66.74906538490883
-44.97138933394369
-36.67048142214084
-39.014267185473415
-44.873731593804834
-46.92454413672083
-44.873731593804834
-39.893186846723125
-33.15480277714199
-25.24452582589456
-15.674067292286564
-6.298924238956283
2.8809033340962844
11.865415426871138
19.58037689784085
26.61173418783856
32.08056763561456
36.27985046158541
39.11192492561227
41.065079728389414
44.580758373388264
47.51049057755398
48.877698939497975
48.68238345922026
47.11985961699855
46.43625543602655
47.90112153810941
52.39337758449683
56.690318150606544
57.27626459143969
55.90905622949569
55.420767528801406
58.54581521324483
64.50293736171511
70.26474402990769
73.78042267490653
71.33897917143511
65.08888380254825
58.643472953383686
51.31914244296941
42.72526131074998
33.74074921797513
25.63515678644999
17.43190661478599
9.033340962844282
0.537117570763714
-10.693522545204852
-22.510109102006563
-31.103990234225986
-35.889219501029984
-37.84237430380713
-38.62363622491798
-38.03768978408484
-36.37750820172427
-34.0337224383917
-30.908674753948272
-28.95551995117113
-27.68596932936599
-26.025787747005417
-23.779659723811704
-21.338216220340275
-20.55695429922942
-20.068665598535134
-18.60379949645228
-16.84596017395285
-14.795147631036851
-13.13496604867628
-11.181811245899137
-9.81460288395514
-9.912260624093996
-10.10757610437171
-10.79118028534371
-10.595864805065995
-8.935683222705425
-7.177843900205997
-6.591897459372854
-8.154421301594567
-9.521629663538567
-9.228656443121995
-6.201266498817426
0.34180209048599985
8.05676356145571
14.50217441062028
17.920195315480278
16.748302433813993
12.158388647287708
5.322346837567712
-1.8066681925688564
-10.10757610437171
-21.14290074006256
-33.252460517280845
-44.77607385366598
-52.002746623941405
-53.27229724574655
-50.14724956130312
-45.45967803463798
-43.11589227130541
-43.604180971999696
-46.533913176165406
-51.61211566338598
-56.39734493018997
-59.32707713435569
-56.006713969634546
-42.04165712977798
-13.525597009231708
30.811017013809415
76.41718165865568
96.04638742656596
69.19050888838025
8.154421301594567
-46.04562447547112
-63.233386739909974
-44.67841611352712
-14.306858930342566
6.494239719233997
12.74433508812085
8.05676356145571
1.3183794918745708
-2.490272373540856
-3.2715342946517127
-1.7090104524299992
-0.537117570763714
0.6347753109025711
2.5879301136797133
4.541084916456855
6.201266498817426
6.201266498817426
6.103608758678568
6.884870679789426
8.349736781872283
11.279468986037996
14.599832150759136
18.11551079575799
20.16632333867399
19.092088197146563
15.576409552147707
10.400549324788281
6.39658197909514
4.443427176317998
2.9785610742351416
2.197299153124285
2.783245593957427
6.6895551995117115
12.158388647287708
15.47875181200885
16.45532921339742
15.088120851453422
12.84199282825971
10.302891584649425
6.591897459372854
2.5879301136797133
-1.0254062714579995
-2.783245593957427
-2.68558785381857
-2.392614633401999
-2.0019836728465705
-3.5645075150682843
-6.494239719233997
-9.912260624093996
-12.549019607843137
-13.037308308537423
-13.232623788815136
-13.720912489509422
-14.795147631036851
-16.260013733119706
-16.45532921339742
-16.357671473258563
-15.674067292286564
-14.11154345006485
-11.670099946593423
-8.349736781872283
-5.908293278400855
-4.052796215762569
-2.68558785381857
-1.1230640115968566
2.2949568932631417
7.080186160067139
12.060730907148852
14.795147631036851
13.330281528953995
9.619287403677424
5.517662317845426
3.8574807354848555
5.322346837567712
7.763790341039139
10.205233844510566
10.888838025482567
10.498207064927138
8.545052262149996
4.736400396734569
1.6113527122911422
0.43945983062485694
3.1738765545128556
9.619287403677424
17.236591134508277
23.779659723811704
27.1976806286717
29.2484931715877
30.518043793392845
29.541466392004274
26.123445487144274
19.18974593728542
8.74036774242771
-4.931715877012284
-19.678034637979707
-30.615701533531702
-36.475165941863125
-36.0845349813077
-31.201647974364842
-24.756237125200276
-17.82253757534142
-12.646677347981994
-9.619287403677424
-9.619287403677424
-12.549019607843137
-15.088120851453422
-13.916227969787137
-2.2949568932631417
24.65857938506142
60.01068131532769
80.2258335240711
61.08491645685512
7.470817120622568
-47.51049057755398
-73.29213397421225
-64.40527962157626
-39.5025558861677
-16.943617914091707
-5.322346837567712
-3.9551384756237127
-5.615320057984283
-5.224689097428855
-0.7324330510414282
5.615320057984283
10.009918364232853
11.181811245899137
8.44739452201114
4.248111696040284
1.7090104524299992
2.783245593957427
8.349736781872283
15.088120851453422
21.43587396047913
26.514076447699704
29.053177691309987
27.881284809643702
21.533531700617992
13.81857022964828
8.05676356145571
3.9551384756237127
1.416037232013428
-0.14648661020828566
1.3183794918745708
5.71297779812314
9.228656443121995
9.228656443121995
5.615320057984283
3.466849774929427
5.0293736171511405
7.763790341039139
9.521629663538567
9.619287403677424
9.912260624093996
10.009918364232853
9.71694514381628
11.47478446631571
12.74433508812085
10.302891584649425
3.1738765545128556
-5.127031357289998
-10.498207064927138
-13.232623788815136
-13.232623788815136
-11.08415350576028
-9.326314183260854
-9.71694514381628
-14.11154345006485
-19.678034637979707
-23.682001983672848
-25.146868085755703
-23.48668650339513
-20.55695429922942
-15.771725032425422
-9.130998702983138
-2.490272373540856
2.490272373540856
4.834058136873426
7.080186160067139
9.81460288395514
11.181811245899137
10.693522545204852
9.521629663538567
10.595864805065995
12.45136186770428
10.498207064927138
4.834058136873426
-1.7090104524299992
-4.541084916456855
-3.7598229953459983
-2.392614633401999
-0.7324330510414282
0.14648661020828566
1.7090104524299992
3.8574807354848555
6.103608758678568
9.326314183260854
13.427939269092851
19.092088197146563
23.779659723811704
24.65857938506142
23.682001983672848
23.19371328297856
24.65857938506142
25.537499046311133
22.998397802700847
15.869382772564279
2.490272373540856
-14.50217441062028
-30.22507057297627
-39.99084458686198
-41.26039520866713
-38.03768978408484
-34.717326619363696
-32.471198596169984
-29.541466392004274
-24.072632944228275
-19.092088197146563
-16.748302433813993
-16.943617914091707
-16.064698252841993
-5.517662317845426
22.021820401312276
65.96780346379796
104.44495307850767
103.95666437781338
50.73319600213626
-31.68993667505913
-95.16746776531625
-108.64423590447852
-80.32349126420996
-39.79552910658427
-11.865415426871138
-1.6113527122911422
-2.68558785381857
-6.591897459372854
-7.959105821316854
-7.959105821316854
-7.470817120622568
-7.080186160067139
-6.494239719233997
-4.443427176317998
-2.490272373540856
-1.416037232013428
-1.513694972152285
-2.0996414129854277
-0.7324330510414282
1.416037232013428
3.36919203479057
3.9551384756237127
4.052796215762569
5.71297779812314
7.666132600900283
10.009918364232853
12.646677347981994
14.892805371175708
16.650644693675137
16.55298695353628
15.576409552147707
14.209201190203707
12.549019607843137
12.060730907148852
12.353704127565424
14.795147631036851
18.40848401617456
20.654612039368278
20.068665598535134
15.185778591592278
9.326314183260854
5.71297779812314
4.931715877012284
5.420004577706569
4.443427176317998
3.466849774929427
3.8574807354848555
4.638742656595713
3.466849774929427
-2.68558785381857
-11.181811245899137
-18.017853055619135
-21.826504921034562
-22.21713588158999
-21.338216220340275
-18.506141756313422
-14.404516670481422
-10.79118028534371
-8.252079041733426
-7.861448081177996
-7.470817120622568
-6.103608758678568
-3.8574807354848555
-0.8300907911802854
0.7324330510414282
0.6347753109025711
-1.416037232013428
-5.127031357289998
-7.666132600900283
-8.545052262149996
-7.861448081177996
-8.349736781872283
-11.767757686732281
-15.47875181200885
-17.43190661478599
-15.967040512703136
-13.720912489509422
-14.11154345006485
-16.064698252841993
-17.920195315480278
-17.041275654230564
-13.13496604867628
-7.080186160067139
1.8066681925688564
12.158388647287708
23.291371023117417
33.44777599755856
40.186160067139696
42.13931486991684
37.4517433432517
28.467231250476843
17.43190661478599
4.834058136873426
-8.05676356145571
-20.16632333867399
-26.807049668116274
-27.100022888532845
-23.87731746395056
-19.971007858396277
-17.52956435492485
-15.381094071869994
-13.037308308537423
-11.08415350576028
-9.326314183260854
-9.228656443121995
-9.326314183260854
-4.638742656595713
12.939650568398566
51.123826962691695
99.56206607156481
128.17578393224994
105.90981918059052
33.64309147783627
-46.33859769588769
-88.13611047531853
-79.05394064240483
-43.311207751583126
-11.670099946593423
2.2949568932631417
0.537117570763714
-6.591897459372854
-11.377126726176853
-10.986495765621424
-6.298924238956283
-1.8066681925688564
1.3183794918745708
3.8574807354848555
5.517662317845426
6.201266498817426
4.834058136873426
3.5645075150682843
3.9551384756237127
5.322346837567712
7.177843900205997
8.05676356145571
9.619287403677424
12.74433508812085
15.967040512703136
17.920195315480278
16.357671473258563
12.549019607843137
8.838025482566568
6.6895551995117115
6.982528419928283
7.861448081177996
8.838025482566568
9.228656443121995
9.130998702983138
9.033340962844282
7.763790341039139
6.005951018539712
4.736400396734569
4.248111696040284
4.931715877012284
5.517662317845426
6.005951018539712
6.103608758678568
4.931715877012284
3.36919203479057
0.537117570763714
-2.197299153124285
-5.322346837567712
-10.10757610437171
-15.381094071869994
-19.287403677424276
-19.48271915770199
-17.52956435492485
-16.064698252841993
-14.697489890897993
-13.13496604867628
-10.498207064927138
-7.959105821316854
-6.591897459372854
-4.736400396734569
-2.783245593957427
0.34180209048599985
4.052796215762569
6.103608758678568
6.005951018539712
3.466849774929427
1.416037232013428
0.9277485313191425
1.6113527122911422
3.36919203479057
4.736400396734569
6.39658197909514
8.05676356145571
8.545052262149996
8.44739452201114
7.080186160067139
5.908293278400855
4.736400396734569
3.1738765545128556
2.783245593957427
3.5645075150682843
6.103608758678568
10.10757610437171
15.283436331731137
21.533531700617992
26.22110322728313
29.150835431448844
31.396963454642556
32.6665140764477
31.68993667505913
26.514076447699704
18.310826276035705
6.982528419928283
-6.982528419928283
-21.045242999923705
-33.545433737697415
-41.5533684290837
-44.28778515297169
-43.21355001144427
-39.893186846723125
-36.475165941863125
-31.885252155336843
-25.24452582589456
-18.994430457007706
-15.381094071869994
-15.088120851453422
-12.353704127565424
1.6113527122911422
34.91264209964141
83.15556572823682
116.74982833600366
100.63630121309224
29.63912413214313
-55.32310978866255
-102.58945601586939
-97.51125352864881
-63.13572899977112
-30.908674753948272
-15.674067292286564
-14.11154345006485
-18.89677271686885
-21.728847180895706
-19.385061417563133
-13.720912489509422
-7.177843900205997
-2.68558785381857
-0.7324330510414282
-1.3183794918745708
-2.392614633401999
-1.513694972152285
-0.43945983062485694
0.04882887006942855
0.04882887006942855
-0.04882887006942855
0.7324330510414282
2.197299153124285
4.736400396734569
7.861448081177996
10.986495765621424
14.795147631036851
17.82253757534142
19.971007858396277
20.361638818951704
18.21316853589685
14.892805371175708
11.377126726176853
9.521629663538567
8.349736781872283
6.591897459372854
5.420004577706569
5.810635538261997
8.838025482566568
13.13496604867628
15.47875181200885
15.185778591592278
12.256046387426567
9.130998702983138
5.908293278400855
1.7090104524299992
-3.36919203479057
-9.130998702983138
-12.939650568398566
-13.916227969787137
-14.013885709925994
-15.381094071869994
-19.87335011825742
-24.4632639047837
-26.61173418783856
-25.537499046311133
-21.14290074006256
-15.674067292286564
-10.10757610437171
-5.517662317845426
-3.2715342946517127
-3.076218814373999
-5.517662317845426
-8.44739452201114
-9.81460288395514
-9.326314183260854
-6.591897459372854
-3.5645075150682843
-0.43945983062485694
2.392614633401999
4.638742656595713
6.298924238956283
6.005951018539712
4.834058136873426
3.466849774929427
0.9277485313191425
-2.490272373540856
-6.103608758678568
-6.298924238956283
-2.9785610742351416
0.8300907911802854
3.466849774929427
3.8574807354848555
4.443427176317998
6.787212939650568
10.595864805065995
15.381094071869994
19.48271915770199
23.682001983672848
27.100022888532845
27.783627069504846
25.342183566033416
18.017853055619135
6.201266498817426
-9.521629663538567
-26.025787747005417
-37.549401083390556
-41.943999389639124
-38.42832074464027
-30.71335927367056
-23.682001983672848
-18.799114976729992
-15.185778591592278
-10.400549324788281
-6.005951018539712
-5.0293736171511405
-6.494239719233997
-5.71297779812314
7.373159380483711
41.26039520866713
88.23376821545739
119.19127183947509
99.75738155184253
31.103990234225986
-44.873731593804834
-83.6438544289311
-74.26871137560083
-41.358052948805984
-12.158388647287708
1.2207217517357138
1.0254062714579995
-3.9551384756237127
-8.154421301594567
-8.44739452201114
-6.201266498817426
-3.8574807354848555
-1.0254062714579995
0.6347753109025711
1.8066681925688564
3.076218814373999
4.248111696040284
4.248111696040284
0.8300907911802854
-3.5645075150682843
-6.201266498817426
-5.908293278400855
-3.076218814373999
-0.7324330510414282
1.416037232013428
4.150453955901427
6.591897459372854
8.935683222705425
10.498207064927138
11.865415426871138
12.158388647287708
10.498207064927138
8.44739452201114
6.787212939650568
7.275501640344854
10.10757610437171
13.13496604867628
14.404516670481422
11.377126726176853
5.908293278400855
1.3183794918745708
0.24414435034714274
2.9785610742351416
5.615320057984283
6.201266498817426
4.443427176317998
2.0019836728465705
0.14648661020828566
-3.36919203479057
-9.130998702983138
-15.381094071869994
-19.971007858396277
-21.338216220340275
-21.338216220340275
-20.263981078812847
-18.21316853589685
-16.064698252841993
-14.11154345006485
-13.525597009231708
-12.939650568398566
-11.767757686732281
-10.498207064927138
-8.252079041733426
-5.908293278400855
-2.490272373540856
1.8066681925688564
6.103608758678568
9.912260624093996
11.865415426871138
12.45136186770428
12.158388647287708
11.47478446631571
12.060730907148852
13.037308308537423
14.11154345006485
14.11154345006485
12.549019607843137
10.986495765621424
9.71694514381628
9.912260624093996
10.302891584649425
8.74036774242771
6.39658197909514
5.322346837567712
8.252079041733426
14.697489890897993
21.533531700617992
26.514076447699704
27.002365148393988
24.560921644922562
21.24055848020142
17.13893339436942
11.279468986037996
1.6113527122911422
-10.400549324788281
-22.60776684214542
-32.86182955672541
-38.33066300450141
-39.99084458686198
-38.23300526436255
-35.20561532005799
-32.471198596169984
-29.443808651865414
-26.514076447699704
-22.60776684214542
-18.21316853589685
-14.599832150759136
-8.545052262149996
7.177843900205997
40.96742198825055
83.6438544289311
104.24963759822995
75.73357747768368
6.884870679789426
-57.08094911116198
-78.76096742198825
-59.522392614633404
-26.22110322728313
-3.7598229953459983
2.68558785381857
-0.6347753109025711
-5.810635538261997
-6.39658197909514
-3.076218814373999
1.1230640115968566
3.36919203479057
2.9785610742351416
1.9043259327077133
1.1230640115968566
1.9043259327077133
3.076218814373999
2.8809033340962844
2.2949568932631417
2.0996414129854277
4.150453955901427
8.154421301594567
11.865415426871138
13.720912489509422
12.158388647287708
9.42397192339971
7.177843900205997
5.908293278400855
6.201266498817426
6.39658197909514
6.884870679789426
7.568474860761425
7.959105821316854
8.74036774242771
8.935683222705425
9.326314183260854
10.009918364232853
10.400549324788281
11.572442206454566
12.45136186770428
14.209201190203707
17.13893339436942
19.775692378118563
20.654612039368278
17.334248874647134
11.572442206454566
5.615320057984283
-0.24414435034714274
-4.931715877012284
-8.252079041733426
-9.71694514381628
-11.279468986037996
-14.209201190203707
-17.52956435492485
-20.55695429922942
-21.728847180895706
-21.63118944075685
-20.947585259784848
-18.799114976729992
-15.674067292286564
-12.060730907148852
-9.228656443121995
-7.959105821316854
-7.373159380483711
-8.74036774242771
-11.47478446631571
-14.50217441062028
-16.16235599298085
-14.892805371175708
-11.767757686732281
-6.6895551995117115
-1.513694972152285
1.3183794918745708
2.2949568932631417
1.6113527122911422
1.416037232013428
1.6113527122911422
1.2207217517357138
0.04882887006942855
-2.2949568932631417
-3.36919203479057
-1.2207217517357138
3.2715342946517127
9.130998702983138
14.306858930342566
19.287403677424276
23.87731746395056
28.369573510337986
33.252460517280845
35.49858854047456
32.471198596169984
23.58434424353399
10.888838025482567
-1.7090104524299992
-13.916227969787137
-23.48668650339513
-29.443808651865414
-31.885252155336843
-30.22507057297627
-26.61173418783856
-21.92416266117342
-17.334248874647134
-13.525597009231708
-10.009918364232853
-7.666132600900283
-5.71297779812314
-3.8574807354848555
1.416037232013428
20.16632333867399
55.81139848935683
92.82368200198367
98.29251544975968
54.053559166857404
-17.920195315480278
-74.85465781643397
-88.33142595559625
-66.55374990463112
-36.96345464255741
-18.017853055619135
-12.549019607843137
-12.646677347981994
-12.939650568398566
-13.037308308537423
-12.060730907148852
-10.302891584649425
-7.373159380483711
-4.638742656595713
-2.5879301136797133
-0.24414435034714274
1.2207217517357138
2.197299153124285
2.9785610742351416
3.8574807354848555
6.201266498817426
9.81460288395514
14.892805371175708
19.58037689784085
21.338216220340275
20.947585259784848
18.701457236591136
16.650644693675137
15.576409552147707
15.185778591592278
15.381094071869994
15.381094071869994
16.357671473258563
18.60379949645228
21.14290074006256
23.291371023117417
23.291371023117417
21.728847180895706
20.16632333867399
19.48271915770199
19.87335011825742
18.60379949645228
16.16235599298085
13.232623788815136
9.619287403677424
5.517662317845426
0.34180209048599985
-2.783245593957427
-2.2949568932631417
0.04882887006942855
0.9277485313191425
-2.0996414129854277
-6.982528419928283
-10.986495765621424
-12.549019607843137
-11.47478446631571
-10.400549324788281
-9.71694514381628
-9.521629663538567
-9.71694514381628
-9.326314183260854
-7.959105821316854
-4.443427176317998
-0.43945983062485694
2.8809033340962844
6.982528419928283
10.009918364232853
10.986495765621424
9.228656443121995
5.0293736171511405
1.0254062714579995
-1.513694972152285
-1.8066681925688564
-2.2949568932631417
-4.931715877012284
-7.763790341039139
-9.521629663538567
-8.838025482566568
-7.275501640344854
-6.591897459372854
-6.39658197909514
-6.884870679789426
-6.884870679789426
-6.591897459372854
-6.005951018539712
-3.7598229953459983
-0.34180209048599985
5.615320057984283
13.525597009231708
20.361638818951704
22.314793621728846
16.357671473258563
4.541084916456855
-9.521629663538567
-23.87731746395056
-36.37750820172427
-46.33859769588769
-50.34256504158083
-47.51049057755398
-41.358052948805984
-34.61966887922484
-29.443808651865414
-24.65857938506142
-20.45929655909056
-17.724879835202564
-15.088120851453422
-12.74433508812085
-7.177843900205997
6.982528419928283
35.303273060196844
73.19447623407339
96.53467612726024
79.54222934309911
22.510109102006563
-40.479133287556266
-71.43663691157397
-63.72167544060426
-37.35408560311284
-14.795147631036851
-4.638742656595713
-3.466849774929427
-6.298924238956283
-7.959105821316854
-7.470817120622568
-6.103608758678568
-4.150453955901427
-2.8809033340962844
-1.2207217517357138
1.1230640115968566
3.662165255207141
5.71297779812314
5.0293736171511405
2.9785610742351416
1.8066681925688564
3.076218814373999
7.470817120622568
11.767757686732281
14.306858930342566
14.599832150759136
13.81857022964828
13.623254749370565
12.45136186770428
10.888838025482567
9.42397192339971
8.642710002288853
8.935683222705425
8.545052262149996
7.373159380483711
6.494239719233997
6.787212939650568
9.619287403677424
12.45136186770428
14.404516670481422
14.209201190203707
10.986495765621424
6.787212939650568
2.9785610742351416
1.2207217517357138
1.0254062714579995
0.7324330510414282
0.04882887006942855
-2.490272373540856
-6.39658197909514
-11.181811245899137
-15.967040512703136
-18.40848401617456
-18.506141756313422
-17.041275654230564
-15.088120851453422
-13.330281528953995
-10.888838025482567
-9.42397192339971
-9.228656443121995
-9.71694514381628
-9.81460288395514
-7.763790341039139
-4.931715877012284
-1.513694972152285
2.197299153124285
6.298924238956283
