ecg
-31.201647974364842
-26.514076447699704
-28.95551995117113
-31.201647974364842
-29.9320973525597
-25.049210345616846
-20.45929655909056
-17.236591134508277
-14.990463111314565
-13.232623788815136
-11.279468986037996
-8.935683222705425
-4.345769436179141
1.7090104524299992
7.568474860761425
12.646677347981994
14.990463111314565
15.576409552147707
15.967040512703136
16.84596017395285
18.89677271686885
20.55695429922942
22.510109102006563
24.072632944228275
24.560921644922562
25.049210345616846
25.92813000686656
28.95551995117113
32.764171816586554
35.98687724116884
39.20958266575113
41.16273746852827
43.018234531166556
45.85030899519341
48.78004119935912
50.928511482413974
50.73319600213626
49.658960860608836
48.19409475852598
47.21751735713741
47.412832837415124
46.240939955748836
42.236972610055695
34.52201113908598
24.072632944228275
12.74433508812085
0.14648661020828566
-11.181811245899137
-19.18974593728542
-23.19371328297856
-23.389028763256274
-22.510109102006563
-20.84992751964599
-18.40848401617456
-15.283436331731137
-10.986495765621424
-7.275501640344854
-4.443427176317998
-3.36919203479057
-3.8574807354848555
-4.052796215762569
-3.662165255207141
-1.0254062714579995
3.7598229953459983
9.033340962844282
12.646677347981994
12.45136186770428
10.10757610437171
7.373159380483711
5.517662317845426
5.71297779812314
6.39658197909514
6.982528419928283
6.39658197909514
4.931715877012284
3.8574807354848555
1.8066681925688564
-0.7324330510414282
-3.5645075150682843
-6.103608758678568
-7.177843900205997
-7.470817120622568
-6.787212939650568
-6.39658197909514
-6.298924238956283
-4.638742656595713
-1.0254062714579995
4.541084916456855
10.009918364232853
12.939650568398566
14.013885709925994
14.013885709925994
14.795147631036851
14.697489890897993
11.279468986037996
3.662165255207141
-8.935683222705425
-23.682001983672848
-35.79156176089113
-41.16273746852827
-38.1353475242237
-30.615701533531702
-21.63118944075685
-13.916227969787137
-8.935683222705425
-5.420004577706569
-3.076218814373999
-0.9277485313191425
-0.24414435034714274
0.7324330510414282
10.498207064927138
37.549401083390556
81.39772640573739
118.60532539864195
116.45685511558709
63.233386739909974
-17.43190661478599
-80.03051804379339
-97.02296482795452
-77.4914168001831
-47.705806057831694
-27.588311589227132
-18.799114976729992
-16.260013733119706
-15.576409552147707
-13.525597009231708
-9.619287403677424
-3.5645075150682843
2.9785610742351416
10.400549324788281
20.068665598535134
30.322728313115128
41.358052948805984
52.49103532463569
61.08491645685512
65.28419928282597
62.84275577935454
56.88563363088426
50.24490730144198
42.92057679102769
35.010299839780274
26.709391927977418
18.506141756313422
9.42397192339971
0.6347753109025711
-5.71297779812314
-12.256046387426567
-19.678034637979707
-26.514076447699704
-30.71335927367056
-31.2993057145037
-29.834439612420844
-26.514076447699704
-22.705424582284277
-19.58037689784085
-16.748302433813993
-15.381094071869994
-15.47875181200885
-17.920195315480278
-21.045242999923705
-22.314793621728846
-22.21713588158999
-20.068665598535134
-16.84596017395285
-15.185778591592278
-16.16235599298085
-19.287403677424276
-21.826504921034562
-23.48668650339513
-24.267948424505988
-23.682001983672848
-23.291371023117417
-22.021820401312276
-19.775692378118563
-17.627222095063708
-15.967040512703136
-15.576409552147707
-14.990463111314565
-14.11154345006485
-12.84199282825971
-10.498207064927138
-9.81460288395514
-10.205233844510566
-10.986495765621424
-11.963073167009995
-12.74433508812085
-13.916227969787137
-14.697489890897993
-15.283436331731137
-15.576409552147707
-13.623254749370565
-9.912260624093996
-3.9551384756237127
3.1738765545128556
9.033340962844282
12.45136186770428
12.646677347981994
11.963073167009995
11.377126726176853
11.181811245899137
12.549019607843137
14.404516670481422
17.041275654230564
20.361638818951704
24.17029068436713
28.66254673075456
32.08056763561456
34.81498435950255
36.768139162279695
37.84237430380713
37.94003204394598
35.4009308003357
30.029755092698558
20.55695429922942
6.787212939650568
-8.642710002288853
-23.974975204089418
-35.79156176089113
-42.72526131074998
-45.069047074082555
-43.70183871213855
-41.26039520866713
-36.96345464255741
-30.22507057297627
-23.779659723811704
-20.654612039368278
-22.90074006256199
-26.90470740825513
-25.732814526588847
-10.693522545204852
25.439841306172273
72.41321431296254
100.24567025253681
77.78439002059967
8.44739452201114
-64.79591058213168
-100.24567025253681
-89.40566109712367
-55.81139848935683
-25.92813000686656
-9.912260624093996
-6.787212939650568
-9.130998702983138
-11.377126726176853
-11.47478446631571
-9.228656443121995
-7.177843900205997
-5.420004577706569
-3.8574807354848555
-2.392614633401999
0.34180209048599985
2.9785610742351416
4.736400396734569
4.638742656595713
3.5645075150682843
4.443427176317998
6.884870679789426
10.888838025482567
14.697489890897993
17.43190661478599
19.775692378118563
20.45929655909056
20.263981078812847
20.068665598535134
20.16632333867399
21.24055848020142
21.826504921034562
22.510109102006563
22.412451361867703
21.24055848020142
19.678034637979707
17.236591134508277
15.283436331731137
14.795147631036851
15.185778591592278
15.674067292286564
14.209201190203707
12.256046387426567
9.912260624093996
5.517662317845426
-1.1230640115968566
-8.74036774242771
-13.037308308537423
-14.013885709925994
-14.599832150759136
-15.967040512703136
-18.40848401617456
-20.45929655909056
-22.21713588158999
-23.19371328297856
-21.533531700617992
-17.724879835202564
-11.767757686732281
-5.322346837567712
-0.6347753109025711
1.8066681925688564
1.9043259327077133
1.7090104524299992
1.1230640115968566
-1.3183794918745708
-4.931715877012284
-8.44739452201114
-8.44739452201114
-4.443427176317998
1.0254062714579995
5.224689097428855
5.127031357289998
3.076218814373999
2.8809033340962844
5.322346837567712
7.470817120622568
4.931715877012284
-0.24414435034714274
-3.8574807354848555
-3.5645075150682843
-0.43945983062485694
0.6347753109025711
-1.3183794918745708
-5.0293736171511405
-7.470817120622568
-6.005951018539712
-2.392614633401999
2.9785610742351416
9.228656443121995
14.795147631036851
19.18974593728542
22.314793621728846
26.22110322728313
29.346150911726557
27.783627069504846
20.752269779507134
8.838025482566568
-5.810635538261997
-22.21713588158999
-36.182192721446555
-41.45571068894484
-39.40489814602884
-35.4009308003357
-34.32669565880827
-35.010299839780274
-32.08056763561456
-24.756237125200276
-15.185778591592278
-8.154421301594567
-5.908293278400855
-4.052796215762569
4.736400396734569
30.811017013809415
74.65934233615626
114.99198901350424
117.23811703669794
62.45212481879911
-26.709391927977418
-101.02693217364767
-123.39055466544595
-95.36278324559396
-49.75661860074769
-16.064698252841993
-3.466849774929427
-4.834058136873426
-8.44739452201114
-9.912260624093996
-8.545052262149996
-6.39658197909514
-4.931715877012284
-2.0996414129854277
3.9551384756237127
15.47875181200885
29.443808651865414
40.28381780727855
46.72922865644312
48.97535667963683
48.68238345922026
45.069047074082555
37.94003204394598
29.150835431448844
19.18974593728542
10.400549324788281
4.345769436179141
0.43945983062485694
-2.8809033340962844
-7.080186160067139
-9.130998702983138
-8.252079041733426
-6.298924238956283
-4.736400396734569
-4.834058136873426
-5.0293736171511405
-4.345769436179141
-3.36919203479057
-2.8809033340962844
-3.8574807354848555
-3.7598229953459983
-1.7090104524299992
0.04882887006942855
-0.43945983062485694
-5.615320057984283
-13.13496604867628
-18.799114976729992
-19.58037689784085
-16.16235599298085
-12.74433508812085
-9.326314183260854
-4.541084916456855
1.6113527122911422
9.81460288395514
18.89677271686885
28.076600289921416
34.91264209964141
38.33066300450141
39.99084458686198
40.479133287556266
41.26039520866713
41.84634164950027
41.065079728389414
38.42832074464027
32.86182955672541
26.123445487144274
19.87335011825742
13.330281528953995
6.982528419928283
0.6347753109025711
-4.248111696040284
-9.326314183260854
-15.576409552147707
-22.412451361867703
-29.834439612420844
-35.10795757991913
-36.57282368200198
-33.64309147783627
-27.588311589227132
-22.60776684214542
-19.87335011825742
-19.18974593728542
-19.87335011825742
-19.678034637979707
-18.310826276035705
-15.088120851453422
-11.08415350576028
-7.080186160067139
-1.513694972152285
5.127031357289998
12.74433508812085
19.775692378118563
24.072632944228275
24.65857938506142
20.55695429922942
13.427939269092851
4.638742656595713
-5.810635538261997
-18.11551079575799
-31.9829098954757
-43.311207751583126
-49.17067215991455
-48.877698939497975
-42.529945830472265
-34.22903791866941
-26.318760967421987
-20.45929655909056
-16.55298695353628
-13.916227969787137
-13.81857022964828
-12.256046387426567
-2.68558785381857
21.63118944075685
63.72167544060426
108.64423590447852
126.41794460975052
90.67521171892882
9.71694514381628
-71.33897917143511
-109.03486686503395
-94.19089036392768
-52.6863508049134
-16.357671473258563
0.8300907911802854
0.43945983062485694
-6.884870679789426
-12.353704127565424
-11.767757686732281
-6.298924238956283
-1.513694972152285
0.9277485313191425
1.9043259327077133
2.0996414129854277
2.783245593957427
3.076218814373999
3.2715342946517127
3.076218814373999
2.9785610742351416
4.345769436179141
5.908293278400855
7.861448081177996
10.009918364232853
11.377126726176853
12.549019607843137
12.353704127565424
11.47478446631571
10.595864805065995
10.302891584649425
11.47478446631571
12.646677347981994
14.306858930342566
16.357671473258563
18.11551079575799
19.48271915770199
19.287403677424276
18.40848401617456
17.920195315480278
17.43190661478599
17.041275654230564
15.771725032425422
14.306858930342566
11.963073167009995
7.763790341039139
2.490272373540856
-4.736400396734569
-13.330281528953995
-21.728847180895706
-27.881284809643702
-30.322728313115128
-31.2993057145037
-30.518043793392845
-28.66254673075456
-27.100022888532845
-25.92813000686656
-26.22110322728313
-26.416418707560844
-25.146868085755703
-22.21713588158999
-17.920195315480278
-14.795147631036851
-11.865415426871138
-8.642710002288853
-5.810635538261997
-2.9785610742351416
-1.3183794918745708
0.04882887006942855
0.9277485313191425
0.9277485313191425
0.9277485313191425
0.6347753109025711
1.8066681925688564
4.443427176317998
6.884870679789426
7.861448081177996
5.908293278400855
3.076218814373999
2.0019836728465705
3.662165255207141
7.275501640344854
9.228656443121995
9.033340962844282
8.252079041733426
7.861448081177996
9.228656443121995
11.572442206454566
15.185778591592278
19.775692378118563
24.4632639047837
29.443808651865414
33.15480277714199
35.010299839780274
33.545433737697415
28.369573510337986
20.55695429922942
9.228656443121995
-4.345769436179141
-18.40848401617456
-30.22507057297627
-36.768139162279695
-37.94003204394598
-32.86182955672541
-24.267948424505988
-16.45532921339742
-10.888838025482567
-8.05676356145571
-6.39658197909514
-5.810635538261997
-6.298924238956283
-4.150453955901427
5.420004577706569
31.885252155336843
75.53826199740597
114.69901579308767
114.4060425726711
57.56923781185626
-27.295338368810558
-89.21034561684596
-99.65972381170367
-70.4600595101854
-33.93606469825284
-9.521629663538567
0.537117570763714
2.0996414129854277
1.6113527122911422
0.9277485313191425
1.0254062714579995
1.416037232013428
1.6113527122911422
2.5879301136797133
3.36919203479057
5.71297779812314
9.521629663538567
12.353704127565424
13.427939269092851
12.45136186770428
11.670099946593423
11.279468986037996
10.302891584649425
9.326314183260854
8.05676356145571
8.642710002288853
10.79118028534371
12.74433508812085
13.81857022964828
13.720912489509422
14.013885709925994
14.306858930342566
13.427939269092851
12.060730907148852
10.10757610437171
9.81460288395514
10.986495765621424
12.353704127565424
13.525597009231708
12.353704127565424
9.42397192339971
6.005951018539712
3.466849774929427
2.490272373540856
1.7090104524299992
1.7090104524299992
1.7090104524299992
0.24414435034714274
-2.0019836728465705
-6.298924238956283
-11.572442206454566
-16.650644693675137
-19.58037689784085
-19.58037689784085
-19.287403677424276
-19.48271915770199
-20.068665598535134
-20.55695429922942
-19.18974593728542
-17.041275654230564
-14.599832150759136
-12.158388647287708
-10.10757610437171
-7.666132600900283
-6.591897459372854
-5.517662317845426
-3.5645075150682843
-1.0254062714579995
2.197299153124285
4.736400396734569
6.005951018539712
5.420004577706569
3.8574807354848555
3.36919203479057
3.36919203479057
3.36919203479057
2.490272373540856
0.6347753109025711
-0.14648661020828566
-0.34180209048599985
0.34180209048599985
1.513694972152285
2.2949568932631417
3.076218814373999
3.662165255207141
6.494239719233997
11.670099946593423
16.84596017395285
20.84992751964599
22.60776684214542
24.17029068436713
26.807049668116274
28.467231250476843
27.002365148393988
21.338216220340275
13.427939269092851
3.1738765545128556
-9.619287403677424
-23.096055542839704
-35.79156176089113
-44.873731593804834
-48.48706797894255
-46.240939955748836
-39.5025558861677
-31.68993667505913
-22.90074006256199
-14.306858930342566
-8.44739452201114
-5.810635538261997
-7.275501640344854
-10.400549324788281
-10.888838025482567
-1.2207217517357138
27.49065384908827
71.43663691157397
106.00747692072939
97.51125352864881
38.72129396505684
-35.69390402075227
-82.47196154726483
-84.3274586099031
-58.057526512550545
-30.322728313115128
-14.795147631036851
-11.670099946593423
-13.427939269092851
-15.674067292286564
-18.11551079575799
-18.799114976729992
-17.43190661478599
-13.720912489509422
-8.935683222705425
-4.345769436179141
0.04882887006942855
2.9785610742351416
5.615320057984283
8.349736781872283
9.81460288395514
10.595864805065995
10.10757610437171
9.81460288395514
10.10757610437171
10.400549324788281
10.595864805065995
10.595864805065995
12.646677347981994
16.260013733119706
18.017853055619135
17.724879835202564
15.47875181200885
13.525597009231708
13.232623788815136
14.697489890897993
18.21316853589685
21.728847180895706
24.560921644922562
24.95155260547799
21.43587396047913
15.967040512703136
10.498207064927138
7.470817120622568
6.298924238956283
4.345769436179141
0.24414435034714274
-5.224689097428855
-8.74036774242771
-9.912260624093996
-11.08415350576028
-12.353704127565424
-14.599832150759136
-17.52956435492485
-21.14290074006256
-25.24452582589456
-27.68596932936599
-27.68596932936599
-23.87731746395056
-18.21316853589685
-14.013885709925994
-10.888838025482567
-8.74036774242771
-6.6895551995117115
-5.322346837567712
-6.201266498817426
-8.545052262149996
-11.08415350576028
-10.400549324788281
-6.39658197909514
-2.392614633401999
0.04882887006942855
0.43945983062485694
0.24414435034714274
0.9277485313191425
2.0996414129854277
3.662165255207141
3.662165255207141
3.36919203479057
2.9785610742351416
2.0996414129854277
2.0019836728465705
2.0019836728465705
2.0019836728465705
1.6113527122911422
0.04882887006942855
-2.0996414129854277
-3.9551384756237127
-1.1230640115968566
6.982528419928283
16.650644693675137
24.560921644922562
27.97894254978256
27.68596932936599
24.853894865339132
19.58037689784085
11.767757686732281
0.8300907911802854
-11.47478446631571
-23.974975204089418
-35.10795757991913
-41.16273746852827
-42.43228809033341
-40.479133287556266
-37.15877012283513
-33.44777599755856
-28.66254673075456
-23.779659723811704
-17.236591134508277
-10.400549324788281
-6.103608758678568
-3.36919203479057
0.43945983062485694
13.916227969787137
43.604180971999696
81.10475318532082
101.12458991378652
78.6633096818494
19.87335011825742
-40.38147554741741
-68.70222018768597
-58.1551842526894
-29.541466392004274
-5.127031357289998
5.322346837567712
5.127031357289998
2.2949568932631417
0.9277485313191425
2.8809033340962844
6.103608758678568
6.982528419928283
6.298924238956283
5.0293736171511405
4.541084916456855
5.127031357289998
5.517662317845426
6.298924238956283
7.177843900205997
9.71694514381628
13.232623788815136
15.381094071869994
16.16235599298085
15.185778591592278
13.623254749370565
12.74433508812085
12.939650568398566
14.795147631036851
16.45532921339742
18.799114976729992
21.43587396047913
22.90074006256199
23.682001983672848
22.60776684214542
20.361638818951704
18.21316853589685
16.45532921339742
15.381094071869994
14.013885709925994
13.427939269092851
12.939650568398566
10.986495765621424
9.033340962844282
6.591897459372854
3.7598229953459983
1.1230640115968566
-1.7090104524299992
-4.931715877012284
-9.228656443121995
-12.45136186770428
-14.013885709925994
-15.47875181200885
-16.943617914091707
-19.48271915770199
-21.63118944075685
-21.63118944075685
-19.287403677424276
-15.088120851453422
-11.767757686732281
-9.619287403677424
-9.130998702983138
-10.10757610437171
-10.205233844510566
-8.935683222705425
-6.787212939650568
-5.224689097428855
-4.834058136873426
-4.052796215762569
-2.9785610742351416
-0.7324330510414282
1.416037232013428
2.0996414129854277
2.8809033340962844
3.36919203479057
2.9785610742351416
1.416037232013428
-0.34180209048599985
-0.24414435034714274
0.7324330510414282
3.1738765545128556
6.103608758678568
7.861448081177996
8.05676356145571
5.420004577706569
1.8066681925688564
0.14648661020828566
1.8066681925688564
6.982528419928283
13.330281528953995
20.752269779507134
27.97894254978256
32.86182955672541
35.10795757991913
32.471198596169984
24.95155260547799
13.81857022964828
0.04882887006942855
-15.381094071869994
-31.00633249408713
-41.943999389639124
-45.362020294499125
-42.529945830472265
-36.37750820172427
-33.05714503700313
-33.64309147783627
-34.0337224383917
-30.22507057297627
-22.60776684214542
-16.748302433813993
-13.330281528953995
-9.42397192339971
-0.8300907911802854
20.84992751964599
57.471580071717405
93.40962844281681
97.12062256809338
49.17067215991455
-29.2484931715877
-90.47989623865111
-100.92927443350881
-69.77645532921339
-30.22507057297627
-4.443427176317998
3.466849774929427
1.513694972152285
-2.0019836728465705
-3.2715342946517127
-2.0019836728465705
-1.2207217517357138
-0.7324330510414282
0.8300907911802854
3.2715342946517127
6.201266498817426
7.275501640344854
6.201266498817426
4.736400396734569
4.736400396734569
6.591897459372854
7.861448081177996
9.81460288395514
13.13496604867628
15.869382772564279
17.041275654230564
14.892805371175708
11.670099946593423
10.400549324788281
11.47478446631571
13.427939269092851
14.50217441062028
16.650644693675137
19.87335011825742
21.43587396047913
21.24055848020142
19.48271915770199
17.920195315480278
16.84596017395285
14.50217441062028
10.205233844510566
5.517662317845426
4.638742656595713
6.884870679789426
7.666132600900283
5.908293278400855
2.0019836728465705
-1.9043259327077133
-6.201266498817426
-11.181811245899137
-15.771725032425422
-19.287403677424276
-19.971007858396277
-18.701457236591136
-17.334248874647134
-15.674067292286564
-15.771725032425422
-18.310826276035705
-20.84992751964599
-20.16632333867399
-15.674067292286564
-10.888838025482567
-6.494239719233997
-2.2949568932631417
-0.24414435034714274
-0.43945983062485694
-2.8809033340962844
-4.834058136873426
-4.248111696040284
-2.2949568932631417
-0.43945983062485694
0.14648661020828566
1.9043259327077133
5.224689097428855
7.275501640344854
7.763790341039139
5.615320057984283
2.197299153124285
-0.14648661020828566
-0.14648661020828566
2.783245593957427
4.931715877012284
5.0293736171511405
2.9785610742351416
0.24414435034714274
0.04882887006942855
0.43945983062485694
-0.24414435034714274
-1.8066681925688564
-2.5879301136797133
-1.9043259327077133
-2.0996414129854277
-2.392614633401999
-2.392614633401999
-2.8809033340962844
-2.5879301136797133
-2.5879301136797133
-2.8809033340962844
-3.466849774929427
-4.150453955901427
-3.8574807354848555
-3.662165255207141
-2.5879301136797133
-0.8300907911802854
0.04882887006942855
1.2207217517357138
2.0019836728465705
1.9043259327077133
1.2207217517357138
0.43945983062485694
0.9277485313191425
1.8066681925688564
3.1738765545128556
3.8574807354848555
2.5879301136797133
1.8066681925688564
1.8066681925688564
2.0996414129854277
2.0996414129854277
1.416037232013428
1.1230640115968566
0.8300907911802854
1.7090104524299992
3.1738765545128556
3.076218814373999
2.490272373540856
1.6113527122911422
0.8300907911802854
-0.14648661020828566
-2.5879301136797133
-5.810635538261997
-8.838025482566568
-8.74036774242771
-5.908293278400855
-3.9551384756237127
-3.076218814373999
-2.783245593957427
-1.416037232013428
0.24414435034714274
-1.513694972152285
-7.666132600900283
-15.967040512703136
-21.338216220340275
-23.096055542839704
-24.756237125200276
-25.63515678644999
-24.65857938506142
-21.24055848020142
-16.748302433813993
-15.967040512703136
-20.361638818951704
-27.1976806286717
-28.66254673075456
-18.60379949645228
6.591897459372854
49.073014419775696
93.8979171435111
111.28099488822767
76.90547035934996
-1.9043259327077133
-82.47196154726483
-120.85145342183566
-106.10513466086825
-63.6240177004654
-25.439841306172273
-3.9551384756237127
1.1230640115968566
-2.490272373540856
-6.494239719233997
-6.884870679789426
-3.36919203479057
0.9277485313191425
6.005951018539712
10.888838025482567
13.330281528953995
14.599832150759136
14.599832150759136
13.81857022964828
13.525597009231708
13.916227969787137
15.771725032425422
17.13893339436942
18.40848401617456
19.48271915770199
19.287403677424276
20.068665598535134
21.728847180895706
23.389028763256274
23.779659723811704
22.412451361867703
20.55695429922942
18.40848401617456
18.799114976729992
21.826504921034562
24.267948424505988
25.537499046311133
24.756237125200276
22.510109102006563
19.48271915770199
14.990463111314565
10.498207064927138
6.982528419928283
6.39658197909514
7.861448081177996
8.05676356145571
7.470817120622568
6.103608758678568
4.150453955901427
2.392614633401999
0.537117570763714
-1.513694972152285
-5.322346837567712
-9.033340962844282
-11.279468986037996
-13.037308308537423
-13.232623788815136
-12.45136186770428
-11.08415350576028
-9.130998702983138
-7.568474860761425
-7.080186160067139
-8.44739452201114
-8.545052262149996
-5.71297779812314
-2.2949568932631417
0.9277485313191425
3.076218814373999
4.052796215762569
3.662165255207141
1.513694972152285
-0.7324330510414282
-1.7090104524299992
1.2207217517357138
6.787212939650568
9.912260624093996
10.595864805065995
9.228656443121995
7.373159380483711
5.615320057984283
3.8574807354848555
2.392614633401999
0.6347753109025711
0.537117570763714
2.68558785381857
4.443427176317998
5.420004577706569
4.248111696040284
1.8066681925688564
0.6347753109025711
2.392614633401999
6.201266498817426
8.05676356145571
7.080186160067139
4.736400396734569
1.513694972152285
-0.43945983062485694
-2.68558785381857
-5.420004577706569
-7.177843900205997
-7.861448081177996
-7.470817120622568
-7.373159380483711
-6.494239719233997
-4.834058136873426
-3.9551384756237127
-2.783245593957427
-2.0996414129854277
-2.392614633401999
-2.8809033340962844
-3.1738765545128556
-2.197299153124285
-1.3183794918745708
0.14648661020828566
2.0019836728465705
2.2949568932631417
2.5879301136797133
2.490272373540856
1.1230640115968566
-1.2207217517357138
-4.541084916456855
-6.298924238956283
-5.420004577706569
-0.24414435034714274
7.177843900205997
11.670099946593423
12.060730907148852
8.44739452201114
2.68558785381857
-2.490272373540856
-6.591897459372854
-8.44739452201114
-7.861448081177996
-3.7598229953459983
1.9043259327077133
4.052796215762569
2.8809033340962844
0.04882887006942855
-0.7324330510414282
6.005951018539712
25.24452582589456
60.694285496299685
101.90585183489738
119.87487602044709
84.91340505073624
3.2715342946517127
-76.71015487907225
-111.76928358892195
-96.82764934767681
-58.8387884336614
-27.295338368810558
-13.037308308537423
-12.549019607843137
-15.47875181200885
-15.381094071869994
-13.037308308537423
-9.130998702983138
-6.103608758678568
-4.638742656595713
-3.1738765545128556
-1.1230640115968566
1.8066681925688564
3.466849774929427
4.345769436179141
5.908293278400855
7.177843900205997
8.154421301594567
7.373159380483711
4.931715877012284
2.68558785381857
1.2207217517357138
1.1230640115968566
1.416037232013428
3.076218814373999
6.201266498817426
8.838025482566568
11.377126726176853
12.84199282825971
11.963073167009995
9.71694514381628
7.080186160067139
6.39658197909514
6.982528419928283
8.44739452201114
9.81460288395514
9.912260624093996
10.79118028534371
11.08415350576028
9.326314183260854
6.591897459372854
3.8574807354848555
1.6113527122911422
-1.8066681925688564
-6.591897459372854
-12.353704127565424
-18.40848401617456
-21.728847180895706
-23.682001983672848
-26.22110322728313
-29.150835431448844
-31.787594415197987
-32.37354085603113
-31.103990234225986
-26.61173418783856
-20.068665598535134
-15.381094071869994
-11.572442206454566
-8.154421301594567
-5.0293736171511405
-2.9785610742351416
-2.9785610742351416
-3.8574807354848555
-4.736400396734569
-3.5645075150682843
-0.8300907911802854
0.24414435034714274
1.1230640115968566
2.0996414129854277
2.68558785381857
3.076218814373999
2.783245593957427
2.197299153124285
1.513694972152285
3.1738765545128556
7.763790341039139
12.060730907148852
14.599832150759136
13.916227969787137
10.693522545204852
6.982528419928283
3.7598229953459983
1.416037232013428
-0.8300907911802854
-1.8066681925688564
-1.1230640115968566
-0.43945983062485694
0.9277485313191425
2.0996414129854277
2.197299153124285
2.392614633401999
3.1738765545128556
5.0293736171511405
6.005951018539712
6.201266498817426
6.005951018539712
4.736400396734569
4.541084916456855
5.0293736171511405
5.420004577706569
5.810635538261997
5.420004577706569
4.150453955901427
1.6113527122911422
-0.14648661020828566
-0.7324330510414282
-1.3183794918745708
-0.7324330510414282
-0.43945983062485694
-1.3183794918745708
-1.9043259327077133
-1.6113527122911422
-0.6347753109025711
-0.6347753109025711
-1.416037232013428
-2.392614633401999
-4.150453955901427
-3.36919203479057
0.34180209048599985
5.420004577706569
9.228656443121995
8.349736781872283
3.36919203479057
-3.7598229953459983
-9.228656443121995
-11.865415426871138
-13.13496604867628
-10.10757610437171
-2.8809033340962844
4.248111696040284
7.373159380483711
4.541084916456855
-0.43945983062485694
-3.8574807354848555
-1.1230640115968566
12.256046387426567
40.186160067139696
79.54222934309911
104.64026855878538
84.81574731059739
18.60379949645228
-58.643472953383686
-102.58945601586939
-99.07377737087053
-66.74906538490883
-33.252460517280845
-14.306858930342566
-7.568474860761425
-7.470817120622568
-9.326314183260854
-9.81460288395514
-8.935683222705425
-6.884870679789426
-4.443427176317998
-0.8300907911802854
3.662165255207141
5.810635538261997
6.6895551995117115
6.982528419928283
7.080186160067139
7.177843900205997
5.322346837567712
2.0996414129854277
-0.7324330510414282
-0.24414435034714274
3.7598229953459983
7.666132600900283
11.377126726176853
14.013885709925994
14.404516670481422
12.84199282825971
9.619287403677424
6.884870679789426
6.298924238956283
9.130998702983138
13.916227969787137
17.041275654230564
18.89677271686885
18.994430457007706
17.236591134508277
14.990463111314565
11.865415426871138
8.349736781872283
5.0293736171511405
3.7598229953459983
4.150453955901427
3.9551384756237127
4.052796215762569
2.2949568932631417
-2.5879301136797133
-8.642710002288853
-14.306858930342566
-18.60379949645228
-22.21713588158999
-24.267948424505988
-24.4632639047837
-24.4632639047837
-22.60776684214542
-19.87335011825742
-17.82253757534142
-15.967040512703136
-14.306858930342566
-12.353704127565424
-10.79118028534371
-8.838025482566568
-5.908293278400855
-3.36919203479057
-0.6347753109025711
0.537117570763714
-0.14648661020828566
-0.6347753109025711
-0.24414435034714274
0.537117570763714
0.9277485313191425
1.8066681925688564
3.8574807354848555
4.834058136873426
6.39658197909514
7.959105821316854
8.74036774242771
8.642710002288853
6.982528419928283
4.345769436179141
1.416037232013428
0.14648661020828566
0.14648661020828566
-0.7324330510414282
-0.04882887006942855
2.490272373540856
5.0293736171511405
5.810635538261997
3.076218814373999
-0.9277485313191425
-3.8574807354848555
-4.052796215762569
-2.5879301136797133
-2.0019836728465705
-0.24414435034714274
2.8809033340962844
5.322346837567712
6.494239719233997
6.884870679789426
9.033340962844282
13.623254749370565
19.971007858396277
26.514076447699704
30.615701533531702
33.05714503700313
31.68993667505913
24.95155260547799
14.599832150759136
1.2207217517357138
-13.623254749370565
-27.97894254978256
-37.84237430380713
-41.358052948805984
-40.772106507972836
-36.27985046158541
-30.908674753948272
-27.783627069504846
-25.830472266727703
-23.779659723811704
-21.045242999923705
-18.799114976729992
-16.16235599298085
-9.326314183260854
6.884870679789426
38.818951705195694
76.51483939879454
93.01899748226138
65.8701457236591
1.7090104524299992
-60.79194323643854
-86.37827115281911
-71.1436636911574
-38.818951705195694
-14.892805371175708
-4.541084916456855
-3.5645075150682843
-6.298924238956283
-7.275501640344854
-6.494239719233997
-5.224689097428855
-4.834058136873426
-3.5645075150682843
-0.6347753109025711
1.416037232013428
4.052796215762569
6.787212939650568
8.252079041733426
9.228656443121995
9.521629663538567
9.912260624093996
9.912260624093996
9.521629663538567
8.349736781872283
6.201266498817426
6.6895551995117115
10.009918364232853
13.427939269092851
15.967040512703136
16.45532921339742
15.381094071869994
13.525597009231708
12.353704127565424
12.549019607843137
12.646677347981994
14.50217441062028
17.041275654230564
17.82253757534142
17.334248874647134
15.576409552147707
13.720912489509422
12.060730907148852
11.181811245899137
10.498207064927138
8.05676356145571
5.517662317845426
2.392614633401999
-2.197299153124285
-6.787212939650568
-12.060730907148852
-18.11551079575799
-24.072632944228275
-26.61173418783856
-24.4632639047837
-21.045242999923705
-17.13893339436942
-14.599832150759136
-14.599832150759136
-14.990463111314565
-15.47875181200885
-15.381094071869994
-14.306858930342566
-11.08415350576028
-6.787212939650568
-4.931715877012284
-3.9551384756237127
-2.490272373540856
-0.14648661020828566
3.076218814373999
4.931715877012284
4.443427176317998
2.0019836728465705
0.537117570763714
1.7090104524299992
3.7598229953459983
6.39658197909514
7.275501640344854
4.345769436179141
0.8300907911802854
-0.34180209048599985
1.7090104524299992
3.9551384756237127
3.662165255207141
1.0254062714579995
-2.5879301136797133
-2.9785610742351416
-0.537117570763714
1.416037232013428
2.68558785381857
2.68558785381857
3.466849774929427
7.080186160067139
14.697489890897993
24.072632944228275
30.322728313115128
33.74074921797513
34.424353398947126
30.908674753948272
22.60776684214542
7.763790341039139
-10.986495765621424
-28.564888990615703
-39.600213626306555
-44.19012741283284
-46.43625543602655
-45.26436255436027
-40.08850232700084
-32.764171816586554
-24.65857938506142
-18.994430457007706
-16.260013733119706
-15.185778591592278
-13.232623788815136
-8.252079041733426
1.416037232013428
23.389028763256274
59.32707713435569
94.38620584420539
102.19882505531396
63.13572899977112
-8.05676356145571
-70.06942854962998
-90.08926527809568
-69.87411306935225
-36.182192721446555
-9.81460288395514
1.6113527122911422
0.6347753109025711
-4.052796215762569
-7.470817120622568
-7.959105821316854
-6.787212939650568
-4.443427176317998
-0.24414435034714274
3.466849774929427
7.568474860761425
10.693522545204852
11.572442206454566
11.47478446631571
10.10757610437171
8.154421301594567
6.6895551995117115
7.959105821316854
11.767757686732281
14.013885709925994
14.306858930342566
12.74433508812085
10.302891584649425
10.10757610437171
12.256046387426567
15.674067292286564
18.60379949645228
20.45929655909056
20.84992751964599
18.017853055619135
14.599832150759136
12.84199282825971
12.74433508812085
14.990463111314565
17.041275654230564
17.627222095063708
16.45532921339742
13.916227969787137
10.79118028534371
7.177843900205997
5.322346837567712
3.36919203479057
-1.3183794918745708
-7.275501640344854
-12.549019607843137
-15.771725032425422
-17.334248874647134
-18.40848401617456
-19.678034637979707
-22.21713588158999
-22.021820401312276
-18.21316853589685
-13.427939269092851
-9.228656443121995
-7.568474860761425
-7.470817120622568
-7.861448081177996
-8.349736781872283
-8.349736781872283
-8.349736781872283
-5.615320057984283
-1.3183794918745708
0.9277485313191425
1.1230640115968566
0.04882887006942855
-0.43945983062485694
0.537117570763714
3.076218814373999
6.103608758678568
6.591897459372854
6.103608758678568
5.517662317845426
4.248111696040284
3.662165255207141
3.076218814373999
2.2949568932631417
1.8066681925688564
2.0019836728465705
2.783245593957427
2.0019836728465705
1.416037232013428
1.2207217517357138
0.04882887006942855
-1.0254062714579995
-2.0019836728465705
-2.5879301136797133
-2.9785610742351416
-2.5879301136797133
-1.3183794918745708
-0.43945983062485694
1.3183794918745708
2.8809033340962844
2.490272373540856
2.0996414129854277
2.0996414129854277
2.197299153124285
1.6113527122911422
0.7324330510414282
0.14648661020828566
-1.2207217517357138
-1.3183794918745708
0.537117570763714
2.68558785381857
4.248111696040284
3.076218814373999
0.04882887006942855
-2.392614633401999
-1.9043259327077133
0.6347753109025711
1.9043259327077133
2.392614633401999
2.2949568932631417
0.7324330510414282
-0.537117570763714
-2.0996414129854277
-3.5645075150682843
-5.127031357289998
-6.298924238956283
-6.884870679789426
-7.568474860761425
-5.908293278400855
-3.076218814373999
-2.392614633401999
-3.5645075150682843
-5.517662317845426
-6.494239719233997
-6.6895551995117115
-6.787212939650568
-6.787212939650568
-6.005951018539712
-0.14648661020828566
9.619287403677424
16.943617914091707
17.920195315480278
11.767757686732281
2.783245593957427
-4.638742656595713
-8.74036774242771
-9.71694514381628
-9.326314183260854
-5.127031357289998
1.7090104524299992
6.103608758678568
6.39658197909514
3.076218814373999
1.416037232013428
8.252079041733426
30.22507057297627
69.38582436865796
111.18333714808881
125.73434042877851
85.10872053101396
-1.9043259327077133
-86.37827115281911
-124.1718165865568
-109.32784008545052
-68.70222018768597
-32.56885633630884
-14.11154345006485
-12.060730907148852
-15.47875181200885
-17.13893339436942
-16.55298695353628
-14.306858930342566
-12.256046387426567
-10.400549324788281
-8.44739452201114
-6.201266498817426
-4.052796215762569
-3.5645075150682843
-1.9043259327077133
1.513694972152285
4.443427176317998
6.201266498817426
6.39658197909514
5.224689097428855
3.1738765545128556
0.9277485313191425
0.04882887006942855
0.04882887006942855
3.7598229953459983
9.619287403677424
12.939650568398566
13.037308308537423
10.400549324788281
7.959105821316854
7.373159380483711
8.252079041733426
9.81460288395514
10.693522545204852
12.84199282825971
15.576409552147707
15.869382772564279
14.599832150759136
12.549019607843137
10.79118028534371
9.521629663538567
7.470817120622568
3.8574807354848555
-1.0254062714579995
-3.7598229953459983
-5.127031357289998
-8.642710002288853
-13.623254749370565
-18.994430457007706
-22.90074006256199
-23.87731746395056
-21.43587396047913
-16.943617914091707
-13.525597009231708
-9.81460288395514
-5.71297779812314
-3.662165255207141
-3.662165255207141
-6.005951018539712
-9.033340962844282
-10.400549324788281
-9.912260624093996
-8.44739452201114
-7.861448081177996
-5.517662317845426
-0.6347753109025711
3.662165255207141
6.982528419928283
8.05676356145571
6.884870679789426
4.736400396734569
2.9785610742351416
2.392614633401999
1.7090104524299992
2.68558785381857
5.127031357289998
6.591897459372854
7.666132600900283
7.861448081177996
7.080186160067139
5.908293278400855
5.0293736171511405
4.248111696040284
1.513694972152285
-1.2207217517357138
-2.68558785381857
-3.36919203479057
-2.197299153124285
-1.513694972152285
-2.197299153124285
-2.5879301136797133
-0.8300907911802854
2.783245593957427
5.224689097428855
6.884870679789426
7.763790341039139
6.982528419928283
6.298924238956283
5.420004577706569
4.248111696040284
2.8809033340962844
1.9043259327077133
1.416037232013428
0.04882887006942855
-0.537117570763714
-0.6347753109025711
-1.8066681925688564
-1.513694972152285
0.537117570763714
3.2715342946517127
4.736400396734569
3.5645075150682843
0.7324330510414282
-2.68558785381857
-2.9785610742351416
0.24414435034714274
4.638742656595713
10.10757610437171
13.720912489509422
12.939650568398566
7.861448081177996
1.513694972152285
-3.1738765545128556
-7.080186160067139
-8.545052262149996
-7.568474860761425
-5.517662317845426
-1.8066681925688564
1.3183794918745708
2.0019836728465705
0.24414435034714274
-0.34180209048599985
5.615320057984283
23.19371328297856
57.471580071717405
99.95269703212024
122.70695048447395
98.19485770962082
24.560921644922562
-59.03410391393912
-104.34729533836881
-96.6323338673991
-60.01068131532769
-27.295338368810558
-10.79118028534371
-6.6895551995117115
-8.05676356145571
-8.838025482566568
-9.326314183260854
-10.693522545204852
-12.158388647287708
-11.08415350576028
-6.6895551995117115
-2.8809033340962844
-0.537117570763714
0.43945983062485694
0.6347753109025711
2.8809033340962844
6.39658197909514
8.838025482566568
9.130998702983138
8.154421301594567
7.373159380483711
5.908293278400855
5.615320057984283
6.591897459372854
6.6895551995117115
6.787212939650568
6.39658197909514
4.931715877012284
2.783245593957427
1.7090104524299992
3.076218814373999
5.517662317845426
8.44739452201114
10.498207064927138
10.009918364232853
9.326314183260854
8.252079041733426
6.6895551995117115
5.127031357289998
3.8574807354848555
3.1738765545128556
2.490272373540856
3.466849774929427
4.443427176317998
2.0019836728465705
-2.5879301136797133
-8.838025482566568
-15.576409552147707
-21.728847180895706
-26.61173418783856
-29.443808651865414
-30.908674753948272
-28.95551995117113
-24.365606164644845
-20.45929655909056
-16.55298695353628
-13.525597009231708
-12.158388647287708
-11.865415426871138
-10.986495765621424
-8.05676356145571
-4.736400396734569
-0.9277485313191425
1.6113527122911422
1.8066681925688564
2.68558785381857
5.224689097428855
7.470817120622568
7.275501640344854
4.248111696040284
1.0254062714579995
-1.2207217517357138
-0.8300907911802854
1.1230640115968566
1.8066681925688564
2.0019836728465705
1.3183794918745708
-0.34180209048599985
-2.392614633401999
-3.662165255207141
-3.36919203479057
-3.076218814373999
-2.197299153124285
-0.6347753109025711
1.0254062714579995
4.834058136873426
8.349736781872283
8.05676356145571
3.5645075150682843
-2.392614633401999
-6.201266498817426
-7.080186160067139
-4.736400396734569
-0.9277485313191425
1.2207217517357138
3.076218814373999
4.345769436179141
4.931715877012284
4.736400396734569
2.783245593957427
0.04882887006942855
-2.5879301136797133
-1.8066681925688564
2.0019836728465705
5.0293736171511405
6.982528419928283
6.6895551995117115
4.052796215762569
1.1230640115968566
-0.24414435034714274
0.04882887006942855
-0.24414435034714274
-1.3183794918745708
-1.8066681925688564
-1.513694972152285
1.8066681925688564
6.787212939650568
10.595864805065995
11.377126726176853
8.252079041733426
1.9043259327077133
-6.39658197909514
-12.158388647287708
-13.13496604867628
-10.888838025482567
-5.420004577706569
0.6347753109025711
4.541084916456855
4.541084916456855
0.537117570763714
-1.9043259327077133
4.638742656595713
30.322728313115128
75.53826199740597
123.97650110627909
144.28931105516136
104.93324177920195
11.572442206454566
-86.37827115281911
-137.3556115053025
-127.39452201113909
-83.25322346837568
-39.11192492561227
-14.013885709925994
-9.130998702983138
-12.256046387426567
-14.11154345006485
-11.865415426871138
-6.982528419928283
-2.2949568932631417
1.1230640115968566
2.0996414129854277
3.076218814373999
5.224689097428855
6.298924238956283
7.275501640344854
7.373159380483711
5.810635538261997
3.076218814373999
0.24414435034714274
-1.513694972152285
-3.2715342946517127
-3.2715342946517127
-1.0254062714579995
1.2207217517357138
4.638742656595713
8.252079041733426
10.498207064927138
10.498207064927138
8.349736781872283
6.494239719233997
5.908293278400855
7.763790341039139
10.79118028534371
12.549019607843137
13.720912489509422
13.720912489509422
12.74433508812085
11.767757686732281
9.912260624093996
6.39658197909514
1.9043259327077133
0.14648661020828566
1.6113527122911422
2.5879301136797133
1.9043259327077133
-2.2949568932631417
-9.912260624093996
-17.627222095063708
-22.60776684214542
-23.779659723811704
-23.291371023117417
-21.92416266117342
-20.84992751964599
-21.728847180895706
-22.21713588158999
-22.119478141451133
-21.728847180895706
-19.87335011825742
-16.45532921339742
-11.572442206454566
-7.470817120622568
-3.9551384756237127
-0.537117570763714
1.7090104524299992
4.736400396734569
6.494239719233997
5.420004577706569
2.783245593957427
0.24414435034714274
-0.6347753109025711
-0.8300907911802854
0.9277485313191425
4.150453955901427
6.005951018539712
8.05676356145571
10.693522545204852
12.45136186770428
12.549019607843137
10.10757610437171
6.298924238956283
1.7090104524299992
-1.1230640115968566
-1.7090104524299992
-2.197299153124285
-1.9043259327077133
-1.1230640115968566
-0.537117570763714
0.04882887006942855
-0.14648661020828566
-0.6347753109025711
-0.9277485313191425
1.1230640115968566
4.931715877012284
6.884870679789426
7.373159380483711
7.080186160067139
6.591897459372854
6.494239719233997
5.517662317845426
3.076218814373999
-0.24414435034714274
-1.7090104524299992
0.04882887006942855
2.68558785381857
6.39658197909514
9.912260624093996
11.767757686732281
11.47478446631571
8.74036774242771
4.736400396734569
0.537117570763714
-0.6347753109025711
0.9277485313191425
2.0019836728465705
2.392614633401999
2.2949568932631417
3.1738765545128556
6.103608758678568
8.642710002288853
8.05676356145571
2.8809033340962844
-2.9785610742351416
-7.080186160067139
-9.71694514381628
-9.326314183260854
-6.982528419928283
-4.834058136873426
-3.466849774929427
-3.466849774929427
-3.9551384756237127
-4.248111696040284
-1.513694972152285
7.080186160067139
24.365606164644845
55.22545204852369
93.80025940337224
117.72640573739223
99.26909285114824
30.029755092698558
-58.057526512550545
-115.57793545433738
-117.23811703669794
-80.32349126420996
-40.08850232700084
-15.576409552147707
-8.349736781872283
-10.888838025482567
-13.81857022964828
-13.427939269092851
-9.912260624093996
-6.298924238956283
-3.076218814373999
0.04882887006942855
1.7090104524299992
3.466849774929427
5.322346837567712
6.494239719233997
7.275501640344854
7.177843900205997
6.39658197909514
4.638742656595713
4.150453955901427
5.322346837567712
5.810635538261997
6.884870679789426
8.349736781872283
9.033340962844282
8.642710002288853
7.177843900205997
6.103608758678568
6.103608758678568
7.763790341039139
9.71694514381628
9.81460288395514
10.400549324788281
11.47478446631571
12.060730907148852
12.256046387426567
12.256046387426567
12.45136186770428
11.865415426871138
11.181811245899137
10.400549324788281
7.959105821316854
5.71297779812314
2.9785610742351416
-0.9277485313191425
-5.0293736171511405
-8.838025482566568
-11.767757686732281
-14.795147631036851
-17.334248874647134
-19.87335011825742
-23.291371023117417
-24.560921644922562
-23.389028763256274
-21.14290074006256
-17.82253757534142
-14.11154345006485
-10.79118028534371
-9.42397192339971
-9.326314183260854
-9.033340962844282
-8.642710002288853
-5.517662317845426
-0.8300907911802854
2.197299153124285
2.8809033340962844
1.3183794918745708
0.04882887006942855
-0.34180209048599985
0.537117570763714
1.8066681925688564
1.3183794918745708
1.513694972152285
2.392614633401999
2.5879301136797133
2.5879301136797133
2.68558785381857
3.662165255207141
4.345769436179141
5.224689097428855
6.39658197909514
6.103608758678568
6.39658197909514
7.763790341039139
8.74036774242771
7.861448081177996
3.36919203479057
-2.2949568932631417
-6.591897459372854
-6.6895551995117115
-3.8574807354848555
-1.7090104524299992
0.04882887006942855
1.2207217517357138
0.9277485313191425
-0.04882887006942855
-2.5879301136797133
-5.322346837567712
-7.275501640344854
-6.494239719233997
-3.5645075150682843
-1.7090104524299992
0.6347753109025711
3.662165255207141
5.71297779812314
6.201266498817426
4.541084916456855
2.490272373540856
1.7090104524299992
3.7598229953459983
7.861448081177996
10.10757610437171
9.81460288395514
5.908293278400855
-0.14648661020828566
-4.541084916456855
-6.005951018539712
-4.541084916456855
-1.8066681925688564
1.6113527122911422
4.248111696040284
3.466849774929427
1.513694972152285
-1.416037232013428
-5.908293278400855
-9.130998702983138
-8.545052262149996
-2.9785610742351416
3.5645075150682843
7.177843900205997
6.494239719233997
2.783245593957427
2.9785610742351416
11.181811245899137
29.834439612420844
61.08491645685512
96.82764934767681
114.69901579308767
89.40566109712367
19.971007858396277
-60.30365453574426
-108.2536049439231
-104.8355840390631
-70.36240177004655
-36.475165941863125
-18.60379949645228
-14.795147631036851
-15.771725032425422
-15.967040512703136
-13.916227969787137
-10.986495765621424
-9.912260624093996
-8.44739452201114
-5.615320057984283
-2.392614633401999
0.43945983062485694
0.8300907911802854
-1.3183794918745708
-4.443427176317998
-5.420004577706569
-4.248111696040284
-3.36919203479057
-0.43945983062485694
4.248111696040284
7.666132600900283
7.568474860761425
3.5645075150682843
-0.537117570763714
-1.9043259327077133
0.43945983062485694
4.638742656595713
6.494239719233997
7.861448081177996
9.228656443121995
10.205233844510566
11.572442206454566
12.549019607843137
13.427939269092851
13.720912489509422
13.81857022964828
13.623254749370565
12.549019607843137
12.74433508812085
13.13496604867628
11.279468986037996
7.861448081177996
3.36919203479057
-0.537117570763714
-3.8574807354848555
-6.787212939650568
-10.400549324788281
-15.283436331731137
-18.506141756313422
-19.971007858396277
-21.43587396047913
-22.021820401312276
-21.533531700617992
-19.971007858396277
-17.724879835202564
-13.81857022964828
-8.252079041733426
-3.9551384756237127
-0.24414435034714274
2.2949568932631417
2.8809033340962844
3.1738765545128556
3.9551384756237127
6.494239719233997
8.935683222705425
10.009918364232853
9.912260624093996
8.838025482566568
10.205233844510566
14.306858930342566
18.310826276035705
21.14290074006256
20.947585259784848
18.21316853589685
14.50217441062028
12.158388647287708
11.963073167009995
11.963073167009995
12.84199282825971
13.623254749370565
13.232623788815136
12.45136186770428
11.279468986037996
10.10757610437171
8.642710002288853
7.275501640344854
6.103608758678568
3.8574807354848555
3.1738765545128556
4.150453955901427
5.322346837567712
7.080186160067139
9.033340962844282
12.158388647287708
16.260013733119706
20.55695429922942
23.682001983672848
24.17029068436713
24.072632944228275
22.412451361867703
18.11551079575799
11.572442206454566
0.9277485313191425
-13.720912489509422
-29.736781872281988
-42.72526131074998
-50.34256504158083
-53.36995498588541
-50.24490730144198
-42.62760357061112
-34.22903791866941
-26.709391927977418
-22.119478141451133
-20.55695429922942
-21.533531700617992
-21.63118944075685
-16.748302433813993
-3.662165255207141
24.365606164644845
64.9912260624094
95.9487296864271
87.7454795147631
31.68993667505913
-41.065079728389414
-85.98764019226367
-84.91340505073624
-55.32310978866255
-25.92813000686656
-7.861448081177996
-0.537117570763714
-0.34180209048599985
-2.8809033340962844
-6.005951018539712
-7.568474860761425
-7.177843900205997
-4.443427176317998
-1.3183794918745708
-1.513694972152285
-2.197299153124285
0.24414435034714274
5.615320057984283
10.986495765621424
11.572442206454566
8.252079041733426
5.127031357289998
5.908293278400855
10.302891584649425
13.525597009231708
14.697489890897993
13.427939269092851
10.302891584649425
8.252079041733426
7.959105821316854
9.326314183260854
11.377126726176853
13.427939269092851
14.306858930342566
13.232623788815136
14.013885709925994
16.357671473258563
15.869382772564279
11.670099946593423
5.810635538261997
2.197299153124285
1.0254062714579995
0.9277485313191425
1.3183794918745708
0.6347753109025711
0.04882887006942855
-1.416037232013428
-4.345769436179141
-7.373159380483711
-11.865415426871138
-18.11551079575799
-24.95155260547799
-29.346150911726557
-29.2484931715877
-26.123445487144274
-20.361638818951704
-14.795147631036851
-12.646677347981994
-13.330281528953995
-15.381094071869994
-15.576409552147707
-12.45136186770428
-6.6895551995117115
-1.0254062714579995
0.8300907911802854
1.513694972152285
1.9043259327077133
1.0254062714579995
-0.24414435034714274
-2.197299153124285
-3.076218814373999
-2.5879301136797133
-2.0996414129854277
-3.2715342946517127
-6.884870679789426
-8.05676356145571
-4.931715877012284
0.04882887006942855
3.9551384756237127
4.541084916456855
3.7598229953459983
3.1738765545128556
2.5879301136797133
1.8066681925688564
-0.04882887006942855
-0.34180209048599985
0.537117570763714
0.7324330510414282
1.2207217517357138
2.392614633401999
4.638742656595713
6.201266498817426
5.810635538261997
4.150453955901427
1.416037232013428
0.34180209048599985
0.9277485313191425
1.3183794918745708
2.0996414129854277
2.2949568932631417
2.0019836728465705
1.2207217517357138
0.6347753109025711
0.43945983062485694
-0.6347753109025711
-0.9277485313191425
-0.04882887006942855
1.416037232013428
4.443427176317998
6.6895551995117115
6.787212939650568
4.638742656595713
2.0019836728465705
0.34180209048599985
-1.1230640115968566
-0.34180209048599985
2.783245593957427
6.201266498817426
8.74036774242771
8.44739452201114
5.517662317845426
1.7090104524299992
-0.04882887006942855
1.6113527122911422
4.638742656595713
7.177843900205997
6.298924238956283
1.8066681925688564
-1.7090104524299992
-2.392614633401999
-1.7090104524299992
-3.076218814373999
-6.494239719233997
-8.545052262149996
-7.470817120622568
-1.1230640115968566
7.568474860761425
13.13496604867628
13.13496604867628
7.763790341039139
0.7324330510414282
-4.736400396734569
-7.177843900205997
-6.39658197909514
-3.7598229953459983
1.1230640115968566
6.591897459372854
9.033340962844282
8.05676356145571
5.127031357289998
5.517662317845426
16.748302433813993
45.85030899519341
89.60097657740138
122.99992370489052
113.33180743114366
48.09643701838712
-41.651026169222554
-103.17540245670253
-111.6716258487831
-81.88601510643167
-45.26436255436027
-21.533531700617992
-12.549019607843137
-12.84199282825971
-12.549019607843137
-7.959105821316854
-2.68558785381857
-0.04882887006942855
-1.3183794918745708
-4.345769436179141
-7.080186160067139
-7.568474860761425
-4.541084916456855
-0.9277485313191425
2.392614633401999
4.541084916456855
4.834058136873426
5.224689097428855
5.908293278400855
6.884870679789426
7.568474860761425
8.935683222705425
11.865415426871138
13.720912489509422
13.427939269092851
10.888838025482567
7.568474860761425
7.373159380483711
9.619287403677424
11.47478446631571
10.400549324788281
7.666132600900283
6.787212939650568
7.861448081177996
11.865415426871138
16.55298695353628
18.89677271686885
18.89677271686885
16.748302433813993
14.209201190203707
11.767757686732281
9.033340962844282
4.345769436179141
-3.662165255207141
-11.08415350576028
-14.404516670481422
-14.990463111314565
-15.967040512703136
-21.045242999923705
-28.27191577019913
-34.61966887922484
-38.818951705195694
-40.772106507972836
-41.651026169222554
-39.40489814602884
-34.424353398947126
-30.029755092698558
-26.22110322728313
-23.58434424353399
-21.92416266117342
-21.045242999923705
-20.84992751964599
-20.947585259784848
-22.314793621728846
-21.826504921034562
-19.092088197146563
-15.967040512703136
-13.623254749370565
-13.623254749370565
-15.088120851453422
-16.16235599298085
-16.357671473258563
-15.381094071869994
-14.11154345006485
-11.08415350576028
-7.861448081177996
-6.298924238956283
-5.127031357289998
-4.736400396734569
-5.0293736171511405
-3.662165255207141
1.9043259327077133
10.986495765621424
15.967040512703136
13.037308308537423
3.1738765545128556
-9.42397192339971
-20.45929655909056
-30.71335927367056
-40.479133287556266
-49.26832990005341
-56.29968719005112
-59.522392614633404
-58.057526512550545
-51.51445792324712
-44.38544289311055
-40.86976424811169
-39.99084458686198
-41.651026169222554
-42.92057679102769
-40.772106507972836
-36.57282368200198
-32.6665140764477
-29.150835431448844
-22.21713588158999
-11.47478446631571
0.9277485313191425
13.623254749370565
23.682001983672848
32.86182955672541
43.11589227130541
53.36995498588541
62.2568093385214
69.19050888838025
78.07736324101626
88.91737239642939
96.24170290684367
98.58548867017625
98.87846189059282
101.90585183489738
106.39810788128482
109.1325246051728
107.66765850308995
99.26909285114824
86.37827115281911
72.80384527351796
59.62005035477226
48.291752498664835
38.91660944533455
32.08056763561456
26.025787747005417
18.799114976729992
11.181811245899137
4.638742656595713
4.052796215762569
14.013885709925994
38.42832074464027
77.68673228046082
113.9177538719768
118.21469443808652
74.5616845960174
0.537117570763714
-60.79194323643854
-77.78439002059967
-52.295719844357976
-12.353704127565424
16.55298695353628
30.22507057297627
35.20561532005799
40.67444876783398
50.04959182116426
60.01068131532769
67.23735408560312
72.41321431296254
72.31555657282368
61.37788967727169
54.24887464713512
59.71770809491112
50.24490730144198
27.881284809643702
32.56885633630884
41.651026169222554
18.310826276035705
5.0293736171511405
18.017853055619135
10.986495765621424
-4.638742656595713
4.638742656595713
8.838025482566568
-9.326314183260854
-17.920195315480278
-12.060730907148852
-14.795147631036851
-26.807049668116274
-33.252460517280845
-27.97894254978256
-26.90470740825513
-41.358052948805984
-48.48706797894255
-40.28381780727855
-41.26039520866713
-46.33859769588769
-38.23300526436255
-34.0337224383917
-38.91660944533455
-34.91264209964141
-28.564888990615703
-32.95948729686427
-35.889219501029984
-32.37354085603113
-36.67048142214084
-43.89715419241627
-42.04165712977798
-41.943999389639124
-45.16670481422141
-39.79552910658427
-32.95948729686427
-34.52201113908598
-36.96345464255741
-37.15877012283513
-44.38544289311055
-52.881666285191116
-52.19806210421912
-50.53788052185855
-51.02616922255284
-47.60814831769284
-45.45967803463798
-49.658960860608836
-53.467612726024264
-53.95590142671855
-57.56923781185626
-61.768520637827116
-60.49897001602197
-59.62005035477226
-59.42473487449455
-54.932478828107115
-49.365987640192266
-46.04562447547112
-42.72526131074998
-38.1353475242237
-35.79156176089113
-33.545433737697415
-27.881284809643702
-23.389028763256274
-20.752269779507134
-18.017853055619135
-17.52956435492485
-19.287403677424276
-20.55695429922942
-19.58037689784085
-18.60379949645228
-17.236591134508277
-13.720912489509422
-11.377126726176853
-10.009918364232853
-7.470817120622568
-5.224689097428855
-3.7598229953459983
-3.7598229953459983
-3.8574807354848555
-3.466849774929427
-1.9043259327077133
1.2207217517357138
2.2949568932631417
1.8066681925688564
1.7090104524299992
1.6113527122911422
2.0996414129854277
3.2715342946517127
5.127031357289998
5.810635538261997
4.834058136873426
4.052796215762569
2.68558785381857
1.8066681925688564
2.490272373540856
3.36919203479057
4.638742656595713
5.322346837567712
4.638742656595713
2.490272373540856
0.537117570763714
1.7090104524299992
5.908293278400855
13.525597009231708
22.510109102006563
28.27191577019913
29.541466392004274
26.025787747005417
19.87335011825742
13.427939269092851
9.42397192339971
10.205233844510566
14.209201190203707
20.84992751964599
27.100022888532845
28.467231250476843
26.025787747005417
23.974975204089418
27.392996108949415
38.23300526436255
60.108339055466544
95.46044098573282
128.66407263294423
130.3242542153048
82.37430380712597
3.5645075150682843
-58.25284199282826
-73.87808041504539
-52.78400854505226
-23.87731746395056
-6.298924238956283
-1.6113527122911422
-5.322346837567712
-8.545052262149996
-6.103608758678568
-0.8300907911802854
3.1738765545128556
4.248111696040284
3.7598229953459983
2.5879301136797133
0.04882887006942855
-2.9785610742351416
-6.201266498817426
-5.322346837567712
-0.14648661020828566
3.9551384756237127
5.127031357289998
4.248111696040284
4.638742656595713
5.71297779812314
5.71297779812314
5.322346837567712
4.931715877012284
6.787212939650568
10.10757610437171
10.79118028534371
8.44739452201114
5.0293736171511405
4.443427176317998
6.494239719233997
7.959105821316854
7.861448081177996
6.494239719233997
7.373159380483711
10.595864805065995
13.330281528953995
15.088120851453422
15.47875181200885
14.306858930342566
11.572442206454566
7.959105821316854
5.322346837567712
3.076218814373999
1.513694972152285
-0.9277485313191425
-5.517662317845426
-10.302891584649425
-15.185778591592278
-20.45929655909056
-26.22110322728313
-31.103990234225986
-32.471198596169984
-30.22507057297627
-23.779659723811704
-15.576409552147707
-10.400549324788281
-8.349736781872283
-7.373159380483711
-4.834058136873426
-0.43945983062485694
4.248111696040284
9.033340962844282
12.549019607843137
15.674067292286564
18.701457236591136
20.068665598535134
20.45929655909056
19.971007858396277
20.068665598535134
21.14290074006256
21.24055848020142
19.18974593728542
14.795147631036851
12.549019607843137
14.404516670481422
16.650644693675137
17.041275654230564
14.013885709925994
9.130998702983138
4.248111696040284
0.04882887006942855
-2.2949568932631417
-3.9551384756237127
-4.150453955901427
-3.7598229953459983
-4.150453955901427
-4.345769436179141
-5.224689097428855
-6.103608758678568
-6.201266498817426
-5.224689097428855
-3.076218814373999
-2.197299153124285
-2.490272373540856
-3.662165255207141
-6.103608758678568
-7.177843900205997
-6.982528419928283
-5.908293278400855
-4.443427176317998
-2.5879301136797133
0.7324330510414282
3.076218814373999
3.7598229953459983
2.392614633401999
-0.04882887006942855
-0.34180209048599985
1.416037232013428
3.8574807354848555
6.005951018539712
7.861448081177996
10.10757610437171
10.302891584649425
8.154421301594567
4.541084916456855
1.2207217517357138
1.9043259327077133
6.591897459372854
13.720912489509422
20.16632333867399
22.60776684214542
20.84992751964599
15.967040512703136
11.181811245899137
7.080186160067139
2.490272373540856
0.24414435034714274
1.513694972152285
5.615320057984283
8.74036774242771
7.080186160067139
1.513694972152285
-4.638742656595713
-4.736400396734569
6.494239719233997
32.86182955672541
73.09681849393453
107.96063172350652
109.1325246051728
62.35446707866026
-15.771725032425422
-84.3274586099031
-111.08567940794995
-95.06981002517739
-61.96383611810483
-37.4517433432517
-29.053177691309987
-32.6665140764477
-39.79552910658427
-44.873731593804834
-47.21751735713741
-47.51049057755398
-47.80346379797055
-47.31517509727627
-47.0222018768597
-49.46364538033112
-52.49103532463569
-54.54184786755169
-54.24887464713512
-50.14724956130312
-42.43228809033341
-32.471198596169984
-23.096055542839704
-13.916227969787137
-4.541084916456855
3.5645075150682843
10.888838025482567
16.260013733119706
20.55695429922942
23.974975204089418
25.830472266727703
26.807049668116274
27.97894254978256
32.764171816586554
41.16273746852827
48.19409475852598
52.10040436408026
52.588693064774546
50.53788052185855
46.533913176165406
42.13931486991684
39.79552910658427
38.33066300450141
36.96345464255741
35.20561532005799
31.103990234225986
24.65857938506142
15.869382772564279
7.275501640344854
0.7324330510414282
-3.5645075150682843
-6.201266498817426
-9.228656443121995
-12.353704127565424
-15.283436331731137
-18.994430457007706
-22.021820401312276
-23.87731746395056
-23.682001983672848
-22.021820401312276
-20.263981078812847
-18.21316853589685
-16.45532921339742
-12.939650568398566
-7.763790341039139
-3.9551384756237127
-1.2207217517357138
0.14648661020828566
1.1230640115968566
1.2207217517357138
-0.34180209048599985
-2.68558785381857
-5.615320057984283
-6.884870679789426
-5.517662317845426
-3.1738765545128556
0.14648661020828566
2.5879301136797133
3.2715342946517127
2.5879301136797133
1.513694972152285
1.3183794918745708
0.7324330510414282
0.04882887006942855
-0.04882887006942855
0.14648661020828566
2.2949568932631417
4.248111696040284
4.443427176317998
3.2715342946517127
1.6113527122911422
0.8300907911802854
0.04882887006942855
0.34180209048599985
2.392614633401999
4.248111696040284
5.810635538261997
6.298924238956283
6.298924238956283
6.298924238956283
4.834058136873426
2.197299153124285
-0.8300907911802854
-1.2207217517357138
1.9043259327077133
5.420004577706569
7.177843900205997
5.615320057984283
2.0019836728465705
-2.2949568932631417
-7.666132600900283
-11.767757686732281
-13.232623788815136
-10.302891584649425
-5.420004577706569
-2.9785610742351416
-1.8066681925688564
-0.9277485313191425
0.04882887006942855
0.8300907911802854
0.04882887006942855
-1.3183794918745708
-2.392614633401999
0.6347753109025711
8.252079041733426
15.088120851453422
16.748302433813993
11.572442206454566
3.7598229953459983
-1.9043259327077133
-5.0293736171511405
-6.298924238956283
-6.103608758678568
-2.392614633401999
4.052796215762569
8.05676356145571
7.763790341039139
3.8574807354848555
1.1230640115968566
5.810635538261997
24.365606164644845
61.08491645685512
103.4683756771191
120.46082246128023
83.83916990920882
4.736400396734569
-66.45609216449226
-91.26115815976196
-72.21789883268482
-39.307240405889985
-17.627222095063708
-11.377126726176853
-14.697489890897993
-18.21316853589685
-17.920195315480278
-16.064698252841993
-12.549019607843137
-7.763790341039139
-2.9785610742351416
-0.8300907911802854
-1.8066681925688564
-2.392614633401999
-1.2207217517357138
2.392614633401999
7.177843900205997
9.42397192339971
9.326314183260854
7.275501640344854
4.931715877012284
3.2715342946517127
1.8066681925688564
0.9277485313191425
0.04882887006942855
-0.24414435034714274
0.14648661020828566
0.04882887006942855
0.6347753109025711
1.8066681925688564
3.076218814373999
4.345769436179141
6.005951018539712
9.033340962844282
11.963073167009995
14.11154345006485
14.11154345006485
11.279468986037996
8.349736781872283
5.810635538261997
4.248111696040284
3.1738765545128556
0.43945983062485694
-3.662165255207141
-8.74036774242771
-11.767757686732281
-12.939650568398566
-14.50217441062028
-15.869382772564279
-18.506141756313422
-23.19371328297856
-28.857862211032273
-33.74074921797513
-35.20561532005799
-33.74074921797513
-29.63912413214313
-24.560921644922562
-21.533531700617992
-19.385061417563133
-17.334248874647134
-14.599832150759136
-11.08415350576028
-8.154421301594567
-5.420004577706569
-3.662165255207141
-2.197299153124285
-1.1230640115968566
-1.2207217517357138
-0.34180209048599985
1.1230640115968566
2.2949568932631417
2.5879301136797133
2.0996414129854277
2.2949568932631417
2.392614633401999
1.9043259327077133
0.14648661020828566
-3.1738765545128556
-5.224689097428855
-5.908293278400855
-6.201266498817426
-6.787212939650568
-7.861448081177996
-7.763790341039139
-5.908293278400855
-1.513694972152285
3.7598229953459983
6.787212939650568
7.666132600900283
6.103608758678568
2.8809033340962844
-0.24414435034714274
-3.076218814373999
-3.9551384756237127
-2.2949568932631417
2.392614633401999
8.74036774242771
14.404516670481422
20.45929655909056
25.92813000686656
29.150835431448844
29.053177691309987
24.4632639047837
16.748302433813993
6.39658197909514
-4.638742656595713
-15.869382772564279
-26.807049668116274
-33.64309147783627
-35.98687724116884
-34.61966887922484
-30.420386053253985
-25.342183566033416
-20.361638818951704
-16.45532921339742
-12.549019607843137
-8.642710002288853
-5.615320057984283
-0.7324330510414282
9.130998702983138
31.396963454642556
67.53032730601969
97.70656900892652
92.33539330128939
41.74868390936141
-25.63515678644999
-68.79987792782482
-70.55771725032426
-43.89715419241627
-15.381094071869994
-0.34180209048599985
2.0019836728465705
-0.7324330510414282
-1.8066681925688564
-0.8300907911802854
1.1230640115968566
2.9785610742351416
4.052796215762569
6.103608758678568
8.05676356145571
9.521629663538567
11.377126726176853
13.232623788815136
15.381094071869994
16.943617914091707
20.16632333867399
25.732814526588847
29.443808651865414
27.68596932936599
19.971007858396277
11.47478446631571
7.568474860761425
7.373159380483711
8.642710002288853
9.42397192339971
10.693522545204852
12.353704127565424
12.646677347981994
12.939650568398566
13.232623788815136
13.81857022964828
14.599832150759136
14.11154345006485
12.939650568398566
11.670099946593423
11.963073167009995
13.427939269092851
13.525597009231708
12.060730907148852
7.763790341039139
2.197299153124285
-1.2207217517357138
-2.392614633401999
-2.5879301136797133
-3.8574807354848555
-4.736400396734569
-4.345769436179141
-4.248111696040284
-3.662165255207141
-3.466849774929427
-3.662165255207141
-4.638742656595713
-7.177843900205997
-9.521629663538567
-10.302891584649425
-8.154421301594567
-5.71297779812314
-6.494239719233997
-7.763790341039139
-6.201266498817426
-1.3183794918745708
3.7598229953459983
5.420004577706569
4.052796215762569
1.513694972152285
0.8300907911802854
2.68558785381857
4.345769436179141
5.908293278400855
6.201266498817426
5.224689097428855
3.2715342946517127
1.1230640115968566
0.04882887006942855
-0.04882887006942855
1.8066681925688564
5.224689097428855
6.591897459372854
6.103608758678568
4.248111696040284
2.783245593957427
3.2715342946517127
5.420004577706569
9.326314183260854
12.45136186770428
14.795147631036851
17.724879835202564
21.92416266117342
28.174258030060273
32.178225375753414
29.443808651865414
20.947585259784848
10.10757610437171
1.3183794918745708
-5.908293278400855
-13.525597009231708
-22.119478141451133
-31.2993057145037
-37.549401083390556
-40.186160067139696
-39.893186846723125
-37.74471656366827
-34.717326619363696
-30.127412832837415
-25.342183566033416
-20.16632333867399
-15.088120851453422
-11.963073167009995
-6.982528419928283
6.494239719233997
35.10795757991913
72.99916075379568
94.48386358434425
74.65934233615626
15.869382772564279
-46.04562447547112
-75.73357747768368
-67.92095826657511
-40.96742198825055
-17.627222095063708
-7.959105821316854
-9.42397192339971
-14.892805371175708
-16.84596017395285
-14.697489890897993
-9.619287403677424
-3.36919203479057
1.1230640115968566
4.443427176317998
6.884870679789426
8.05676356145571
7.275501640344854
4.052796215762569
1.1230640115968566
0.04882887006942855
1.0254062714579995
2.9785610742351416
3.466849774929427
4.638742656595713
6.982528419928283
9.033340962844282
8.44739452201114
4.443427176317998
0.04882887006942855
-3.076218814373999
-4.541084916456855
-4.150453955901427
-3.076218814373999
-0.14648661020828566
3.36919203479057
6.005951018539712
6.884870679789426
5.224689097428855
2.9785610742351416
1.6113527122911422
2.2949568932631417
4.443427176317998
5.322346837567712
4.834058136873426
2.197299153124285
-2.0019836728465705
-6.6895551995117115
-11.377126726176853
-14.892805371175708
-17.627222095063708
-20.45929655909056
-24.365606164644845
-28.467231250476843
-29.346150911726557
-29.2484931715877
-31.494621194781413
-33.44777599755856
-31.2993057145037
-23.87731746395056
-16.650644693675137
-12.74433508812085
-11.767757686732281
-12.353704127565424
-10.693522545204852
-7.470817120622568
-4.736400396734569
-3.7598229953459983
-5.517662317845426
-7.861448081177996
-8.74036774242771
-5.71297779812314
0.14648661020828566
5.615320057984283
10.888838025482567
14.697489890897993
15.381094071869994
12.84199282825971
8.349736781872283
5.908293278400855
6.103608758678568
8.05676356145571
9.81460288395514
9.42397192339971
9.033340962844282
9.42397192339971
10.986495765621424
13.330281528953995
14.404516670481422
15.185778591592278
16.55298695353628
20.947585259784848
27.588311589227132
31.592278934920273
30.811017013809415
25.146868085755703
17.13893339436942
8.349736781872283
-2.490272373540856
-14.50217441062028
-24.95155260547799
-29.443808651865414
-26.709391927977418
-21.338216220340275
-16.84596017395285
-16.260013733119706
-18.701457236591136
-21.14290074006256
-22.998397802700847
-24.072632944228275
-24.560921644922562
-22.021820401312276
-13.525597009231708
4.541084916456855
37.15877012283513
74.5616845960174
91.74944686045625
68.11627374685283
10.595864805065995
-45.45967803463798
-69.87411306935225
-59.91302357518883
-35.10795757991913
-16.16235599298085
-7.763790341039139
-6.201266498817426
-5.224689097428855
-2.392614633401999
-1.513694972152285
-4.150453955901427
-8.154421301594567
-9.033340962844282
-5.71297779812314
-1.9043259327077133
1.416037232013428
2.5879301136797133
2.197299153124285
3.2715342946517127
6.884870679789426
12.646677347981994
17.13893339436942
18.994430457007706
18.60379949645228
16.45532921339742
15.47875181200885
15.185778591592278
14.599832150759136
14.599832150759136
15.674067292286564
18.701457236591136
21.14290074006256
21.338216220340275
19.092088197146563
16.260013733119706
17.334248874647134
21.826504921034562
26.416418707560844
28.467231250476843
26.61173418783856
22.803082322423133
17.52956435492485
10.009918364232853
-0.537117570763714
-11.47478446631571
-16.16235599298085
-14.50217441062028
-10.693522545204852
-8.349736781872283
-10.10757610437171
-14.599832150759136
-18.994430457007706
-18.994430457007706
-15.674067292286564
-14.697489890897993
-16.748302433813993
-19.775692378118563
-21.045242999923705
-19.48271915770199
-17.041275654230564
-13.525597009231708
-9.619287403677424
-5.0293736171511405
-0.14648661020828566
3.5645075150682843
7.763790341039139
11.865415426871138
14.306858930342566
14.599832150759136
12.060730907148852
8.154421301594567
4.345769436179141
2.8809033340962844
4.736400396734569
6.884870679789426
8.154421301594567
7.373159380483711
5.615320057984283
5.420004577706569
6.494239719233997
7.666132600900283
6.494239719233997
2.8809033340962844
-0.6347753109025711
-2.2949568932631417
-0.04882887006942855
3.2715342946517127
4.834058136873426
4.736400396734569
3.5645075150682843
2.68558785381857
1.513694972152285
0.24414435034714274
-0.6347753109025711
-1.9043259327077133
-1.7090104524299992
-0.7324330510414282
-0.04882887006942855
1.1230640115968566
2.490272373540856
4.248111696040284
4.443427176317998
3.36919203479057
1.8066681925688564
-0.14648661020828566
-0.6347753109025711
0.04882887006942855
0.9277485313191425
1.513694972152285
1.0254062714579995
0.24414435034714274
-0.34180209048599985
-0.14648661020828566
0.34180209048599985
-0.8300907911802854
-2.8809033340962844
-4.834058136873426
-5.810635538261997
-5.517662317845426
-6.005951018539712
-7.568474860761425
-9.521629663538567
-10.009918364232853
-8.74036774242771
-7.861448081177996
-6.39658197909514
-4.736400396734569
-4.052796215762569
-3.9551384756237127
-4.638742656595713
-4.931715877012284
-4.931715877012284
-4.052796215762569
-1.416037232013428
1.8066681925688564
5.71297779812314
7.666132600900283
6.103608758678568
2.8809033340962844
0.04882887006942855
-0.7324330510414282
-1.0254062714579995
-2.392614633401999
-5.517662317845426
-10.009918364232853
-11.767757686732281
-10.10757610437171
-5.71297779812314
2.197299153124285
16.45532921339742
41.74868390936141
74.46402685587854
95.16746776531625
79.3469138628214
23.58434424353399
-41.065079728389414
-79.15159838254368
-78.6633096818494
-54.15121690699626
-28.564888990615703
-13.623254749370565
-9.71694514381628
-10.79118028534371
-10.986495765621424
-9.42397192339971
-5.615320057984283
-1.9043259327077133
-0.6347753109025711
-1.2207217517357138
-2.5879301136797133
-2.490272373540856
-1.7090104524299992
-0.34180209048599985
1.513694972152285
2.197299153124285
2.490272373540856
2.2949568932631417
1.9043259327077133
2.8809033340962844
5.127031357289998
8.642710002288853
12.353704127565424
17.041275654230564
22.90074006256199
26.514076447699704
26.318760967421987
22.021820401312276
15.771725032425422
10.693522545204852
6.884870679789426
4.443427176317998
2.2949568932631417
0.7324330510414282
0.04882887006942855
-0.34180209048599985
1.6113527122911422
4.443427176317998
5.615320057984283
4.834058136873426
2.9785610742351416
2.392614633401999
3.2715342946517127
4.248111696040284
3.2715342946517127
-0.6347753109025711
-4.248111696040284
-6.6895551995117115
-8.642710002288853
-10.302891584649425
-12.353704127565424
-14.306858930342566
-16.260013733119706
-17.52956435492485
-18.310826276035705
-19.971007858396277
-19.385061417563133
-15.576409552147707
-10.400549324788281
-6.103608758678568
-5.0293736171511405
-5.908293278400855
-7.861448081177996
-8.935683222705425
-7.763790341039139
-5.322346837567712
-1.7090104524299992
1.2207217517357138
2.392614633401999
2.783245593957427
2.9785610742351416
4.052796215762569
4.736400396734569
4.248111696040284
2.783245593957427
0.34180209048599985
-0.7324330510414282
-0.6347753109025711
0.14648661020828566
2.0019836728465705
3.9551384756237127
6.005951018539712
6.494239719233997
4.736400396734569
1.1230640115968566
-3.5645075150682843
-5.420004577706569
-4.052796215762569
-1.7090104524299992
0.14648661020828566
-0.04882887006942855
-1.7090104524299992
-4.052796215762569
-4.834058136873426
-2.68558785381857
0.04882887006942855
2.5879301136797133
4.052796215762569
4.541084916456855
5.517662317845426
6.494239719233997
7.177843900205997
6.39658197909514
4.443427176317998
1.9043259327077133
-1.2207217517357138
-2.0019836728465705
-0.34180209048599985
1.513694972152285
2.197299153124285
0.7324330510414282
-1.1230640115968566
-3.1738765545128556
-4.443427176317998
-3.466849774929427
-0.14648661020828566
5.810635538261997
10.888838025482567
11.377126726176853
7.373159380483711
0.24414435034714274
-6.591897459372854
-11.572442206454566
-12.939650568398566
-10.10757610437171
-5.0293736171511405
0.9277485313191425
4.345769436179141
3.5645075150682843
1.3183794918745708
0.6347753109025711
5.908293278400855
22.021820401312276
52.002746623941405
85.30403601129167
95.75341420614939
64.89356832227054
2.0019836728465705
-56.88563363088426
-81.10475318532082
-71.04600595101854
-46.63157091630426
-26.318760967421987
-16.357671473258563
-14.209201190203707
-16.064698252841993
-16.45532921339742
-13.916227969787137
-10.498207064927138
-7.373159380483711
-5.615320057984283
-4.052796215762569
-2.490272373540856
-1.0254062714579995
0.34180209048599985
0.43945983062485694
1.3183794918745708
2.8809033340962844
3.2715342946517127
2.490272373540856
0.537117570763714
-0.04882887006942855
0.6347753109025711
2.197299153124285
3.7598229953459983
4.052796215762569
5.322346837567712
7.177843900205997
8.154421301594567
8.349736781872283
7.861448081177996
7.470817120622568
6.787212939650568
6.787212939650568
8.642710002288853
10.888838025482567
13.525597009231708
14.697489890897993
13.525597009231708
11.377126726176853
8.545052262149996
6.494239719233997
4.931715877012284
3.36919203479057
1.6113527122911422
-0.8300907911802854
-2.197299153124285
-3.2715342946517127
-6.005951018539712
-10.888838025482567
-17.52956435492485
-23.19371328297856
-25.92813000686656
-24.853894865339132
-21.533531700617992
-19.48271915770199
-17.334248874647134
-14.306858930342566
-11.377126726176853
-9.228656443121995
-7.959105821316854
-5.322346837567712
-1.9043259327077133
0.04882887006942855
-0.14648661020828566
-2.0996414129854277
-1.513694972152285
2.0019836728465705
5.908293278400855
8.44739452201114
8.642710002288853
7.959105821316854
7.080186160067139
6.494239719233997
6.494239719233997
6.005951018539712
6.201266498817426
6.982528419928283
7.470817120622568
6.884870679789426
4.248111696040284
1.7090104524299992
1.0254062714579995
3.1738765545128556
6.884870679789426
8.838025482566568
9.326314183260854
9.033340962844282
8.05676356145571
6.005951018539712
1.2207217517357138
-4.443427176317998
-8.838025482566568
-9.619287403677424
-6.982528419928283
-4.443427176317998
-2.197299153124285
-0.537117570763714
-0.14648661020828566
0.04882887006942855
-0.24414435034714274
0.04882887006942855
0.537117570763714
0.9277485313191425
1.3183794918745708
1.0254062714579995
1.513694972152285
2.68558785381857
3.8574807354848555
4.638742656595713
3.076218814373999
-0.43945983062485694
-4.150453955901427
-5.127031357289998
-2.490272373540856
0.7324330510414282
5.127031357289998
9.619287403677424
12.158388647287708
10.986495765621424
4.931715877012284
-2.5879301136797133
-9.521629663538567
-14.404516670481422
-15.576409552147707
-12.84199282825971
-5.908293278400855
0.6347753109025711
2.197299153124285
0.24414435034714274
-1.0254062714579995
2.783245593957427
13.916227969787137
35.010299839780274
65.18654154268711
87.7454795147631
78.27267872129397
26.709391927977418
-42.04165712977798
-86.08529793240254
-87.45250629434653
-60.108339055466544
-31.00633249408713
-15.283436331731137
-11.963073167009995
-13.623254749370565
-11.963073167009995
-6.494239719233997
-2.197299153124285
-1.7090104524299992
-4.931715877012284
-6.982528419928283
-6.005951018539712
-1.9043259327077133
3.076218814373999
6.005951018539712
7.959105821316854
9.42397192339971
9.71694514381628
8.44739452201114
5.224689097428855
3.076218814373999
3.2715342946517127
5.71297779812314
8.74036774242771
9.42397192339971
8.935683222705425
7.959105821316854
6.298924238956283
5.224689097428855
5.0293736171511405
5.908293278400855
6.787212939650568
7.470817120622568
8.74036774242771
9.71694514381628
10.693522545204852
10.79118028534371
9.912260624093996
9.71694514381628
9.521629663538567
9.130998702983138
7.666132600900283
5.127031357289998
2.2949568932631417
-1.0254062714579995
-3.466849774929427
-5.908293278400855
-9.619287403677424
-13.916227969787137
-18.506141756313422
-22.021820401312276
-23.58434424353399
-22.705424582284277
-20.263981078812847
-19.18974593728542
-18.506141756313422
-16.45532921339742
-13.13496604867628
-9.130998702983138
-6.982528419928283
-6.103608758678568
-6.005951018539712
-5.517662317845426
-3.36919203479057
-0.14648661020828566
4.736400396734569
8.74036774242771
9.326314183260854
7.666132600900283
5.810635538261997
5.71297779812314
5.908293278400855
4.345769436179141
1.9043259327077133
0.34180209048599985
2.9785610742351416
7.470817120622568
9.130998702983138
7.861448081177996
6.201266498817426
7.080186160067139
7.861448081177996
5.0293736171511405
-0.6347753109025711
-5.615320057984283
-4.150453955901427
1.9043259327077133
6.103608758678568
4.834058136873426
-0.537117570763714
-3.9551384756237127
-2.8809033340962844
0.9277485313191425
4.345769436179141
4.345769436179141
3.076218814373999
2.0996414129854277
1.513694972152285
1.2207217517357138
-0.24414435034714274
-2.68558785381857
-4.443427176317998
-4.150453955901427
-2.2949568932631417
-1.3183794918745708
0.04882887006942855
2.0996414129854277
3.466849774929427
2.8809033340962844
0.14648661020828566
-2.197299153124285
-3.2715342946517127
-2.783245593957427
-0.9277485313191425
1.3183794918745708
5.908293278400855
11.670099946593423
15.088120851453422
13.916227969787137
7.275501640344854
-0.8300907911802854
-6.787212939650568
-8.642710002288853
-7.275501640344854
-5.615320057984283
-2.9785610742351416
-0.14648661020828566
0.9277485313191425
0.24414435034714274
-1.3183794918745708
1.513694972152285
15.674067292286564
47.31517509727627
94.38620584420539
135.69542992294194
137.8439002059968
79.44457160296025
-17.041275654230564
-97.02296482795452
-123.78118562600137
-101.71053635461966
-62.45212481879911
-31.68993667505913
-15.869382772564279
-11.377126726176853
-11.377126726176853
-12.74433508812085
-14.795147631036851
-15.47875181200885
-14.306858930342566
-10.986495765621424
-7.763790341039139
-6.005951018539712
-5.127031357289998
-4.541084916456855
-1.0254062714579995
3.9551384756237127
7.080186160067139
6.884870679789426
3.662165255207141
-0.04882887006942855
-2.8809033340962844
-3.466849774929427
-1.513694972152285
1.0254062714579995
5.615320057984283
11.865415426871138
16.55298695353628
16.943617914091707
11.865415426871138
5.224689097428855
0.34180209048599985
-1.2207217517357138
-0.43945983062485694
0.14648661020828566
2.197299153124285
5.517662317845426
8.349736781872283
9.912260624093996
9.326314183260854
8.44739452201114
8.154421301594567
7.861448081177996
5.908293278400855
0.7324330510414282
-4.443427176317998
-8.642710002288853
-12.060730907148852
-13.623254749370565
-14.697489890897993
-16.260013733119706
-19.48271915770199
-22.412451361867703
-22.705424582284277
-21.045242999923705
-17.627222095063708
-14.11154345006485
-11.865415426871138
-9.619287403677424
-7.568474860761425
-5.0293736171511405
-2.68558785381857
-0.537117570763714
0.8300907911802854
0.14648661020828566
-0.24414435034714274
0.9277485313191425
3.5645075150682843
6.103608758678568
6.005951018539712
4.052796215762569
2.2949568932631417
2.783245593957427
5.517662317845426
7.080186160067139
7.080186160067139
5.71297779812314
3.9551384756237127
4.443427176317998
6.39658197909514
8.252079041733426
8.05676356145571
5.420004577706569
2.5879301136797133
0.6347753109025711
1.3183794918745708
2.9785610742351416
3.7598229953459983
4.541084916456855
4.736400396734569
3.9551384756237127
2.0019836728465705
1.2207217517357138
3.076218814373999
4.736400396734569
4.541084916456855
1.7090104524299992
-2.0996414129854277
-3.9551384756237127
-3.8574807354848555
-1.8066681925688564
1.8066681925688564
7.177843900205997
13.525597009231708
18.799114976729992
24.65857938506142
31.68993667505913
37.06111238269627
37.549401083390556
29.9320973525597
15.967040512703136
-0.14648661020828566
-15.381094071869994
-27.68596932936599
-36.475165941863125
-38.33066300450141
-33.44777599755856
-26.22110322728313
-20.947585259784848
-20.45929655909056
-21.92416266117342
-22.60776684214542
-21.63118944075685
-18.799114976729992
-13.623254749370565
0.24414435034714274
29.736781872281988
72.5108720531014
107.08171206225681
99.07377737087053
38.62363622491798
-42.04165712977798
-94.09323262378882
-95.55809872587167
-64.60059510185397
-29.834439612420844
-8.838025482566568
-3.1738765545128556
-5.0293736171511405
-8.74036774242771
-10.693522545204852
-10.205233844510566
-7.080186160067139
-1.513694972152285
2.490272373540856
3.8574807354848555
2.68558785381857
0.537117570763714
0.24414435034714274
2.392614633401999
6.298924238956283
8.935683222705425
8.838025482566568
7.666132600900283
6.6895551995117115
8.44739452201114
12.158388647287708
14.892805371175708
16.357671473258563
16.357671473258563
16.650644693675137
17.334248874647134
17.52956435492485
16.650644693675137
14.599832150759136
15.185778591592278
19.971007858396277
27.392996108949415
35.20561532005799
39.79552910658427
40.772106507972836
38.42832074464027
33.15480277714199
27.1976806286717
22.90074006256199
20.84992751964599
16.16235599298085
6.884870679789426
-2.197299153124285
-9.912260624093996
-16.650644693675137
-24.65857938506142
-34.424353398947126
-44.77607385366598
-54.346532387273975
-57.95986877241169
-54.54184786755169
-47.998779278248264
-41.84634164950027
-38.33066300450141
-36.182192721446555
-33.93606469825284
-30.22507057297627
-24.17029068436713
-17.43190661478599
-9.71694514381628
-2.197299153124285
2.68558785381857
5.0293736171511405
4.638742656595713
5.127031357289998
10.595864805065995
22.314793621728846
34.81498435950255
35.10795757991913
17.724879835202564
-6.884870679789426
-18.799114976729992
-6.787212939650568
15.967040512703136
26.123445487144274
11.572442206454566
-17.041275654230564
-39.600213626306555
-46.04562447547112
-39.40489814602884
-30.908674753948272
-26.318760967421987
-19.48271915770199
-5.127031357289998
15.088120851453422
32.178225375753414
39.69787136644541
39.307240405889985
34.22903791866941
28.66254673075456
23.58434424353399
19.18974593728542
16.748302433813993
15.381094071869994
14.50217441062028
12.939650568398566
10.79118028534371
9.81460288395514
9.912260624093996
12.158388647287708
14.795147631036851
14.892805371175708
12.549019607843137
8.44739452201114
5.615320057984283
5.322346837567712
6.39658197909514
7.470817120622568
7.177843900205997
7.763790341039139
9.619287403677424
11.279468986037996
12.74433508812085
12.549019607843137
11.279468986037996
9.81460288395514
8.349736781872283
7.373159380483711
5.810635538261997
5.127031357289998
4.248111696040284
1.8066681925688564
-1.1230640115968566
-4.931715877012284
-9.326314183260854
-14.11154345006485
-19.287403677424276
-24.560921644922562
-30.127412832837415
-33.252460517280845
-33.74074921797513
-32.6665140764477
-29.63912413214313
-25.342183566033416
-20.55695429922942
-17.334248874647134
-16.16235599298085
-14.697489890897993
-12.45136186770428
-7.470817120622568
-1.3183794918745708
2.783245593957427
3.8574807354848555
1.9043259327077133
-0.34180209048599985
-1.416037232013428
-0.7324330510414282
1.6113527122911422
3.1738765545128556
3.662165255207141
2.5879301136797133
0.43945983062485694
-1.416037232013428
-4.834058136873426
-9.326314183260854
-12.353704127565424
-10.79118028534371
-4.541084916456855
1.0254062714579995
3.7598229953459983
3.2715342946517127
0.7324330510414282
-0.8300907911802854
-0.7324330510414282
1.416037232013428
3.5645075150682843
3.7598229953459983
2.2949568932631417
-0.537117570763714
-2.783245593957427
-4.052796215762569
-5.224689097428855
-5.224689097428855
-4.248111696040284
-1.3183794918745708
2.2949568932631417
4.931715877012284
5.908293278400855
4.541084916456855
3.2715342946517127
3.5645075150682843
5.810635538261997
9.42397192339971
10.888838025482567
8.642710002288853
4.150453955901427
0.537117570763714
0.34180209048599985
1.513694972152285
3.662165255207141
6.103608758678568
7.470817120622568
6.787212939650568
2.9785610742351416
-1.416037232013428
-3.9551384756237127
-4.834058136873426
-5.517662317845426
-6.39658197909514
-3.1738765545128556
4.345769436179141
10.400549324788281
9.81460288395514
1.513694972152285
-7.666132600900283
-12.158388647287708
-11.377126726176853
-7.177843900205997
-2.783245593957427
1.6113527122911422
4.150453955901427
3.076218814373999
1.2207217517357138
2.490272373540856
13.232623788815136
39.5025558861677
81.10475318532082
122.31631952391852
131.69146257724879
87.06187533379111
0.14648661020828566
-82.66727702754254
-118.5076676585031
-104.93324177920195
-68.60456244754711
-36.67048142214084
-18.994430457007706
-11.865415426871138
-9.912260624093996
-8.838025482566568
-7.763790341039139
-7.568474860761425
-6.6895551995117115
-5.71297779812314
-4.931715877012284
-4.736400396734569
-2.8809033340962844
2.2949568932631417
6.982528419928283
8.74036774242771
7.666132600900283
6.005951018539712
6.6895551995117115
8.349736781872283
8.935683222705425
7.275501640344854
4.345769436179141
3.36919203479057
4.736400396734569
8.935683222705425
13.720912489509422
15.381094071869994
13.623254749370565
9.521629663538567
6.591897459372854
5.71297779812314
5.908293278400855
6.787212939650568
6.982528419928283
6.982528419928283
6.103608758678568
3.9551384756237127
2.68558785381857
1.6113527122911422
0.6347753109025711
0.24414435034714274
2.783245593957427
8.935683222705425
14.404516670481422
14.990463111314565
8.838025482566568
-1.416037232013428
-10.693522545204852
-18.21316853589685
-23.974975204089418
-28.076600289921416
-29.736781872281988
-28.564888990615703
-26.318760967421987
-22.60776684214542
-18.21316853589685
-14.990463111314565
-12.646677347981994
-11.572442206454566
-10.498207064927138
-8.935683222705425
-7.177843900205997
-5.127031357289998
-3.662165255207141
-1.6113527122911422
0.7324330510414282
2.197299153124285
3.9551384756237127
5.517662317845426
6.494239719233997
6.494239719233997
6.103608758678568
6.6895551995117115
7.080186160067139
7.373159380483711
6.982528419928283
5.420004577706569
3.5645075150682843
0.8300907911802854
-1.8066681925688564
-3.662165255207141
-4.541084916456855
-3.9551384756237127
-3.2715342946517127
-1.2207217517357138
1.416037232013428
3.076218814373999
3.2715342946517127
1.2207217517357138
-1.3183794918745708
-2.8809033340962844
-2.68558785381857
-0.9277485313191425
0.24414435034714274
1.6113527122911422
3.076218814373999
4.248111696040284
6.103608758678568
7.861448081177996
9.033340962844282
8.154421301594567
4.931715877012284
1.0254062714579995
-2.0996414129854277
-1.9043259327077133
1.2207217517357138
4.248111696040284
5.810635538261997
3.9551384756237127
-0.43945983062485694
-5.71297779812314
-9.521629663538567
-9.326314183260854
-5.71297779812314
0.7324330510414282
7.177843900205997
9.619287403677424
8.252079041733426
3.8574807354848555
-0.8300907911802854
-4.638742656595713
-7.080186160067139
-7.177843900205997
-5.517662317845426
-2.0019836728465705
1.3183794918745708
1.7090104524299992
-0.34180209048599985
-3.36919203479057
-1.9043259327077133
9.521629663538567
36.57282368200198
79.3469138628214
119.48424505989166
124.8554207675288
73.58510719462882
-14.599832150759136
-88.33142595559625
-113.03883421072709
-93.01899748226138
-57.764553292133975
-31.787594415197987
-20.55695429922942
-19.287403677424276
-18.310826276035705
-13.525597009231708
-7.275501640344854
-2.2949568932631417
-0.43945983062485694
-0.24414435034714274
-0.34180209048599985
0.14648661020828566
1.416037232013428
1.6113527122911422
2.8809033340962844
7.275501640344854
12.353704127565424
14.697489890897993
11.377126726176853
5.322346837567712
1.0254062714579995
0.537117570763714
3.5645075150682843
7.177843900205997
10.498207064927138
12.549019607843137
12.158388647287708
10.79118028534371
9.033340962844282
7.666132600900283
6.591897459372854
6.103608758678568
7.568474860761425
10.10757610437171
13.623254749370565
15.869382772564279
14.990463111314565
12.549019607843137
9.42397192339971
7.373159380483711
6.6895551995117115
6.103608758678568
4.541084916456855
1.0254062714579995
-2.0996414129854277
-5.0293736171511405
-8.74036774242771
-12.45136186770428
-16.45532921339742
-19.87335011825742
-22.510109102006563
-24.4632639047837
-25.049210345616846
-24.95155260547799
-22.510109102006563
-17.920195315480278
-13.330281528953995
-9.130998702983138
-6.005951018539712
-3.36919203479057
-1.8066681925688564
-1.8066681925688564
-2.490272373540856
-4.150453955901427
-4.736400396734569
-3.466849774929427
-1.416037232013428
1.3183794918745708
3.2715342946517127
4.150453955901427
3.662165255207141
2.490272373540856
2.2949568932631417
2.68558785381857
4.052796215762569
5.0293736171511405
4.345769436179141
3.7598229953459983
3.466849774929427
3.5645075150682843
3.1738765545128556
2.0019836728465705
1.0254062714579995
0.14648661020828566
0.6347753109025711
1.9043259327077133
1.8066681925688564
0.43945983062485694
-2.392614633401999
-5.224689097428855
-7.080186160067139
-7.763790341039139
-7.177843900205997
-6.298924238956283
-3.9551384756237127
-0.43945983062485694
2.197299153124285
4.052796215762569
4.443427176317998
3.9551384756237127
3.662165255207141
4.931715877012284
8.935683222705425
12.158388647287708
11.865415426871138
7.763790341039139
2.0996414129854277
-1.0254062714579995
-2.490272373540856
-3.662165255207141
-5.615320057984283
-7.568474860761425
-8.154421301594567
-7.470817120622568
-4.052796215762569
2.68558785381857
10.10757610437171
14.50217441062028
11.670099946593423
2.9785610742351416
-6.884870679789426
-13.525597009231708
-14.50217441062028
-11.47478446631571
-5.71297779812314
-0.24414435034714274
1.7090104524299992
0.9277485313191425
-1.416037232013428
-2.0019836728465705
1.9043259327077133
13.720912489509422
39.893186846723125
79.24925612268254
111.96459906919966
104.54261081864652
44.77607385366598
-36.57282368200198
-92.72602426184481
-100.14801251239795
-72.70618753337911
-39.40489814602884
-17.52956435492485
-10.205233844510566
-10.205233844510566
-10.693522545204852
-9.326314183260854
-4.931715877012284
0.24414435034714274
4.345769436179141
5.615320057984283
4.052796215762569
2.5879301136797133
2.0996414129854277
3.8574807354848555
6.494239719233997
7.763790341039139
8.05676356145571
7.177843900205997
6.787212939650568
7.275501640344854
7.080186160067139
5.71297779812314
2.8809033340962844
2.197299153124285
5.224689097428855
9.619287403677424
13.232623788815136
14.209201190203707
13.623254749370565
12.45136186770428
10.498207064927138
8.838025482566568
8.154421301594567
10.009918364232853
13.330281528953995
15.381094071869994
15.869382772564279
13.427939269092851
9.81460288395514
7.470817120622568
6.787212939650568
6.787212939650568
5.420004577706569
3.36919203479057
0.537117570763714
-3.662165255207141
-8.545052262149996
-15.088120851453422
-22.803082322423133
-29.63912413214313
-33.05714503700313
-31.103990234225986
-26.514076447699704
-21.045242999923705
-16.943617914091707
-15.185778591592278
-13.81857022964828
-12.256046387426567
-10.205233844510566
-8.44739452201114
-7.861448081177996
-7.373159380483711
-6.787212939650568
-4.248111696040284
-0.43945983062485694
2.0019836728465705
3.466849774929427
3.7598229953459983
4.052796215762569
4.052796215762569
2.8809033340962844
1.3183794918745708
-0.8300907911802854
-1.6113527122911422
-0.24414435034714274
1.3183794918745708
2.5879301136797133
1.9043259327077133
0.14648661020828566
-1.513694972152285
-2.490272373540856
-1.513694972152285
0.14648661020828566
2.8809033340962844
5.810635538261997
7.666132600900283
9.033340962844282
8.935683222705425
7.861448081177996
6.005951018539712
3.662165255207141
1.8066681925688564
-0.04882887006942855
-1.1230640115968566
-0.9277485313191425
-0.04882887006942855
2.9785610742351416
7.763790341039139
13.720912489509422
19.58037689784085
23.58434424353399
24.756237125200276
22.60776684214542
19.18974593728542
15.283436331731137
8.74036774242771
-1.6113527122911422
-16.84596017395285
-32.764171816586554
-43.018234531166556
-44.580758373388264
-38.33066300450141
-30.029755092698558
-22.803082322423133
-17.43190661478599
-14.209201190203707
-11.767757686732281
-10.595864805065995
-9.42397192339971
-5.615320057984283
5.517662317845426
31.787594415197987
70.55771725032426
100.44098573281453
90.18692301823454
32.86182955672541
-37.74471656366827
-79.05394064240483
-75.34294651712825
-45.069047074082555
-16.064698252841993
-1.0254062714579995
0.34180209048599985
-2.9785610742351416
-4.248111696040284
-2.197299153124285
1.7090104524299992
3.9551384756237127
3.662165255207141
2.0996414129854277
0.43945983062485694
0.34180209048599985
0.7324330510414282
1.513694972152285
1.7090104524299992
0.9277485313191425
1.416037232013428
3.2715342946517127
5.615320057984283
6.884870679789426
7.177843900205997
8.545052262149996
10.498207064927138
12.84199282825971
14.795147631036851
15.674067292286564
16.357671473258563
16.55298695353628
17.236591134508277
19.092088197146563
21.63118944075685
24.267948424505988
24.4632639047837
22.314793621728846
18.89677271686885
15.283436331731137
12.939650568398566
9.619287403677424
4.248111696040284
-2.5879301136797133
-9.71694514381628
-14.50217441062028
-16.357671473258563
-15.088120851453422
-14.50217441062028
-18.21316853589685
-24.65857938506142
-30.908674753948272
-33.93606469825284
-33.545433737697415
-31.787594415197987
-29.2484931715877
-27.588311589227132
-25.732814526588847
-22.60776684214542
-17.920195315480278
-11.181811245899137
-5.127031357289998
-2.0019836728465705
-2.490272373540856
-4.931715877012284
-6.005951018539712
-4.736400396734569
-0.537117570763714
4.834058136873426
8.545052262149996
10.693522545204852
11.865415426871138
13.037308308537423
13.232623788815136
10.595864805065995
6.298924238956283
2.490272373540856
2.68558785381857
6.982528419928283
11.767757686732281
14.11154345006485
12.158388647287708
8.252079041733426
5.615320057984283
4.541084916456855
3.7598229953459983
1.3183794918745708
-0.8300907911802854
-1.2207217517357138
-0.6347753109025711
-0.43945983062485694
-2.392614633401999
-4.931715877012284
-6.005951018539712
-6.005951018539712
-5.224689097428855
-5.127031357289998
-3.36919203479057
0.9277485313191425
5.517662317845426
8.252079041733426
6.591897459372854
2.197299153124285
-1.513694972152285
-3.36919203479057
-3.076218814373999
-2.2949568932631417
-1.416037232013428
-1.513694972152285
-3.076218814373999
-2.490272373540856
1.0254062714579995
5.420004577706569
7.080186160067139
5.127031357289998
2.0996414129854277
-0.34180209048599985
-0.34180209048599985
2.0996414129854277
4.736400396734569
5.71297779812314
3.36919203479057
-0.04882887006942855
-2.783245593957427
-5.517662317845426
-7.959105821316854
-9.619287403677424
-9.228656443121995
-8.44739452201114
-9.033340962844282
-7.763790341039139
-3.36919203479057
2.9785610742351416
7.666132600900283
7.861448081177996
5.224689097428855
1.2207217517357138
-2.0019836728465705
-4.931715877012284
-8.154421301594567
-8.349736781872283
-4.931715877012284
-0.04882887006942855
2.5879301136797133
1.9043259327077133
1.3183794918745708
4.638742656595713
17.82253757534142
46.240939955748836
89.7962920576791
134.4258793011368
146.73075455863278
102.00350957503625
12.353704127565424
-78.07736324101626
-125.5390249485008
-119.77721828030823
-81.49538414587624
-40.772106507972836
-16.55298695353628
-9.42397192339971
-11.572442206454566
-14.013885709925994
-13.232623788815136
-11.47478446631571
-10.498207064927138
-10.888838025482567
-8.74036774242771
-2.783245593957427
3.1738765545128556
6.6895551995117115
6.494239719233997
5.420004577706569
4.931715877012284
4.541084916456855
4.150453955901427
3.1738765545128556
3.7598229953459983
7.666132600900283
13.330281528953995
18.40848401617456
18.701457236591136
14.11154345006485
6.884870679789426
0.34180209048599985
-2.68558785381857
-2.2949568932631417
1.416037232013428
6.005951018539712
8.05676356145571
8.838025482566568
9.912260624093996
12.158388647287708
13.427939269092851
11.865415426871138
9.912260624093996
8.838025482566568
9.130998702983138
7.959105821316854
3.9551384756237127
-0.24414435034714274
-4.052796215762569
-7.177843900205997
-10.498207064927138
-15.381094071869994
-20.84992751964599
-24.853894865339132
-24.267948424505988
-20.263981078812847
-17.82253757534142
-18.40848401617456
-21.92416266117342
-25.830472266727703
-27.68596932936599
-26.416418707560844
-21.43587396047913
-14.795147631036851
-6.982528419928283
0.43945983062485694
4.638742656595713
5.517662317845426
3.9551384756237127
2.490272373540856
2.0019836728465705
1.8066681925688564
2.392614633401999
2.8809033340962844
4.541084916456855
7.568474860761425
10.10757610437171
12.84199282825971
14.795147631036851
15.576409552147707
13.525597009231708
8.252079041733426
3.076218814373999
-0.04882887006942855
-0.8300907911802854
-0.8300907911802854
-1.513694972152285
-1.8066681925688564
-2.0019836728465705
-2.2949568932631417
-2.9785610742351416
-4.736400396734569
-6.39658197909514
-7.177843900205997
-5.517662317845426
-1.416037232013428
2.490272373540856
5.224689097428855
5.127031357289998
2.68558785381857
0.14648661020828566
-0.43945983062485694
1.6113527122911422
3.5645075150682843
4.052796215762569
3.5645075150682843
3.5645075150682843
5.810635538261997
7.861448081177996
8.154421301594567
6.201266498817426
2.2949568932631417
-0.8300907911802854
-2.2949568932631417
-0.34180209048599985
4.345769436179141
8.838025482566568
10.79118028534371
8.545052262149996
4.052796215762569
0.04882887006942855
-2.68558785381857
-3.2715342946517127
-2.0019836728465705
1.3183794918745708
5.420004577706569
6.982528419928283
5.517662317845426
1.0254062714579995
-4.052796215762569
-7.959105821316854
-10.302891584649425
-10.400549324788281
-8.935683222705425
-5.908293278400855
-3.662165255207141
-4.931715877012284
-6.6895551995117115
-5.517662317845426
1.9043259327077133
17.52956435492485
43.50652323186084
80.9094377050431
114.79667353322652
115.38261997405966
63.33104448004883
-21.045242999923705
-88.81971465629053
-109.1325246051728
-88.33142595559625
-54.346532387273975
-29.2484931715877
-17.041275654230564
-13.720912489509422
-12.353704127565424
-9.42397192339971
-6.298924238956283
-3.9551384756237127
-3.466849774929427
-3.076218814373999
-1.416037232013428
0.6347753109025711
3.076218814373999
4.248111696040284
5.224689097428855
6.591897459372854
7.373159380483711
7.666132600900283
6.787212939650568
5.71297779812314
5.810635538261997
7.080186160067139
9.326314183260854
10.302891584649425
10.302891584649425
10.498207064927138
10.888838025482567
12.060730907148852
12.74433508812085
12.84199282825971
12.45136186770428
12.256046387426567
13.81857022964828
15.967040512703136
17.52956435492485
17.334248874647134
15.47875181200885
15.283436331731137
16.064698252841993
16.064698252841993
13.232623788815136
7.275501640344854
1.2207217517357138
-3.1738765545128556
-5.127031357289998
-6.494239719233997
-9.326314183260854
-12.74433508812085
-16.748302433813993
-20.654612039368278
-23.682001983672848
-26.123445487144274
-27.49065384908827
-27.783627069504846
-24.853894865339132
-18.40848401617456
-11.963073167009995
-7.373159380483711
-6.005951018539712
-6.494239719233997
-7.080186160067139
-7.470817120622568
-6.494239719233997
-5.0293736171511405
-2.0996414129854277
1.416037232013428
2.9785610742351416
2.2949568932631417
0.6347753109025711
0.24414435034714274
0.6347753109025711
0.04882887006942855
-1.416037232013428
-3.1738765545128556
-3.2715342946517127
-1.6113527122911422
-0.04882887006942855
2.2949568932631417
5.224689097428855
8.05676356145571
9.130998702983138
7.373159380483711
4.638742656595713
2.197299153124285
1.8066681925688564
2.68558785381857
2.2949568932631417
0.537117570763714
-2.490272373540856
-5.127031357289998
-6.005951018539712
-4.834058136873426
-1.7090104524299992
0.9277485313191425
2.2949568932631417
2.783245593957427
2.392614633401999
2.2949568932631417
1.0254062714579995
-1.513694972152285
-4.345769436179141
-6.6895551995117115
-7.275501640344854
-7.177843900205997
-6.103608758678568
-4.248111696040284
-2.783245593957427
-1.416037232013428
-1.3183794918745708
-2.2949568932631417
-3.2715342946517127
-3.5645075150682843
-1.9043259327077133
0.24414435034714274
2.490272373540856
3.5645075150682843
1.6113527122911422
-1.7090104524299992
-4.248111696040284
-2.8809033340962844
2.197299153124285
8.05676356145571
12.060730907148852
11.767757686732281
7.959105821316854
2.490272373540856
-2.8809033340962844
-5.908293278400855
-6.591897459372854
-5.127031357289998
-2.197299153124285
0.24414435034714274
1.513694972152285
1.0254062714579995
1.6113527122911422
6.103608758678568
17.236591134508277
40.772106507972836
77.19844357976653
113.2341496910048
118.80064087891967
70.75303273060197
-14.599832150759136
-88.52674143587396
-112.45288776989395
-90.38223849851225
-53.760585946440834
-26.807049668116274
-16.45532921339742
-16.357671473258563
-18.994430457007706
-20.361638818951704
-19.287403677424276
-17.236591134508277
-13.037308308537423
-6.591897459372854
-1.416037232013428
0.6347753109025711
-0.24414435034714274
-1.513694972152285
-1.513694972152285
-0.24414435034714274
2.68558785381857
5.71297779812314
8.642710002288853
11.279468986037996
12.353704127565424
12.549019607843137
12.158388647287708
11.963073167009995
11.865415426871138
10.986495765621424
10.400549324788281
10.10757610437171
10.986495765621424
12.549019607843137
13.037308308537423
12.158388647287708
9.81460288395514
8.252079041733426
9.521629663538567
12.74433508812085
16.357671473258563
17.724879835202564
17.52956435492485
16.650644693675137
14.892805371175708
13.330281528953995
11.670099946593423
9.912260624093996
7.373159380483711
2.5879301136797133
-3.7598229953459983
-10.498207064927138
-14.892805371175708
-16.357671473258563
-16.748302433813993
-16.45532921339742
-16.748302433813993
-17.13893339436942
-17.13893339436942
-17.236591134508277
-16.357671473258563
-14.892805371175708
-12.549019607843137
-10.302891584649425
-9.521629663538567
-7.666132600900283
-3.7598229953459983
1.0254062714579995
4.052796215762569
3.2715342946517127
1.2207217517357138
0.04882887006942855
1.0254062714579995
2.8809033340962844
3.1738765545128556
2.392614633401999
0.9277485313191425
0.04882887006942855
-0.34180209048599985
-2.0996414129854277
-4.931715877012284
-8.154421301594567
-8.935683222705425
-7.275501640344854
-6.201266498817426
-6.982528419928283
-10.10757610437171
-13.623254749370565
-15.47875181200885
-16.45532921339742
-16.748302433813993
-17.724879835202564
-18.506141756313422
-18.506141756313422
-18.21316853589685
-16.650644693675137
-15.771725032425422
-15.674067292286564
-15.185778591592278
-13.427939269092851
-10.302891584649425
-7.275501640344854
-2.392614633401999
5.908293278400855
15.674067292286564
24.365606164644845
29.150835431448844
30.420386053253985
29.150835431448844
25.439841306172273
20.263981078812847
12.939650568398566
3.5645075150682843
-8.44739452201114
-22.119478141451133
-32.37354085603113
-37.35408560311284
-36.96345464255741
-33.252460517280845
-28.66254673075456
-22.803082322423133
-16.16235599298085
-9.326314183260854
-4.345769436179141
-3.2715342946517127
-2.68558785381857
2.0996414129854277
17.334248874647134
46.92454413672083
84.03448538948653
106.78873884184024
89.1126878767071
29.9320973525597
-37.94003204394598
-75.14763103685054
-67.92095826657511
-36.0845349813077
-6.39658197909514
7.177843900205997
5.810635538261997
-0.537117570763714
-5.224689097428855
-5.322346837567712
-2.783245593957427
-1.6113527122911422
-1.0254062714579995
-0.34180209048599985
1.3183794918745708
2.8809033340962844
2.0996414129854277
1.0254062714579995
1.416037232013428
5.127031357289998
9.81460288395514
10.888838025482567
9.130998702983138
6.6895551995117115
5.615320057984283
5.71297779812314
5.517662317845426
5.420004577706569
5.420004577706569
6.6895551995117115
9.228656443121995
11.08415350576028
11.865415426871138
10.79118028534371
9.326314183260854
9.71694514381628
12.060730907148852
16.260013733119706
20.263981078812847
23.389028763256274
24.95155260547799
23.974975204089418
22.119478141451133
19.87335011825742
18.40848401617456
17.041275654230564
13.525597009231708
7.861448081177996
0.8300907911802854
-4.443427176317998
-6.982528419928283
-8.545052262149996
-9.912260624093996
-12.353704127565424
-14.404516670481422
-15.088120851453422
-15.185778591592278
-14.990463111314565
-14.599832150759136
-12.353704127565424
-8.44739452201114
-5.420004577706569
-3.076218814373999
-1.416037232013428
0.14648661020828566
0.9277485313191425
0.04882887006942855
-0.34180209048599985
-0.24414435034714274
-0.34180209048599985
-1.8066681925688564
-3.7598229953459983
-2.2949568932631417
2.197299153124285
7.763790341039139
11.181811245899137
10.400549324788281
6.6895551995117115
1.8066681925688564
-0.6347753109025711
0.7324330510414282
4.248111696040284
7.666132600900283
8.05676356145571
5.810635538261997
2.5879301136797133
-0.43945983062485694
-2.490272373540856
-4.345769436179141
-5.322346837567712
-4.443427176317998
-2.490272373540856
0.8300907911802854
3.7598229953459983
5.0293736171511405
3.8574807354848555
0.04882887006942855
-4.052796215762569
-6.884870679789426
-6.298924238956283
-3.1738765545128556
-0.7324330510414282
0.14648661020828566
-1.2207217517357138
-3.5645075150682843
-5.127031357289998
-6.103608758678568
-5.127031357289998
-3.1738765545128556
-0.43945983062485694
1.7090104524299992
1.3183794918745708
-0.7324330510414282
-3.8574807354848555
-5.908293278400855
-5.71297779812314
-4.443427176317998
-2.9785610742351416
-2.68558785381857
-2.68558785381857
-1.9043259327077133
-1.2207217517357138
-0.24414435034714274
-0.43945983062485694
-1.6113527122911422
-2.8809033340962844
-3.466849774929427
-2.490272373540856
-1.8066681925688564
-2.0019836728465705
-2.392614633401999
-3.2715342946517127
-3.8574807354848555
-5.224689097428855
-6.103608758678568
-4.443427176317998
-0.04882887006942855
5.615320057984283
8.838025482566568
7.959105821316854
4.638742656595713
0.8300907911802854
-1.6113527122911422
-4.052796215762569
-6.494239719233997
-6.494239719233997
-3.8574807354848555
0.34180209048599985
2.9785610742351416
3.7598229953459983
4.248111696040284
6.787212939650568
16.84596017395285
40.86976424811169
81.69069962615396
123.68352788586252
131.2031738765545
79.3469138628214
-15.088120851453422
-99.85503929198138
-132.66803997863738
-112.64820325017166
-68.60456244754711
-32.178225375753414
-15.283436331731137
-13.232623788815136
-15.967040512703136
-15.576409552147707
-11.963073167009995
-7.080186160067139
-2.5879301136797133
0.04882887006942855
1.9043259327077133
2.8809033340962844
3.36919203479057
3.5645075150682843
3.1738765545128556
3.36919203479057
3.7598229953459983
5.127031357289998
7.666132600900283
9.326314183260854
9.521629663538567
6.982528419928283
3.36919203479057
0.43945983062485694
-1.0254062714579995
-0.7324330510414282
-0.34180209048599985
0.24414435034714274
1.6113527122911422
2.8809033340962844
4.736400396734569
6.884870679789426
9.228656443121995
10.79118028534371
10.205233844510566
8.545052262149996
6.884870679789426
7.080186160067139
9.228656443121995
11.181811245899137
12.353704127565424
11.181811245899137
8.154421301594567
4.541084916456855
0.43945983062485694
-2.8809033340962844
-6.298924238956283
-8.935683222705425
-10.498207064927138
-11.963073167009995
-13.13496604867628
-15.185778591592278
-17.724879835202564
-19.287403677424276
-19.18974593728542
-16.748302433813993
-14.306858930342566
-12.74433508812085
-11.767757686732281
-11.279468986037996
-10.009918364232853
-8.642710002288853
-7.080186160067139
-4.834058136873426
-2.197299153124285
0.7324330510414282
2.2949568932631417
2.8809033340962844
3.7598229953459983
4.736400396734569
6.39658197909514
7.568474860761425
8.252079041733426
7.666132600900283
5.322346837567712
3.662165255207141
3.2715342946517127
4.736400396734569
7.177843900205997
8.349736781872283
8.44739452201114
6.787212939650568
4.443427176317998
1.513694972152285
-2.9785610742351416
-7.470817120622568
-10.498207064927138
-9.912260624093996
-6.201266498817426
-2.5879301136797133
0.04882887006942855
0.8300907911802854
1.0254062714579995
1.9043259327077133
2.783245593957427
3.1738765545128556
1.7090104524299992
-0.537117570763714
-2.490272373540856
-3.662165255207141
-2.197299153124285
0.8300907911802854
3.662165255207141
3.5645075150682843
-0.14648661020828566
-4.248111696040284
-6.39658197909514
-5.224689097428855
-1.7090104524299992
1.1230640115968566
3.466849774929427
4.248111696040284
4.052796215762569
2.197299153124285
-2.197299153124285
-6.787212939650568
-8.935683222705425
-6.298924238956283
-0.14648661020828566
4.736400396734569
6.787212939650568
6.201266498817426
6.201266498817426
7.959105821316854
8.74036774242771
7.568474860761425
3.7598229953459983
-0.8300907911802854
-5.71297779812314
-10.986495765621424
-13.623254749370565
-11.767757686732281
-5.810635538261997
0.43945983062485694
3.466849774929427
3.7598229953459983
2.783245593957427
2.9785610742351416
6.591897459372854
15.576409552147707
35.10795757991913
67.0420386053254
102.49179827573053
115.38261997405966
80.32349126420996
5.322346837567712
-67.82330052643626
-99.65972381170367
-86.67124437323568
-53.95590142671855
-25.92813000686656
-12.45136186770428
-10.205233844510566
-12.549019607843137
-14.209201190203707
-12.060730907148852
-8.252079041733426
-5.224689097428855
-3.36919203479057
-2.392614633401999
-0.6347753109025711
1.3183794918745708
2.68558785381857
1.9043259327077133
-1.3183794918745708
-3.8574807354848555
-4.248111696040284
-1.7090104524299992
2.8809033340962844
6.591897459372854
8.349736781872283
8.154421301594567
7.568474860761425
7.275501640344854
6.201266498817426
5.615320057984283
5.224689097428855
6.201266498817426
8.838025482566568
12.060730907148852
15.381094071869994
17.041275654230564
16.55298695353628
14.795147631036851
12.646677347981994
11.963073167009995
12.158388647287708
12.646677347981994
13.330281528953995
13.427939269092851
13.81857022964828
12.74433508812085
9.033340962844282
2.490272373540856
-6.298924238956283
-15.088120851453422
-22.021820401312276
-25.049210345616846
-24.267948424505988
-22.412451361867703
-20.654612039368278
-20.263981078812847
-20.16632333867399
-20.068665598535134
-20.45929655909056
-20.263981078812847
-19.18974593728542
-15.771725032425422
-10.205233844510566
-5.0293736171511405
-1.1230640115968566
0.24414435034714274
0.34180209048599985
0.537117570763714
0.9277485313191425
2.197299153124285
2.9785610742351416
3.36919203479057
3.662165255207141
2.9785610742351416
1.6113527122911422
-0.43945983062485694
-2.0996414129854277
-2.5879301136797133
-2.9785610742351416
-2.392614633401999
-1.3183794918745708
0.34180209048599985
2.490272373540856
3.9551384756237127
5.71297779812314
7.275501640344854
7.666132600900283
5.517662317845426
0.6347753109025711
-3.36919203479057
-4.834058136873426
-2.9785610742351416
0.43945983062485694
2.5879301136797133
3.2715342946517127
2.490272373540856
0.9277485313191425
-0.8300907911802854
-4.150453955901427
-6.982528419928283
-8.252079041733426
-6.591897459372854
-3.1738765545128556
-0.24414435034714274
2.8809033340962844
6.005951018539712
8.349736781872283
8.545052262149996
5.224689097428855
1.2207217517357138
-1.513694972152285
-1.6113527122911422
0.7324330510414282
3.076218814373999
4.443427176317998
3.466849774929427
1.2207217517357138
-0.9277485313191425
-3.466849774929427
-4.443427176317998
-4.052796215762569
-2.68558785381857
-1.416037232013428
-1.3183794918745708
-1.1230640115968566
-0.34180209048599985
1.7090104524299992
5.0293736171511405
7.080186160067139
6.6895551995117115
2.8809033340962844
-2.197299153124285
-6.591897459372854
-9.326314183260854
-8.252079041733426
-3.36919203479057
3.466849774929427
8.05676356145571
6.201266498817426
0.24414435034714274
-4.443427176317998
-1.6113527122911422
12.158388647287708
38.33066300450141
74.75700007629511
104.93324177920195
103.4683756771191
57.27626459143969
-16.260013733119706
-76.41718165865568
-95.2651255054551
-77.29610131990539
-46.43625543602655
-22.90074006256199
-11.08415350576028
-8.545052262149996
-10.302891584649425
-11.963073167009995
-11.670099946593423
-8.154421301594567
-4.443427176317998
-2.490272373540856
-2.0019836728465705
-2.0996414129854277
-0.6347753109025711
1.513694972152285
3.076218814373999
2.8809033340962844
0.537117570763714
-1.0254062714579995
-0.24414435034714274
4.248111696040284
10.79118028534371
15.381094071869994
16.748302433813993
14.990463111314565
12.549019607843137
10.498207064927138
8.154421301594567
6.005951018539712
3.8574807354848555
2.5879301136797133
2.783245593957427
3.5645075150682843
5.224689097428855
7.275501640344854
9.912260624093996
12.45136186770428
12.74433508812085
11.377126726176853
9.326314183260854
8.935683222705425
10.400549324788281
11.377126726176853
11.377126726176853
9.326314183260854
6.103608758678568
1.6113527122911422
-5.127031357289998
-12.939650568398566
-20.16632333867399
-25.24452582589456
-27.881284809643702
-28.95551995117113
-27.881284809643702
-25.92813000686656
-23.974975204089418
-22.119478141451133
-20.654612039368278
-18.89677271686885
-17.43190661478599
-15.088120851453422
-10.693522545204852
-5.810635538261997
-1.0254062714579995
1.8066681925688564
3.2715342946517127
3.466849774929427
2.783245593957427
2.68558785381857
2.8809033340962844
3.9551384756237127
6.298924238956283
8.642710002288853
10.302891584649425
9.619287403677424
7.275501640344854
4.736400396734569
2.8809033340962844
3.466849774929427
4.638742656595713
5.0293736171511405
4.834058136873426
3.5645075150682843
2.392614633401999
0.9277485313191425
0.04882887006942855
0.34180209048599985
0.6347753109025711
1.416037232013428
1.7090104524299992
1.2207217517357138
0.24414435034714274
-0.9277485313191425
-1.0254062714579995
-0.8300907911802854
-1.1230640115968566
-2.2949568932631417
-4.541084916456855
-5.810635538261997
-5.908293278400855
-4.931715877012284
-3.466849774929427
-2.68558785381857
-2.2949568932631417
-2.9785610742351416
-3.9551384756237127
-3.662165255207141
-1.9043259327077133
1.513694972152285
4.638742656595713
6.103608758678568
5.615320057984283
3.9551384756237127
4.638742656595713
7.275501640344854
9.521629663538567
8.642710002288853
5.517662317845426
4.345769436179141
4.931715877012284
4.736400396734569
2.783245593957427
0.04882887006942855
-0.6347753109025711
-0.537117570763714
0.14648661020828566
1.513694972152285
3.36919203479057
5.810635538261997
5.420004577706569
0.7324330510414282
-6.787212939650568
-13.720912489509422
-14.795147631036851
-9.71694514381628
-1.513694972152285
4.834058136873426
4.834058136873426
0.9277485313191425
-2.0019836728465705
1.1230640115968566
13.232623788815136
35.4009308003357
66.3584344243534
92.33539330128939
90.57755397878996
46.43625543602655
-26.025787747005417
-86.08529793240254
-103.27306019684139
-80.71412222476539
-44.580758373388264
-17.041275654230564
-3.7598229953459983
-2.0019836728465705
-5.224689097428855
-7.666132600900283
-7.080186160067139
-4.052796215762569
-2.197299153124285
-2.392614633401999
-2.0019836728465705
-0.04882887006942855
3.8574807354848555
7.666132600900283
10.205233844510566
10.302891584649425
7.568474860761425
4.834058136873426
3.2715342946517127
3.466849774929427
4.150453955901427
3.662165255207141
3.1738765545128556
3.5645075150682843
5.810635538261997
8.349736781872283
8.349736781872283
6.787212939650568
5.127031357289998
5.322346837567712
6.591897459372854
6.6895551995117115
7.080186160067139
8.05676356145571
9.912260624093996
10.79118028534371
8.642710002288853
5.71297779812314
3.8574807354848555
4.541084916456855
6.201266498817426
6.298924238956283
5.127031357289998
2.8809033340962844
0.43945983062485694
-2.392614633401999
-6.6895551995117115
-10.595864805065995
-13.81857022964828
-15.381094071869994
-16.064698252841993
-17.52956435492485
-19.678034637979707
-22.119478141451133
-23.19371328297856
-22.119478141451133
-20.84992751964599
-19.287403677424276
-17.724879835202564
-14.892805371175708
-10.400549324788281
-6.005951018539712
-2.0996414129854277
-0.43945983062485694
0.04882887006942855
0.6347753109025711
1.513694972152285
2.8809033340962844
3.076218814373999
3.076218814373999
5.420004577706569
9.81460288395514
14.013885709925994
13.81857022964828
9.71694514381628
4.736400396734569
1.1230640115968566
0.7324330510414282
1.6113527122911422
2.783245593957427
4.443427176317998
6.005951018539712
7.568474860761425
7.763790341039139
7.470817120622568
6.787212939650568
4.345769436179141
1.9043259327077133
0.34180209048599985
0.9277485313191425
3.076218814373999
4.443427176317998
4.150453955901427
1.3183794918745708
-2.197299153124285
-5.517662317845426
-8.74036774242771
-10.400549324788281
-10.009918364232853
-6.591897459372854
-1.0254062714579995
3.466849774929427
6.298924238956283
6.6895551995117115
6.103608758678568
4.931715877012284
2.5879301136797133
0.43945983062485694
-1.0254062714579995
-0.537117570763714
2.2949568932631417
5.224689097428855
6.6895551995117115
5.517662317845426
3.7598229953459983
1.9043259327077133
-1.416037232013428
-5.127031357289998
-7.568474860761425
-6.39658197909514
-2.5879301136797133
0.14648661020828566
0.43945983062485694
-1.6113527122911422
-2.9785610742351416
-0.8300907911802854
3.7598229953459983
9.71694514381628
12.256046387426567
9.619287403677424
3.36919203479057
-3.662165255207141
-7.861448081177996
-8.74036774242771
-6.298924238956283
-2.0996414129854277
0.9277485313191425
2.68558785381857
1.2207217517357138
-2.5879301136797133
-5.420004577706569
-3.2715342946517127
8.05676356145571
32.27588311589227
70.55771725032426
108.2536049439231
114.01541161211567
68.50690470740825
-11.181811245899137
-80.51880674448768
-106.2027924010071
-89.7962920576791
-55.22545204852369
-26.318760967421987
-12.158388647287708
-10.595864805065995
-15.674067292286564
-19.287403677424276
-18.799114976729992
-14.404516670481422
-8.252079041733426
-3.2715342946517127
0.24414435034714274
2.5879301136797133
4.638742656595713
6.005951018539712
5.0293736171511405
3.1738765545128556
1.6113527122911422
2.2949568932631417
5.127031357289998
7.568474860761425
8.44739452201114
7.080186160067139
5.224689097428855
3.8574807354848555
2.783245593957427
3.8574807354848555
5.810635538261997
7.470817120622568
7.959105821316854
7.080186160067139
6.39658197909514
6.103608758678568
6.39658197909514
6.494239719233997
5.71297779812314
6.005951018539712
7.666132600900283
10.205233844510566
12.353704127565424
12.74433508812085
12.158388647287708
10.595864805065995
9.130998702983138
6.787212939650568
1.9043259327077133
-3.8574807354848555
-9.033340962844282
-11.377126726176853
-10.986495765621424
-10.693522545204852
-11.47478446631571
-14.404516670481422
-17.334248874647134
-19.385061417563133
-21.533531700617992
-22.412451361867703
-21.63118944075685
-18.11551079575799
-12.45136186770428
-7.568474860761425
-4.150453955901427
-2.490272373540856
