ecg
-26.025787747005417
-25.342183566033416
-22.90074006256199
-18.21316853589685
-13.037308308537423
-7.666132600900283
-2.9785610742351416
-0.34180209048599985
0.9277485313191425
0.7324330510414282
0.6347753109025711
0.537117570763714
0.04882887006942855
0.537117570763714
1.513694972152285
2.783245593957427
2.8809033340962844
1.0254062714579995
-1.2207217517357138
-3.36919203479057
-3.466849774929427
-1.416037232013428
1.8066681925688564
6.39658197909514
10.693522545204852
14.990463111314565
19.385061417563133
23.291371023117417
25.92813000686656
25.439841306172273
23.779659723811704
23.096055542839704
24.65857938506142
28.369573510337986
30.71335927367056
30.615701533531702
28.760204470893417
26.807049668116274
25.439841306172273
22.119478141451133
16.84596017395285
10.595864805065995
4.443427176317998
0.04882887006942855
-3.662165255207141
-8.05676356145571
-13.916227969787137
-20.263981078812847
-24.365606164644845
-25.92813000686656
-25.24452582589456
-23.779659723811704
-22.510109102006563
-20.263981078812847
-18.11551079575799
-15.771725032425422
-13.13496604867628
-11.181811245899137
-10.205233844510566
-10.79118028534371
-10.498207064927138
-9.228656443121995
-8.252079041733426
-7.861448081177996
-8.154421301594567
-7.080186160067139
-3.8574807354848555
0.04882887006942855
3.466849774929427
5.224689097428855
6.201266498817426
6.201266498817426
4.541084916456855
2.783245593957427
1.0254062714579995
0.6347753109025711
1.7090104524299992
2.9785610742351416
3.8574807354848555
2.5879301136797133
0.43945983062485694
-1.416037232013428
-3.076218814373999
-3.466849774929427
-3.662165255207141
-2.9785610742351416
-1.2207217517357138
1.1230640115968566
3.466849774929427
4.541084916456855
6.298924238956283
9.71694514381628
14.404516670481422
19.775692378118563
24.17029068436713
26.807049668116274
25.92813000686656
21.045242999923705
13.525597009231708
2.8809033340962844
-9.81460288395514
-23.682001983672848
-36.67048142214084
-45.362020294499125
-48.291752498664835
-43.604180971999696
-32.95948729686427
-22.21713588158999
-15.576409552147707
-14.306858930342566
-14.209201190203707
-12.939650568398566
-9.81460288395514
-1.9043259327077133
14.306858930342566
45.75265125505455
89.21034561684596
120.65613794155794
109.32784008545052
47.60814831769284
-29.736781872281988
-76.51483939879454
-75.73357747768368
-45.069047074082555
-13.623254749370565
4.638742656595713
10.986495765621424
11.47478446631571
10.888838025482567
9.619287403677424
8.838025482566568
8.838025482566568
10.205233844510566
13.525597009231708
16.064698252841993
17.52956435492485
18.994430457007706
20.84992751964599
22.21713588158999
21.14290074006256
19.48271915770199
18.89677271686885
20.16632333867399
23.779659723811704
26.416418707560844
26.318760967421987
22.705424582284277
17.82253757534142
14.50217441062028
11.377126726176853
8.349736781872283
5.0293736171511405
1.3183794918745708
-2.197299153124285
-5.322346837567712
-6.6895551995117115
-7.080186160067139
-7.470817120622568
-8.252079041733426
-11.767757686732281
-17.13893339436942
-22.998397802700847
-27.783627069504846
-29.834439612420844
-30.029755092698558
-29.63912413214313
-30.908674753948272
-34.32669565880827
-37.549401083390556
-39.600213626306555
-39.79552910658427
-39.11192492561227
-38.62363622491798
-38.03768978408484
-37.84237430380713
-35.98687724116884
-31.592278934920273
-25.732814526588847
-19.971007858396277
-17.041275654230564
-15.869382772564279
-14.795147631036851
-13.232623788815136
-10.79118028534371
-8.642710002288853
-5.810635538261997
-2.68558785381857
-0.04882887006942855
2.2949568932631417
3.466849774929427
4.150453955901427
4.931715877012284
5.908293278400855
7.470817120622568
8.44739452201114
9.521629663538567
11.181811245899137
12.549019607843137
13.037308308537423
10.986495765621424
8.05676356145571
6.298924238956283
6.982528419928283
10.302891584649425
13.427939269092851
16.064698252841993
18.89677271686885
21.92416266117342
25.830472266727703
29.541466392004274
33.15480277714199
36.37750820172427
38.818951705195694
40.28381780727855
37.64705882352941
30.518043793392845
19.18974593728542
4.931715877012284
-10.10757610437171
-25.439841306172273
-37.94003204394598
-45.55733577477684
-47.412832837415124
-43.311207751583126
-36.768139162279695
-29.443808651865414
-22.998397802700847
-18.994430457007706
-17.627222095063708
-18.701457236591136
-18.994430457007706
-14.892805371175708
0.04882887006942855
34.131380178530556
80.81177996490425
113.2341496910048
99.56206607156481
37.15877012283513
-36.768139162279695
-80.42114900434882
-79.73754482337682
-53.66292820630198
-28.076600289921416
-14.306858930342566
-11.47478446631571
-11.865415426871138
-10.498207064927138
-7.568474860761425
-3.9551384756237127
-1.416037232013428
1.2207217517357138
4.345769436179141
7.763790341039139
12.84199282825971
17.43190661478599
20.752269779507134
22.412451361867703
22.90074006256199
23.291371023117417
22.90074006256199
22.705424582284277
22.803082322423133
22.90074006256199
23.779659723811704
24.072632944228275
25.049210345616846
27.1976806286717
28.857862211032273
28.66254673075456
25.24452582589456
21.63118944075685
19.678034637979707
18.506141756313422
18.017853055619135
18.017853055619135
19.48271915770199
21.43587396047913
22.314793621728846
22.021820401312276
19.287403677424276
15.576409552147707
11.865415426871138
7.763790341039139
3.7598229953459983
0.537117570763714
-0.7324330510414282
-1.9043259327077133
-5.127031357289998
-10.10757610437171
-17.236591134508277
-23.682001983672848
-26.709391927977418
-25.342183566033416
-20.654612039368278
-16.357671473258563
-13.81857022964828
-12.939650568398566
-12.84199282825971
-11.865415426871138
-10.693522545204852
-9.130998702983138
-7.861448081177996
-7.568474860761425
-6.787212939650568
-5.615320057984283
-2.2949568932631417
2.5879301136797133
6.884870679789426
8.252079041733426
5.127031357289998
0.537117570763714
-2.68558785381857
-3.466849774929427
-1.2207217517357138
1.3183794918745708
3.1738765545128556
3.466849774929427
2.783245593957427
3.076218814373999
4.150453955901427
6.005951018539712
7.080186160067139
6.201266498817426
4.541084916456855
2.8809033340962844
3.2715342946517127
5.908293278400855
9.619287403677424
13.623254749370565
16.16235599298085
17.43190661478599
16.357671473258563
11.377126726176853
3.466849774929427
-6.298924238956283
-15.967040512703136
-25.049210345616846
-33.3501182574197
-39.014267185473415
-41.943999389639124
-41.45571068894484
-38.23300526436255
-33.545433737697415
-27.1976806286717
-20.752269779507134
-15.869382772564279
-15.185778591592278
-18.89677271686885
-20.84992751964599
-13.81857022964828
10.10757610437171
50.24490730144198
87.15953307392996
91.65178912031739
49.073014419775696
-17.920195315480278
-69.0928511482414
-80.03051804379339
-58.057526512550545
-28.564888990615703
-8.935683222705425
-2.392614633401999
-4.052796215762569
-6.787212939650568
-8.154421301594567
-7.568474860761425
-5.908293278400855
-4.248111696040284
-2.2949568932631417
-1.3183794918745708
-0.7324330510414282
0.34180209048599985
3.2715342946517127
7.861448081177996
10.400549324788281
10.302891584649425
8.838025482566568
8.44739452201114
10.888838025482567
13.330281528953995
13.916227969787137
12.060730907148852
9.912260624093996
10.009918364232853
10.498207064927138
11.08415350576028
12.45136186770428
15.185778591592278
18.21316853589685
17.236591134508277
12.74433508812085
8.838025482566568
8.44739452201114
11.377126726176853
12.84199282825971
12.353704127565424
11.963073167009995
13.232623788815136
15.576409552147707
13.720912489509422
6.884870679789426
-1.3183794918745708
-7.568474860761425
-10.400549324788281
-11.767757686732281
-11.670099946593423
-11.670099946593423
-13.525597009231708
-16.357671473258563
-20.068665598535134
-23.682001983672848
-25.830472266727703
-24.756237125200276
-19.775692378118563
-14.697489890897993
-11.47478446631571
-8.642710002288853
-4.638742656595713
0.8300907911802854
3.7598229953459983
2.8809033340962844
-0.34180209048599985
-3.466849774929427
-3.2715342946517127
0.14648661020828566
6.6895551995117115
13.81857022964828
18.21316853589685
18.60379949645228
13.623254749370565
5.908293278400855
-0.9277485313191425
-4.541084916456855
-4.052796215762569
-1.7090104524299992
1.3183794918745708
3.466849774929427
2.783245593957427
0.9277485313191425
-0.8300907911802854
-1.7090104524299992
-3.7598229953459983
-8.545052262149996
-12.939650568398566
-13.916227969787137
-10.009918364232853
-4.345769436179141
-0.9277485313191425
0.04882887006942855
-0.9277485313191425
-1.7090104524299992
-1.6113527122911422
-1.3183794918745708
-0.9277485313191425
-1.8066681925688564
-2.490272373540856
-2.490272373540856
-2.490272373540856
-2.783245593957427
-5.224689097428855
-8.74036774242771
-11.670099946593423
-12.939650568398566
-12.353704127565424
-11.572442206454566
-10.10757610437171
-8.252079041733426
-6.884870679789426
-5.71297779812314
-5.810635538261997
-6.884870679789426
-8.642710002288853
-10.595864805065995
-10.888838025482567
-10.205233844510566
-8.252079041733426
-6.787212939650568
-7.568474860761425
-9.81460288395514
-13.330281528953995
-15.674067292286564
-16.064698252841993
-16.357671473258563
-18.017853055619135
-21.63118944075685
-24.560921644922562
-25.63515678644999
-24.365606164644845
-19.48271915770199
-13.81857022964828
-9.619287403677424
-7.568474860761425
-8.05676356145571
-9.619287403677424
-11.670099946593423
-12.549019607843137
-12.74433508812085
-12.646677347981994
-10.595864805065995
-9.326314183260854
-9.619287403677424
-10.888838025482567
-11.670099946593423
-8.44739452201114
3.2715342946517127
30.322728313115128
72.80384527351796
115.38261997405966
127.49217975127794
82.0813305867094
-8.935683222705425
-96.82764934767681
-137.64858472571908
-126.80857557030595
-91.45647364003968
-58.25284199282826
-39.600213626306555
-33.44777599755856
-31.787594415197987
-31.885252155336843
-31.592278934920273
-28.369573510337986
-23.096055542839704
-16.943617914091707
-11.279468986037996
-5.322346837567712
0.04882887006942855
3.7598229953459983
7.177843900205997
8.935683222705425
10.009918364232853
11.963073167009995
14.404516670481422
17.52956435492485
20.45929655909056
23.291371023117417
24.853894865339132
25.24452582589456
27.002365148393988
29.736781872281988
33.15480277714199
36.37750820172427
39.014267185473415
41.84634164950027
43.79949645227741
46.240939955748836
49.365987640192266
51.61211566338598
52.97932402532997
53.27229724574655
53.17463950560769
52.49103532463569
51.80743114366369
53.17463950560769
54.15121690699626
53.760585946440834
52.002746623941405
49.365987640192266
48.291752498664835
48.48706797894255
49.26832990005341
49.073014419775696
47.31517509727627
45.75265125505455
45.947966735332265
49.85427634088655
56.29968719005112
63.42870222018769
71.8272678721294
80.9094377050431
90.47989623865111
97.90188448920424
93.01899748226138
75.83123521782254
68.89753566796368
70.55771725032426
53.07698176546884
35.69390402075227
41.943999389639124
37.15877012283513
15.674067292286564
18.60379949645228
27.881284809643702
9.71694514381628
-2.0019836728465705
5.420004577706569
0.04882887006942855
-14.697489890897993
-20.16632333867399
-19.58037689784085
-24.853894865339132
-44.580758373388264
-61.475547417410546
-61.182574196993976
-63.6240177004654
-73.58510719462882
-72.99916075379568
-68.11627374685283
-71.04600595101854
-70.55771725032426
-63.33104448004883
-64.01464866102083
-67.0420386053254
-60.59662775616083
-55.81139848935683
-54.932478828107115
-47.705806057831694
-41.065079728389414
-41.84634164950027
-39.79552910658427
-32.178225375753414
-30.71335927367056
-32.471198596169984
-28.760204470893417
-27.1976806286717
-28.66254673075456
-25.830472266727703
-22.90074006256199
-24.560921644922562
-24.4632639047837
-20.947585259784848
-21.338216220340275
-22.60776684214542
-18.60379949645228
-16.357671473258563
-18.799114976729992
-21.24055848020142
-24.17029068436713
-26.514076447699704
-21.92416266117342
-9.521629663538567
0.7324330510414282
3.8574807354848555
2.490272373540856
-2.9785610742351416
-7.568474860761425
-6.298924238956283
-3.7598229953459983
-3.5645075150682843
-2.8809033340962844
0.24414435034714274
1.8066681925688564
0.34180209048599985
0.04882887006942855
1.2207217517357138
8.349736781872283
28.95551995117113
66.55374990463112
111.47631036850538
135.20714122224766
108.64423590447852
32.471198596169984
-53.17463950560769
-102.00350957503625
-101.80819409475852
-71.33897917143511
-37.549401083390556
-17.334248874647134
-11.572442206454566
-13.427939269092851
-15.869382772564279
-16.943617914091707
-15.967040512703136
-11.279468986037996
-5.127031357289998
1.1230640115968566
6.6895551995117115
8.935683222705425
7.763790341039139
4.541084916456855
3.076218814373999
4.541084916456855
8.05676356145571
12.646677347981994
14.599832150759136
14.306858930342566
14.11154345006485
14.50217441062028
15.185778591592278
14.404516670481422
12.939650568398566
11.47478446631571
9.71694514381628
8.349736781872283
6.005951018539712
4.443427176317998
4.248111696040284
4.541084916456855
5.615320057984283
6.494239719233997
7.373159380483711
8.252079041733426
9.130998702983138
10.302891584649425
9.619287403677424
8.05676356145571
6.6895551995117115
4.638742656595713
0.6347753109025711
-7.373159380483711
-17.627222095063708
-27.392996108949415
-35.20561532005799
-40.28381780727855
-44.38544289311055
-47.51049057755398
-50.14724956130312
-53.07698176546884
-54.346532387273975
-54.15121690699626
-52.6863508049134
-50.53788052185855
-47.90112153810941
-44.19012741283284
-39.5025558861677
-31.787594415197987
-21.92416266117342
-12.256046387426567
-2.8809033340962844
4.345769436179141
9.81460288395514
14.404516670481422
18.506141756313422
23.096055542839704
26.61173418783856
28.95551995117113
30.615701533531702
31.68993667505913
33.545433737697415
35.49858854047456
36.86579690241855
36.37750820172427
33.838406958113985
31.396963454642556
28.95551995117113
28.27191577019913
29.346150911726557
29.541466392004274
28.369573510337986
26.318760967421987
24.756237125200276
23.19371328297856
21.24055848020142
20.55695429922942
20.947585259784848
22.998397802700847
25.439841306172273
25.732814526588847
23.58434424353399
19.678034637979707
16.260013733119706
13.916227969787137
11.572442206454566
10.10757610437171
9.521629663538567
10.400549324788281
11.767757686732281
11.47478446631571
9.619287403677424
5.224689097428855
0.04882887006942855
-3.8574807354848555
-6.298924238956283
-7.470817120622568
-9.42397192339971
-11.377126726176853
-12.84199282825971
-14.11154345006485
-13.916227969787137
-12.84199282825971
-11.181811245899137
-9.81460288395514
-10.498207064927138
-12.84199282825971
-17.041275654230564
-20.654612039368278
-22.314793621728846
-22.119478141451133
-19.48271915770199
-16.260013733119706
-13.427939269092851
-11.572442206454566
-11.767757686732281
-13.81857022964828
-16.45532921339742
-12.646677347981994
3.36919203479057
34.52201113908598
76.90547035934996
109.52315556572823
104.34729533836881
51.709773403524835
-23.389028763256274
-78.46799420157168
-91.35881589990082
-70.36240177004655
-39.40489814602884
-16.943617914091707
-7.470817120622568
-9.033340962844282
-15.576409552147707
-22.412451361867703
-26.90470740825513
-28.076600289921416
-27.97894254978256
-27.1976806286717
-26.416418707560844
-25.537499046311133
-22.021820401312276
-15.674067292286564
-8.44739452201114
-3.36919203479057
-1.7090104524299992
-1.7090104524299992
-2.0019836728465705
0.7324330510414282
7.080186160067139
13.525597009231708
18.40848401617456
20.263981078812847
20.55695429922942
20.068665598535134
18.799114976729992
18.21316853589685
18.21316853589685
19.48271915770199
20.84992751964599
20.263981078812847
18.60379949645228
16.45532921339742
15.283436331731137
14.990463111314565
14.599832150759136
14.11154345006485
12.549019607843137
11.181811245899137
10.205233844510566
9.033340962844282
7.763790341039139
4.834058136873426
-0.14648661020828566
-7.080186160067139
-14.892805371175708
-21.338216220340275
-25.63515678644999
-26.123445487144274
-23.682001983672848
-21.63118944075685
-20.84992751964599
-22.90074006256199
-26.61173418783856
-29.2484931715877
-29.150835431448844
-25.92813000686656
-22.119478141451133
-17.627222095063708
-13.13496604867628
-10.10757610437171
-7.177843900205997
-4.834058136873426
-2.490272373540856
0.537117570763714
4.638742656595713
9.619287403677424
12.353704127565424
13.330281528953995
14.209201190203707
15.674067292286564
19.287403677424276
23.87731746395056
27.49065384908827
27.881284809643702
25.049210345616846
22.21713588158999
20.068665598535134
19.287403677424276
18.506141756313422
16.84596017395285
16.357671473258563
16.748302433813993
17.334248874647134
16.357671473258563
12.646677347981994
7.763790341039139
3.2715342946517127
2.197299153124285
4.443427176317998
6.982528419928283
8.545052262149996
7.470817120622568
5.322346837567712
3.662165255207141
3.076218814373999
4.052796215762569
5.127031357289998
5.810635538261997
4.931715877012284
2.5879301136797133
1.2207217517357138
0.7324330510414282
1.2207217517357138
2.392614633401999
3.466849774929427
4.052796215762569
2.9785610742351416
1.0254062714579995
-2.0996414129854277
-6.6895551995117115
-9.619287403677424
-9.42397192339971
-5.420004577706569
0.04882887006942855
2.490272373540856
1.0254062714579995
-3.36919203479057
-7.080186160067139
-9.326314183260854
-11.47478446631571
-11.963073167009995
-9.619287403677424
-4.541084916456855
0.537117570763714
2.0996414129854277
0.14648661020828566
-2.392614633401999
-0.34180209048599985
9.521629663538567
29.63912413214313
61.768520637827116
92.14007782101167
96.04638742656596
57.56923781185626
-10.302891584649425
-71.1436636911574
-97.12062256809338
-87.84313725490196
-64.20996414129854
-45.362020294499125
-35.79156176089113
-32.37354085603113
-30.22507057297627
-27.100022888532845
-23.779659723811704
-20.654612039368278
-18.701457236591136
-16.16235599298085
-12.549019607843137
-9.326314183260854
-5.908293278400855
-3.7598229953459983
-2.68558785381857
-1.7090104524299992
0.24414435034714274
4.443427176317998
7.470817120622568
7.763790341039139
5.71297779812314
3.1738765545128556
4.150453955901427
7.666132600900283
11.279468986037996
12.45136186770428
11.377126726176853
10.595864805065995
11.08415350576028
13.427939269092851
16.45532921339742
18.506141756313422
20.263981078812847
21.533531700617992
22.119478141451133
21.14290074006256
17.82253757534142
13.427939269092851
8.935683222705425
6.39658197909514
5.810635538261997
5.71297779812314
6.103608758678568
4.541084916456855
0.537117570763714
-4.248111696040284
-8.154421301594567
-10.595864805065995
-13.427939269092851
-15.967040512703136
-17.041275654230564
-17.724879835202564
-18.017853055619135
-19.18974593728542
-20.752269779507134
-21.338216220340275
-20.16632333867399
-16.55298695353628
-12.84199282825971
-9.42397192339971
-6.39658197909514
-4.248111696040284
-1.8066681925688564
-0.6347753109025711
-1.1230640115968566
-2.490272373540856
-3.076218814373999
-0.9277485313191425
2.0996414129854277
4.541084916456855
4.736400396734569
2.5879301136797133
1.1230640115968566
0.9277485313191425
1.9043259327077133
2.392614633401999
0.9277485313191425
-2.197299153124285
-6.298924238956283
-8.252079041733426
-7.959105821316854
-7.080186160067139
-5.0293736171511405
-2.2949568932631417
-0.14648661020828566
0.24414435034714274
-0.43945983062485694
-0.6347753109025711
-0.9277485313191425
-1.0254062714579995
-1.416037232013428
-2.9785610742351416
-3.466849774929427
-3.076218814373999
-2.5879301136797133
-2.68558785381857
-3.8574807354848555
-5.224689097428855
-6.103608758678568
-4.052796215762569
0.04882887006942855
3.36919203479057
6.591897459372854
10.888838025482567
16.650644693675137
21.728847180895706
23.87731746395056
24.65857938506142
25.63515678644999
27.49065384908827
27.392996108949415
21.92416266117342
11.865415426871138
-1.9043259327077133
-16.55298695353628
-28.467231250476843
-36.86579690241855
-41.74868390936141
-43.40886549172198
-39.307240405889985
-30.615701533531702
-21.92416266117342
-14.990463111314565
-11.47478446631571
-10.595864805065995
-10.498207064927138
-7.666132600900283
5.71297779812314
35.303273060196844
73.09681849393453
91.8471046005951
67.82330052643626
10.498207064927138
-44.77607385366598
-67.53032730601969
-56.29968719005112
-31.592278934920273
-11.670099946593423
-3.2715342946517127
-1.0254062714579995
0.43945983062485694
1.9043259327077133
3.076218814373999
2.0019836728465705
-0.24414435034714274
-1.1230640115968566
0.537117570763714
4.736400396734569
7.959105821316854
9.130998702983138
8.349736781872283
6.103608758678568
5.224689097428855
5.615320057984283
6.884870679789426
8.838025482566568
10.986495765621424
13.525597009231708
15.185778591592278
16.55298695353628
17.920195315480278
18.701457236591136
20.45929655909056
21.92416266117342
22.021820401312276
21.338216220340275
21.24055848020142
23.389028763256274
25.24452582589456
24.4632639047837
20.068665598535134
13.623254749370565
8.935683222705425
5.615320057984283
2.2949568932631417
-0.43945983062485694
-2.197299153124285
-2.0019836728465705
-0.9277485313191425
0.43945983062485694
1.1230640115968566
-0.14648661020828566
-2.392614633401999
-5.908293278400855
-10.302891584649425
-14.795147631036851
-18.60379949645228
-20.361638818951704
-20.45929655909056
-18.11551079575799
-14.306858930342566
-11.377126726176853
-8.642710002288853
-6.298924238956283
-4.541084916456855
-4.150453955901427
-5.615320057984283
-6.982528419928283
-7.177843900205997
-4.443427176317998
-0.24414435034714274
1.9043259327077133
2.5879301136797133
1.7090104524299992
0.24414435034714274
-0.9277485313191425
-2.68558785381857
-4.541084916456855
-6.591897459372854
-5.71297779812314
-1.513694972152285
1.8066681925688564
2.0996414129854277
-0.8300907911802854
-3.9551384756237127
-4.638742656595713
-3.5645075150682843
-1.7090104524299992
-0.24414435034714274
1.9043259327077133
5.127031357289998
7.470817120622568
10.10757610437171
13.623254749370565
18.21316853589685
22.412451361867703
24.267948424505988
24.560921644922562
24.17029068436713
23.974975204089418
22.60776684214542
17.13893339436942
7.959105821316854
-5.224689097428855
-20.068665598535134
-32.471198596169984
-39.99084458686198
-41.74868390936141
-40.28381780727855
-36.27985046158541
-30.811017013809415
-25.342183566033416
-18.994430457007706
-14.306858930342566
-13.623254749370565
-15.674067292286564
-16.064698252841993
-7.373159380483711
16.260013733119706
54.053559166857404
86.76890211337454
86.47592889295797
46.04562447547112
-11.377126726176853
-52.002746623941405
-60.49897001602197
-47.412832837415124
-30.127412832837415
-19.48271915770199
-15.674067292286564
-15.771725032425422
-17.13893339436942
-16.064698252841993
-12.549019607843137
-8.252079041733426
-5.127031357289998
-4.345769436179141
-3.8574807354848555
-2.392614633401999
0.6347753109025711
4.248111696040284
5.908293278400855
7.763790341039139
10.205233844510566
12.84199282825971
14.795147631036851
14.306858930342566
12.060730907148852
8.545052262149996
7.177843900205997
9.033340962844282
11.377126726176853
12.74433508812085
11.767757686732281
9.42397192339971
7.763790341039139
6.6895551995117115
6.201266498817426
5.420004577706569
6.103608758678568
8.642710002288853
11.279468986037996
13.13496604867628
12.549019607843137
10.205233844510566
7.959105821316854
5.908293278400855
4.052796215762569
1.3183794918745708
-0.14648661020828566
-0.14648661020828566
-0.43945983062485694
-1.416037232013428
-4.150453955901427
-8.252079041733426
-12.353704127565424
-16.064698252841993
-18.11551079575799
-18.701457236591136
-16.650644693675137
-12.646677347981994
-9.42397192339971
-6.884870679789426
-5.810635538261997
-5.908293278400855
-5.517662317845426
-4.150453955901427
-1.6113527122911422
0.537117570763714
2.9785610742351416
5.810635538261997
7.080186160067139
7.568474860761425
6.6895551995117115
5.127031357289998
3.7598229953459983
2.197299153124285
0.9277485313191425
0.24414435034714274
2.0019836728465705
5.0293736171511405
6.201266498817426
5.615320057984283
3.36919203479057
0.9277485313191425
0.04882887006942855
1.1230640115968566
3.9551384756237127
6.6895551995117115
9.228656443121995
11.865415426871138
14.599832150759136
19.678034637979707
25.24452582589456
28.857862211032273
29.2484931715877
25.732814526588847
19.971007858396277
12.939650568398566
5.420004577706569
-4.150453955901427
-16.650644693675137
-28.076600289921416
-36.0845349813077
-39.307240405889985
-37.94003204394598
-33.3501182574197
-27.49065384908827
-22.705424582284277
-18.60379949645228
-14.795147631036851
-12.646677347981994
-10.205233844510566
-7.080186160067139
-2.392614633401999
7.763790341039139
29.834439612420844
63.819333180743115
90.87052719920653
85.0110627908751
39.014267185473415
-22.119478141451133
-60.987258716716255
-64.50293736171511
-46.43625543602655
-26.318760967421987
-15.088120851453422
-12.256046387426567
-14.209201190203707
-14.795147631036851
-11.572442206454566
-7.177843900205997
-2.68558785381857
-0.04882887006942855
0.24414435034714274
-0.8300907911802854
-2.392614633401999
-2.8809033340962844
-2.9785610742351416
-2.2949568932631417
-0.7324330510414282
0.8300907911802854
4.150453955901427
7.373159380483711
8.05676356145571
6.6895551995117115
5.71297779812314
7.568474860761425
10.79118028534371
14.599832150759136
17.627222095063708
18.21316853589685
17.52956435492485
15.381094071869994
12.74433508812085
11.279468986037996
10.205233844510566
8.349736781872283
5.224689097428855
3.9551384756237127
6.298924238956283
10.009918364232853
13.037308308537423
12.158388647287708
7.763790341039139
3.5645075150682843
1.3183794918745708
1.0254062714579995
0.537117570763714
0.34180209048599985
-0.43945983062485694
-4.052796215762569
-8.838025482566568
-13.81857022964828
-17.334248874647134
-18.11551079575799
-17.52956435492485
-16.55298695353628
-16.064698252841993
-14.990463111314565
-13.037308308537423
-12.256046387426567
-11.377126726176853
-11.279468986037996
-11.865415426871138
-11.767757686732281
-9.912260624093996
-5.908293278400855
-2.68558785381857
-1.0254062714579995
-0.43945983062485694
-0.34180209048599985
1.9043259327077133
5.127031357289998
6.591897459372854
6.103608758678568
5.127031357289998
5.517662317845426
5.517662317845426
5.127031357289998
4.638742656595713
3.662165255207141
3.7598229953459983
4.834058136873426
5.810635538261997
6.103608758678568
5.0293736171511405
3.36919203479057
1.7090104524299992
2.2949568932631417
5.224689097428855
7.666132600900283
9.42397192339971
9.033340962844282
6.201266498817426
2.490272373540856
-1.0254062714579995
-2.783245593957427
-3.2715342946517127
-1.8066681925688564
1.416037232013428
4.345769436179141
6.494239719233997
6.005951018539712
3.2715342946517127
0.7324330510414282
-0.34180209048599985
0.04882887006942855
0.537117570763714
0.8300907911802854
0.537117570763714
-0.14648661020828566
1.416037232013428
4.541084916456855
6.103608758678568
4.931715877012284
1.513694972152285
-1.1230640115968566
-2.783245593957427
-2.8809033340962844
-2.0019836728465705
-0.8300907911802854
2.0996414129854277
5.127031357289998
5.71297779812314
3.662165255207141
0.34180209048599985
-1.6113527122911422
-2.783245593957427
-3.076218814373999
-3.5645075150682843
-5.71297779812314
-6.298924238956283
-2.783245593957427
5.420004577706569
14.795147631036851
18.60379949645228
14.11154345006485
4.443427176317998
-2.8809033340962844
-5.322346837567712
-6.884870679789426
-9.71694514381628
-15.088120851453422
-20.654612039368278
-23.19371328297856
-22.998397802700847
-21.533531700617992
-19.58037689784085
-13.13496604867628
2.783245593957427
31.00633249408713
70.4600595101854
104.44495307850767
106.98405432211796
63.526359960326545
-12.158388647287708
-81.88601510643167
-112.45288776989395
-99.46440833142596
-64.69825284199283
-33.93606469825284
-16.16235599298085
-9.521629663538567
-9.42397192339971
-10.888838025482567
-11.181811245899137
-8.349736781872283
-4.443427176317998
-0.7324330510414282
1.7090104524299992
2.392614633401999
3.662165255207141
5.615320057984283
6.39658197909514
5.127031357289998
2.0996414129854277
-0.04882887006942855
-0.24414435034714274
2.5879301136797133
7.373159380483711
10.302891584649425
11.47478446631571
10.595864805065995
8.642710002288853
7.177843900205997
6.591897459372854
7.080186160067139
7.470817120622568
8.44739452201114
10.595864805065995
11.963073167009995
13.81857022964828
15.576409552147707
16.260013733119706
15.381094071869994
12.256046387426567
8.642710002288853
5.810635538261997
4.834058136873426
4.931715877012284
4.052796215762569
3.662165255207141
3.36919203479057
2.2949568932631417
0.6347753109025711
-1.9043259327077133
-4.638742656595713
-7.373159380483711
-8.935683222705425
-9.912260624093996
-12.158388647287708
-14.013885709925994
-15.47875181200885
-16.45532921339742
-16.064698252841993
-15.283436331731137
-14.990463111314565
-15.576409552147707
-14.599832150759136
-10.986495765621424
-7.177843900205997
-2.68558785381857
2.0996414129854277
6.103608758678568
7.666132600900283
5.322346837567712
1.2207217517357138
-1.8066681925688564
-1.513694972152285
1.3183794918745708
3.36919203479057
4.736400396734569
5.517662317845426
5.517662317845426
5.615320057984283
5.71297779812314
5.71297779812314
4.834058136873426
3.8574807354848555
3.2715342946517127
2.490272373540856
3.1738765545128556
4.638742656595713
5.420004577706569
5.908293278400855
6.6895551995117115
8.154421301594567
8.642710002288853
7.959105821316854
6.884870679789426
5.71297779812314
6.494239719233997
7.861448081177996
8.154421301594567
8.05676356145571
7.080186160067139
5.615320057984283
3.1738765545128556
1.513694972152285
0.9277485313191425
-0.43945983062485694
-2.0019836728465705
-3.2715342946517127
-3.5645075150682843
-2.8809033340962844
-3.466849774929427
-5.322346837567712
-7.275501640344854
-7.373159380483711
-6.201266498817426
-6.39658197909514
-5.517662317845426
-2.8809033340962844
0.43945983062485694
4.150453955901427
7.568474860761425
10.79118028534371
13.13496604867628
14.990463111314565
15.967040512703136
13.916227969787137
9.521629663538567
2.8809033340962844
-3.7598229953459983
-6.884870679789426
-6.494239719233997
-4.834058136873426
-4.931715877012284
-6.982528419928283
-9.521629663538567
-10.986495765621424
-6.39658197909514
6.982528419928283
32.27588311589227
67.0420386053254
91.55413138017853
79.3469138628214
23.87731746395056
-47.11985961699855
-94.87449454489968
-101.71053635461966
-77.29610131990539
-46.533913176165406
-27.392996108949415
-22.21713588158999
-25.63515678644999
-29.9320973525597
-30.71335927367056
-26.123445487144274
-18.21316853589685
-11.377126726176853
-5.517662317845426
-1.3183794918745708
0.34180209048599985
1.2207217517357138
1.6113527122911422
1.7090104524299992
1.513694972152285
2.5879301136797133
4.834058136873426
5.615320057984283
5.517662317845426
5.0293736171511405
4.150453955901427
4.052796215762569
3.9551384756237127
3.662165255207141
2.2949568932631417
0.8300907911802854
0.537117570763714
0.43945983062485694
1.6113527122911422
2.68558785381857
1.7090104524299992
-0.04882887006942855
-1.9043259327077133
-2.197299153124285
-1.0254062714579995
1.1230640115968566
2.9785610742351416
2.8809033340962844
2.9785610742351416
3.662165255207141
3.466849774929427
3.36919203479057
3.2715342946517127
3.076218814373999
1.3183794918745708
-1.1230640115968566
-3.7598229953459983
-7.177843900205997
-8.838025482566568
-9.228656443121995
-10.205233844510566
-11.865415426871138
-13.720912489509422
-14.50217441062028
-13.81857022964828
-10.595864805065995
-5.517662317845426
-1.513694972152285
1.6113527122911422
3.662165255207141
4.052796215762569
4.052796215762569
3.7598229953459983
3.8574807354848555
4.345769436179141
6.201266498817426
9.033340962844282
10.302891584649425
11.377126726176853
13.13496604867628
14.50217441062028
14.990463111314565
13.623254749370565
11.963073167009995
11.377126726176853
12.74433508812085
14.50217441062028
13.81857022964828
12.45136186770428
12.060730907148852
11.963073167009995
11.279468986037996
8.74036774242771
5.71297779812314
3.662165255207141
3.662165255207141
4.834058136873426
4.931715877012284
6.005951018539712
8.05676356145571
9.619287403677424
10.498207064927138
9.521629663538567
6.982528419928283
3.5645075150682843
0.34180209048599985
-2.392614633401999
-5.615320057984283
-5.908293278400855
-3.36919203479057
-0.24414435034714274
2.490272373540856
3.9551384756237127
4.052796215762569
2.8809033340962844
1.8066681925688564
0.7324330510414282
-1.3183794918745708
-2.197299153124285
-1.8066681925688564
-2.0019836728465705
-3.2715342946517127
-5.71297779812314
-7.666132600900283
-7.177843900205997
-3.076218814373999
2.783245593957427
6.39658197909514
7.080186160067139
4.248111696040284
-1.8066681925688564
-7.275501640344854
-9.912260624093996
-8.74036774242771
-5.127031357289998
-1.1230640115968566
1.0254062714579995
-0.6347753109025711
-2.783245593957427
-2.490272373540856
2.0019836728465705
15.088120851453422
40.186160067139696
75.34294651712825
101.22224765392538
89.40566109712367
31.885252155336843
-42.236972610055695
-87.64782177462425
-87.64782177462425
-60.8896009765774
-32.764171816586554
-17.236591134508277
-13.232623788815136
-14.892805371175708
-16.260013733119706
-14.892805371175708
-12.646677347981994
-8.642710002288853
-3.36919203479057
0.8300907911802854
3.36919203479057
2.9785610742351416
0.537117570763714
-2.392614633401999
-3.36919203479057
-1.416037232013428
0.8300907911802854
3.2715342946517127
5.420004577706569
6.884870679789426
8.74036774242771
9.71694514381628
9.326314183260854
8.349736781872283
8.252079041733426
8.838025482566568
7.177843900205997
5.420004577706569
4.931715877012284
5.0293736171511405
5.810635538261997
6.201266498817426
6.298924238956283
6.103608758678568
6.787212939650568
8.838025482566568
10.498207064927138
11.963073167009995
11.572442206454566
8.74036774242771
5.420004577706569
2.490272373540856
0.6347753109025711
-0.04882887006942855
-0.24414435034714274
-1.3183794918745708
-5.224689097428855
-9.71694514381628
-13.81857022964828
-17.13893339436942
-18.310826276035705
-19.48271915770199
-22.314793621728846
-26.514076447699704
-28.857862211032273
-27.49065384908827
-24.17029068436713
-18.21316853589685
-10.79118028534371
-5.224689097428855
-1.8066681925688564
-0.7324330510414282
-0.34180209048599985
-0.14648661020828566
-0.6347753109025711
-1.9043259327077133
-4.052796215762569
-2.783245593957427
2.197299153124285
7.177843900205997
9.71694514381628
8.154421301594567
3.9551384756237127
-0.14648661020828566
-2.0019836728465705
-1.3183794918745708
-0.6347753109025711
1.3183794918745708
5.0293736171511405
8.74036774242771
10.400549324788281
7.568474860761425
1.8066681925688564
-3.1738765545128556
-5.127031357289998
-3.7598229953459983
-0.9277485313191425
4.248111696040284
9.71694514381628
11.181811245899137
9.130998702983138
5.810635538261997
4.052796215762569
3.662165255207141
3.36919203479057
2.2949568932631417
0.24414435034714274
0.24414435034714274
2.392614633401999
3.9551384756237127
4.736400396734569
4.443427176317998
3.36919203479057
1.513694972152285
-0.9277485313191425
-2.8809033340962844
-3.466849774929427
-0.04882887006942855
4.834058136873426
6.39658197909514
4.052796215762569
-1.6113527122911422
-8.349736781872283
-12.549019607843137
-10.009918364232853
-0.8300907911802854
8.74036774242771
14.50217441062028
14.013885709925994
7.959105821316854
1.3183794918745708
-3.8574807354848555
-7.177843900205997
-8.74036774242771
-7.666132600900283
-3.2715342946517127
1.3183794918745708
4.834058136873426
4.541084916456855
-0.24414435034714274
-4.248111696040284
-0.6347753109025711
18.11551079575799
54.54184786755169
98.97611963073167
126.9062333104448
110.40207522697796
44.09246967269398
-45.362020294499125
-112.25757228961623
-125.83199816891737
-96.14404516670481
-55.32310978866255
-27.49065384908827
-16.45532921339742
-14.013885709925994
-13.427939269092851
-10.205233844510566
-5.615320057984283
-2.8809033340962844
-0.8300907911802854
1.513694972152285
3.662165255207141
3.662165255207141
1.7090104524299992
-0.04882887006942855
-1.7090104524299992
-0.7324330510414282
2.490272373540856
5.322346837567712
7.080186160067139
7.373159380483711
6.884870679789426
5.908293278400855
4.638742656595713
3.076218814373999
0.9277485313191425
1.1230640115968566
3.662165255207141
5.517662317845426
6.591897459372854
7.275501640344854
8.545052262149996
10.302891584649425
11.767757686732281
12.060730907148852
11.08415350576028
12.060730907148852
14.892805371175708
15.869382772564279
14.11154345006485
9.326314183260854
4.052796215762569
0.9277485313191425
0.43945983062485694
0.7324330510414282
-1.513694972152285
-4.443427176317998
-7.080186160067139
-10.009918364232853
-12.646677347981994
-15.771725032425422
-18.701457236591136
-20.654612039368278
-21.045242999923705
-19.87335011825742
-18.799114976729992
-16.55298695353628
-13.916227969787137
-12.158388647287708
-9.326314183260854
-5.224689097428855
-1.0254062714579995
2.0019836728465705
3.9551384756237127
4.345769436179141
2.2949568932631417
0.8300907911802854
1.513694972152285
2.783245593957427
4.150453955901427
4.345769436179141
3.8574807354848555
2.8809033340962844
1.416037232013428
-0.8300907911802854
-3.662165255207141
-2.5879301136797133
2.490272373540856
7.275501640344854
9.130998702983138
6.884870679789426
2.8809033340962844
-0.6347753109025711
-3.076218814373999
-3.9551384756237127
-3.5645075150682843
0.537117570763714
7.275501640344854
11.47478446631571
10.986495765621424
5.0293736171511405
-3.076218814373999
-9.326314183260854
-11.377126726176853
-9.81460288395514
-7.861448081177996
-5.420004577706569
-2.9785610742351416
-1.9043259327077133
-0.9277485313191425
0.14648661020828566
2.68558785381857
7.470817120622568
13.525597009231708
18.89677271686885
22.60776684214542
28.369573510337986
35.4009308003357
38.72129396505684
35.69390402075227
24.95155260547799
8.44739452201114
-9.71694514381628
-26.709391927977418
-39.893186846723125
-47.80346379797055
-47.21751735713741
-40.28381780727855
-32.95948729686427
-27.295338368810558
-23.48668650339513
-20.263981078812847
-16.650644693675137
-12.353704127565424
-6.6895551995117115
2.0019836728465705
22.412451361867703
59.522392614633404
101.90585183489738
120.36316472114137
86.57358663309682
7.959105821316854
-70.4600595101854
-106.10513466086825
-93.11665522240024
-57.56923781185626
-25.439841306172273
-7.959105821316854
-3.7598229953459983
-4.443427176317998
-5.127031357289998
-5.224689097428855
-5.71297779812314
-6.494239719233997
-6.201266498817426
-5.224689097428855
-1.6113527122911422
4.052796215762569
8.642710002288853
11.670099946593423
13.13496604867628
13.916227969787137
14.404516670481422
14.209201190203707
13.427939269092851
11.47478446631571
10.400549324788281
10.10757610437171
9.326314183260854
9.619287403677424
11.181811245899137
13.13496604867628
14.50217441062028
14.013885709925994
12.646677347981994
11.279468986037996
12.74433508812085
16.357671473258563
18.21316853589685
17.724879835202564
15.185778591592278
12.353704127565424
10.498207064927138
9.42397192339971
8.838025482566568
7.568474860761425
7.275501640344854
6.787212939650568
3.8574807354848555
0.14648661020828566
-3.8574807354848555
-7.568474860761425
-10.79118028534371
-14.11154345006485
-18.310826276035705
-23.58434424353399
-26.709391927977418
-27.002365148393988
-26.123445487144274
-23.48668650339513
-20.263981078812847
-17.627222095063708
-15.967040512703136
-14.599832150759136
-12.646677347981994
-10.595864805065995
-6.494239719233997
-0.8300907911802854
3.36919203479057
5.810635538261997
5.615320057984283
3.36919203479057
0.9277485313191425
-0.537117570763714
-0.6347753109025711
-0.24414435034714274
1.9043259327077133
5.224689097428855
7.080186160067139
8.252079041733426
8.545052262149996
7.959105821316854
7.568474860761425
7.959105821316854
9.033340962844282
8.935683222705425
8.05676356145571
6.6895551995117115
4.345769436179141
3.36919203479057
4.150453955901427
6.982528419928283
11.963073167009995
17.627222095063708
22.60776684214542
24.65857938506142
24.365606164644845
21.533531700617992
16.260013733119706
11.377126726176853
5.224689097428855
-5.0293736171511405
-19.58037689784085
-35.010299839780274
-46.43625543602655
-51.02616922255284
-46.240939955748836
-35.303273060196844
-25.63515678644999
-19.18974593728542
-16.45532921339742
-16.064698252841993
-16.650644693675137
-17.13893339436942
-14.795147631036851
-4.834058136873426
22.90074006256199
69.9717708094911
114.4060425726711
121.24208438239108
71.1436636911574
-11.377126726176853
-75.63591973754482
-91.06584267948425
-67.62798504615854
-35.4009308003357
-12.939650568398566
-3.466849774929427
-2.783245593957427
-4.052796215762569
-4.834058136873426
-5.0293736171511405
-4.541084916456855
-3.7598229953459983
-3.36919203479057
-4.736400396734569
-5.0293736171511405
-3.076218814373999
-0.6347753109025711
2.392614633401999
4.931715877012284
5.322346837567712
4.150453955901427
3.2715342946517127
4.638742656595713
6.591897459372854
9.033340962844282
10.888838025482567
10.595864805065995
10.595864805065995
11.670099946593423
13.13496604867628
14.50217441062028
14.697489890897993
13.916227969787137
12.646677347981994
13.232623788815136
15.869382772564279
17.43190661478599
18.11551079575799
17.13893339436942
14.795147631036851
12.060730907148852
9.521629663538567
7.470817120622568
5.224689097428855
3.466849774929427
1.0254062714579995
-2.8809033340962844
-5.810635538261997
-7.080186160067139
-8.349736781872283
-10.693522545204852
-13.720912489509422
-15.869382772564279
-17.041275654230564
-17.041275654230564
-17.920195315480278
-20.84992751964599
-21.24055848020142
-18.11551079575799
-13.525597009231708
-9.42397192339971
-6.787212939650568
-4.931715877012284
-4.052796215762569
-2.2949568932631417
0.14648661020828566
1.2207217517357138
2.8809033340962844
5.810635538261997
8.838025482566568
9.81460288395514
6.787212939650568
1.513694972152285
-3.1738765545128556
-2.5879301136797133
2.5879301136797133
6.884870679789426
8.252079041733426
6.39658197909514
3.8574807354848555
2.783245593957427
2.5879301136797133
2.197299153124285
1.0254062714579995
2.197299153124285
6.494239719233997
11.08415350576028
15.47875181200885
19.092088197146563
21.728847180895706
24.17029068436713
25.830472266727703
26.416418707560844
24.65857938506142
21.533531700617992
16.45532921339742
7.568474860761425
-3.8574807354848555
-18.017853055619135
-32.471198596169984
-42.822919050888835
-46.63157091630426
-44.48310063324941
-39.69787136644541
-32.764171816586554
-24.267948424505988
-17.041275654230564
-10.693522545204852
-6.39658197909514
-5.420004577706569
-6.201266498817426
-4.052796215762569
8.74036774242771
38.1353475242237
78.85862516212711
104.64026855878538
86.37827115281911
26.22110322728313
-41.45571068894484
-78.46799420157168
-73.78042267490653
-46.72922865644312
-21.63118944075685
-10.400549324788281
-8.74036774242771
-9.71694514381628
-10.986495765621424
-10.302891584649425
-8.545052262149996
-6.787212939650568
-4.443427176317998
-2.0019836728465705
0.04882887006942855
0.14648661020828566
0.6347753109025711
2.68558785381857
4.638742656595713
7.080186160067139
9.71694514381628
12.353704127565424
14.50217441062028
14.11154345006485
10.595864805065995
5.810635538261997
4.248111696040284
6.6895551995117115
9.81460288395514
12.256046387426567
12.353704127565424
10.205233844510566
7.568474860761425
5.0293736171511405
3.466849774929427
3.1738765545128556
5.908293278400855
9.81460288395514
11.670099946593423
12.646677347981994
13.037308308537423
12.353704127565424
11.377126726176853
10.009918364232853
7.763790341039139
3.8574807354848555
0.04882887006942855
-3.36919203479057
-7.763790341039139
-11.377126726176853
-14.697489890897993
-18.40848401617456
-21.728847180895706
-24.560921644922562
-26.318760967421987
-27.49065384908827
-26.709391927977418
-24.365606164644845
-22.412451361867703
-18.701457236591136
-13.427939269092851
-8.74036774242771
-5.615320057984283
-4.052796215762569
-2.9785610742351416
-2.490272373540856
-0.8300907911802854
1.1230640115968566
1.513694972152285
2.490272373540856
4.150453955901427
5.420004577706569
6.591897459372854
7.470817120622568
8.05676356145571
7.177843900205997
6.6895551995117115
7.470817120622568
7.568474860761425
8.05676356145571
8.05676356145571
6.494239719233997
4.248111696040284
2.0996414129854277
1.3183794918745708
1.9043259327077133
5.0293736171511405
10.693522545204852
16.45532921339742
22.314793621728846
27.100022888532845
29.9320973525597
30.811017013809415
27.100022888532845
18.310826276035705
6.298924238956283
-4.931715877012284
-15.088120851453422
-24.853894865339132
-31.494621194781413
-35.79156176089113
-39.20958266575113
-40.08850232700084
-37.35408560311284
-31.68993667505913
-26.318760967421987
-21.533531700617992
-17.041275654230564
-14.11154345006485
-10.302891584649425
-6.201266498817426
-2.9785610742351416
2.197299153124285
16.943617914091707
47.31517509727627
81.78835736629281
92.72602426184481
59.32707713435569
-4.638742656595713
-56.7879758907454
-69.9717708094911
-51.51445792324712
-24.560921644922562
-6.6895551995117115
-1.0254062714579995
-2.197299153124285
-1.8066681925688564
2.8809033340962844
7.763790341039139
10.595864805065995
10.009918364232853
6.494239719233997
2.2949568932631417
-2.0019836728465705
-5.810635538261997
-7.861448081177996
-5.517662317845426
0.7324330510414282
6.298924238956283
9.228656443121995
8.935683222705425
6.298924238956283
4.052796215762569
2.68558785381857
2.2949568932631417
2.197299153124285
3.9551384756237127
7.470817120622568
10.009918364232853
12.45136186770428
14.697489890897993
15.771725032425422
15.771725032425422
14.306858930342566
12.158388647287708
10.498207064927138
11.08415350576028
13.13496604867628
13.81857022964828
13.81857022964828
12.353704127565424
9.033340962844282
6.005951018539712
4.052796215762569
2.8809033340962844
0.8300907911802854
-1.8066681925688564
-5.615320057984283
-11.279468986037996
-15.283436331731137
-16.357671473258563
-15.185778591592278
-12.549019607843137
-11.08415350576028
-11.767757686732281
-14.013885709925994
-14.404516670481422
-12.256046387426567
-10.498207064927138
-8.545052262149996
-6.787212939650568
-6.201266498817426
-5.517662317845426
-4.834058136873426
-3.7598229953459983
-2.783245593957427
-0.9277485313191425
1.0254062714579995
1.1230640115968566
1.6113527122911422
2.8809033340962844
3.076218814373999
2.2949568932631417
0.34180209048599985
-1.7090104524299992
-2.8809033340962844
-1.2207217517357138
2.5879301136797133
5.322346837567712
7.763790341039139
9.521629663538567
8.74036774242771
6.103608758678568
2.5879301136797133
0.6347753109025711
1.2207217517357138
5.322346837567712
12.060730907148852
18.310826276035705
24.267948424505988
28.760204470893417
30.127412832837415
28.760204470893417
24.17029068436713
16.650644693675137
6.6895551995117115
-3.9551384756237127
-15.967040512703136
-29.346150911726557
-39.11192492561227
-43.311207751583126
-42.43228809033341
-37.06111238269627
-29.736781872281988
-22.60776684214542
-17.236591134508277
-12.84199282825971
-9.521629663538567
-8.349736781872283
-6.982528419928283
-4.736400396734569
-0.43945983062485694
13.720912489509422
43.018234531166556
76.90547035934996
88.23376821545739
58.44815747310597
0.04882887006942855
-51.02616922255284
-66.55374990463112
-51.22148470283055
-28.369573510337986
-13.525597009231708
-9.912260624093996
-12.256046387426567
-15.185778591592278
-14.013885709925994
-9.033340962844282
-4.443427176317998
-0.537117570763714
1.6113527122911422
1.0254062714579995
0.14648661020828566
0.537117570763714
2.68558785381857
4.931715877012284
7.275501640344854
9.71694514381628
11.181811245899137
13.525597009231708
15.967040512703136
16.064698252841993
14.892805371175708
13.13496604867628
12.060730907148852
11.670099946593423
12.353704127565424
12.74433508812085
10.986495765621424
10.693522545204852
12.74433508812085
14.892805371175708
15.771725032425422
13.525597009231708
8.545052262149996
3.36919203479057
1.513694972152285
2.8809033340962844
4.150453955901427
5.224689097428855
5.322346837567712
3.8574807354848555
2.197299153124285
0.24414435034714274
-2.197299153124285
-5.810635538261997
-9.71694514381628
-13.916227969787137
-18.40848401617456
-19.775692378118563
-18.310826276035705
-16.84596017395285
-15.576409552147707
-14.697489890897993
-14.209201190203707
-13.623254749370565
-11.47478446631571
-8.44739452201114
-6.884870679789426
-3.7598229953459983
1.513694972152285
5.908293278400855
7.470817120622568
5.615320057984283
2.5879301136797133
0.14648661020828566
-0.14648661020828566
0.9277485313191425
1.8066681925688564
3.9551384756237127
6.6895551995117115
7.861448081177996
8.252079041733426
7.275501640344854
4.541084916456855
0.34180209048599985
-3.1738765545128556
-5.0293736171511405
-6.201266498817426
-4.931715877012284
-2.0996414129854277
-0.04882887006942855
1.513694972152285
2.8809033340962844
4.248111696040284
5.615320057984283
7.275501640344854
9.521629663538567
11.865415426871138
16.357671473258563
21.63118944075685
24.560921644922562
24.853894865339132
21.43587396047913
14.306858930342566
3.076218814373999
-10.79118028534371
-25.92813000686656
-39.40489814602884
-44.873731593804834
-41.45571068894484
-34.61966887922484
-28.467231250476843
-25.342183566033416
-23.779659723811704
-21.92416266117342
-19.287403677424276
-17.13893339436942
-17.334248874647134
-15.576409552147707
-8.74036774242771
5.517662317845426
31.885252155336843
63.91699092088197
80.2258335240711
60.401312275883114
9.619287403677424
-40.772106507972836
-62.84275577935454
-51.31914244296941
-25.24452582589456
-5.517662317845426
2.0019836728465705
0.8300907911802854
-2.8809033340962844
-5.127031357289998
-4.345769436179141
-1.2207217517357138
1.3183794918745708
3.9551384756237127
5.224689097428855
3.7598229953459983
2.5879301136797133
2.8809033340962844
4.150453955901427
5.322346837567712
7.666132600900283
11.767757686732281
15.088120851453422
17.52956435492485
17.920195315480278
15.283436331731137
12.060730907148852
8.545052262149996
4.834058136873426
2.392614633401999
3.076218814373999
6.005951018539712
8.252079041733426
11.181811245899137
14.795147631036851
17.52956435492485
19.678034637979707
19.287403677424276
15.869382772564279
10.693522545204852
5.810635538261997
2.392614633401999
-0.14648661020828566
0.14648661020828566
2.2949568932631417
2.490272373540856
1.416037232013428
-0.34180209048599985
-2.392614633401999
-4.834058136873426
-7.373159380483711
-9.81460288395514
-12.256046387426567
-12.353704127565424
-10.986495765621424
-11.08415350576028
-11.767757686732281
-12.353704127565424
-12.45136186770428
-12.158388647287708
-11.181811245899137
-10.009918364232853
-9.619287403677424
-7.275501640344854
-3.7598229953459983
-2.0019836728465705
-1.513694972152285
-1.9043259327077133
-2.490272373540856
-2.9785610742351416
-2.392614633401999
-0.34180209048599985
1.8066681925688564
5.322346837567712
8.642710002288853
9.033340962844282
7.080186160067139
2.783245593957427
-2.0996414129854277
-5.224689097428855
-4.052796215762569
0.43945983062485694
3.9551384756237127
5.810635538261997
4.541084916456855
-0.6347753109025711
-5.615320057984283
-7.373159380483711
-5.810635538261997
-2.9785610742351416
-1.513694972152285
-2.68558785381857
-6.494239719233997
-8.838025482566568
-8.642710002288853
-8.252079041733426
-7.080186160067139
-5.0293736171511405
-2.9785610742351416
-2.197299153124285
-2.783245593957427
-3.5645075150682843
-3.8574807354848555
-1.416037232013428
1.9043259327077133
2.783245593957427
2.197299153124285
0.6347753109025711
-0.8300907911802854
-1.3183794918745708
0.24414435034714274
2.9785610742351416
3.466849774929427
3.36919203479057
3.8574807354848555
4.541084916456855
6.201266498817426
6.103608758678568
2.68558785381857
-1.8066681925688564
-3.36919203479057
-0.6347753109025711
2.68558785381857
5.908293278400855
8.935683222705425
10.693522545204852
11.377126726176853
8.642710002288853
2.8809033340962844
-2.783245593957427
-5.615320057984283
-5.810635538261997
-5.810635538261997
-3.9551384756237127
-0.537117570763714
1.416037232013428
1.7090104524299992
-0.24414435034714274
-2.5879301136797133
-1.0254062714579995
6.005951018539712
15.869382772564279
22.314793621728846
24.365606164644845
22.021820401312276
15.869382772564279
9.033340962844282
2.0019836728465705
-5.420004577706569
-12.84199282825971
-18.310826276035705
-20.654612039368278
-20.361638818951704
-15.576409552147707
-8.935683222705425
-4.541084916456855
-0.24414435034714274
8.642710002288853
29.150835431448844
62.64744029907683
93.50728618295567
93.80025940337224
47.90112153810941
-24.65857938506142
-84.91340505073624
-104.54261081864652
-83.15556572823682
-44.97138933394369
-14.892805371175708
-2.490272373540856
-2.68558785381857
-6.005951018539712
-7.470817120622568
-6.005951018539712
-4.931715877012284
-6.884870679789426
-7.959105821316854
-5.224689097428855
0.14648661020828566
5.224689097428855
6.982528419928283
5.224689097428855
1.7090104524299992
1.8066681925688564
5.615320057984283
7.568474860761425
6.591897459372854
4.248111696040284
2.8809033340962844
3.8574807354848555
6.884870679789426
10.595864805065995
12.646677347981994
13.81857022964828
14.11154345006485
13.037308308537423
13.81857022964828
16.16235599298085
17.627222095063708
16.650644693675137
13.427939269092851
9.130998702983138
4.834058136873426
3.7598229953459983
5.322346837567712
6.005951018539712
6.201266498817426
5.71297779812314
4.638742656595713
3.2715342946517127
1.8066681925688564
0.04882887006942855
-2.68558785381857
-4.443427176317998
-5.322346837567712
-6.982528419928283
-8.252079041733426
-10.693522545204852
-15.283436331731137
-20.068665598535134
-21.533531700617992
-19.092088197146563
-16.45532921339742
-14.11154345006485
-12.060730907148852
-10.888838025482567
-8.349736781872283
-5.127031357289998
-3.076218814373999
-2.68558785381857
-3.662165255207141
-5.127031357289998
-5.908293278400855
-3.1738765545128556
1.8066681925688564
4.345769436179141
4.638742656595713
2.9785610742351416
0.6347753109025711
-0.43945983062485694
0.04882887006942855
1.0254062714579995
0.537117570763714
0.7324330510414282
2.392614633401999
3.662165255207141
4.834058136873426
4.345769436179141
1.8066681925688564
-0.24414435034714274
0.34180209048599985
2.783245593957427
3.466849774929427
3.076218814373999
2.2949568932631417
0.8300907911802854
0.6347753109025711
0.9277485313191425
0.14648661020828566
-1.1230640115968566
-2.392614633401999
-3.2715342946517127
-4.443427176317998
-4.248111696040284
-3.2715342946517127
-3.8574807354848555
-3.5645075150682843
-2.197299153124285
-1.2207217517357138
-1.1230640115968566
-1.8066681925688564
-2.0996414129854277
-2.490272373540856
-2.0996414129854277
-1.9043259327077133
-3.466849774929427
-3.076218814373999
-0.14648661020828566
2.9785610742351416
4.248111696040284
3.466849774929427
2.2949568932631417
0.8300907911802854
1.0254062714579995
1.9043259327077133
1.0254062714579995
-0.24414435034714274
-2.392614633401999
-6.005951018539712
-8.838025482566568
-8.252079041733426
-3.466849774929427
2.783245593957427
9.42397192339971
13.525597009231708
12.549019607843137
8.642710002288853
3.2715342946517127
-2.5879301136797133
-6.6895551995117115
-6.982528419928283
-3.7598229953459983
0.14648661020828566
3.8574807354848555
4.638742656595713
1.1230640115968566
-1.1230640115968566
3.1738765545128556
18.89677271686885
49.46364538033112
89.30800335698481
118.01937895780881
108.64423590447852
52.881666285191116
-26.61173418783856
-87.45250629434653
-99.85503929198138
-73.09681849393453
-37.64705882352941
-14.892805371175708
-8.545052262149996
-11.377126726176853
-16.260013733119706
-17.52956435492485
-15.185778591592278
-13.037308308537423
-10.10757610437171
-6.787212939650568
-4.541084916456855
-3.5645075150682843
-3.1738765545128556
-2.9785610742351416
-3.466849774929427
-2.783245593957427
-1.2207217517357138
-0.8300907911802854
0.04882887006942855
1.6113527122911422
2.8809033340962844
4.345769436179141
6.298924238956283
8.44739452201114
9.521629663538567
10.79118028534371
12.158388647287708
11.377126726176853
10.10757610437171
9.033340962844282
8.349736781872283
8.545052262149996
9.130998702983138
9.42397192339971
9.130998702983138
9.81460288395514
11.47478446631571
12.353704127565424
13.81857022964828
14.50217441062028
12.74433508812085
9.130998702983138
3.9551384756237127
-1.416037232013428
-5.810635538261997
-6.6895551995117115
-6.103608758678568
-8.252079041733426
-11.181811245899137
-13.427939269092851
-15.283436331731137
-16.650644693675137
-18.21316853589685
-20.068665598535134
-22.119478141451133
-21.24055848020142
-17.13893339436942
-12.646677347981994
-7.275501640344854
-2.197299153124285
0.04882887006942855
-0.8300907911802854
-4.052796215762569
-6.298924238956283
-5.71297779812314
-1.0254062714579995
4.736400396734569
7.080186160067139
7.080186160067139
5.420004577706569
2.783245593957427
0.7324330510414282
-0.43945983062485694
-1.2207217517357138
-2.197299153124285
-1.1230640115968566
1.8066681925688564
3.662165255207141
4.443427176317998
3.662165255207141
1.3183794918745708
0.14648661020828566
1.2207217517357138
2.9785610742351416
2.68558785381857
1.3183794918745708
-0.14648661020828566
-2.392614633401999
-2.68558785381857
-1.9043259327077133
-1.513694972152285
-1.0254062714579995
-0.14648661020828566
0.7324330510414282
0.6347753109025711
0.7324330510414282
1.7090104524299992
1.416037232013428
0.7324330510414282
-0.537117570763714
-2.0996414129854277
-1.8066681925688564
0.04882887006942855
1.7090104524299992
1.1230640115968566
0.34180209048599985
0.24414435034714274
-0.04882887006942855
1.416037232013428
3.8574807354848555
5.127031357289998
4.834058136873426
2.783245593957427
0.04882887006942855
-3.1738765545128556
-4.150453955901427
-3.076218814373999
-2.783245593957427
-2.392614633401999
-2.783245593957427
-5.420004577706569
-8.74036774242771
-11.279468986037996
-11.279468986037996
-7.959105821316854
-0.7324330510414282
6.6895551995117115
9.326314183260854
8.44739452201114
5.517662317845426
1.3183794918745708
-2.5879301136797133
-6.103608758678568
-8.349736781872283
-8.154421301594567
-4.052796215762569
0.7324330510414282
1.1230640115968566
-0.24414435034714274
0.7324330510414282
7.470817120622568
22.705424582284277
48.09643701838712
81.78835736629281
106.59342336156253
95.65575646601053
36.96345464255741
-43.311207751583126
-96.33936064698253
-99.26909285114824
-68.60456244754711
-34.131380178530556
-14.013885709925994
-8.349736781872283
-9.326314183260854
-9.130998702983138
-7.080186160067139
-6.6895551995117115
-5.908293278400855
-3.2715342946517127
-0.34180209048599985
2.0019836728465705
2.783245593957427
2.392614633401999
1.416037232013428
2.2949568932631417
5.322346837567712
6.884870679789426
7.275501640344854
6.103608758678568
3.2715342946517127
0.9277485313191425
1.1230640115968566
3.9551384756237127
7.470817120622568
10.595864805065995
11.865415426871138
10.009918364232853
9.42397192339971
11.377126726176853
12.74433508812085
11.181811245899137
7.177843900205997
4.834058136873426
5.71297779812314
8.545052262149996
10.10757610437171
9.81460288395514
12.256046387426567
16.45532921339742
17.52956435492485
14.306858930342566
8.642710002288853
4.150453955901427
2.490272373540856
3.36919203479057
2.9785610742351416
-2.0019836728465705
-8.838025482566568
-14.599832150759136
-18.017853055619135
-18.506141756313422
-18.11551079575799
-18.21316853589685
-19.58037689784085
-19.971007858396277
-18.40848401617456
-16.357671473258563
-12.256046387426567
-7.275501640344854
-4.150453955901427
-3.1738765545128556
-3.5645075150682843
-3.7598229953459983
-3.36919203479057
-1.2207217517357138
1.513694972152285
2.68558785381857
4.248111696040284
6.201266498817426
6.982528419928283
7.080186160067139
6.201266498817426
4.345769436179141
1.8066681925688564
1.0254062714579995
2.392614633401999
3.36919203479057
4.443427176317998
5.615320057984283
6.201266498817426
6.591897459372854
5.810635538261997
3.8574807354848555
1.6113527122911422
0.14648661020828566
-1.2207217517357138
-3.9551384756237127
-4.931715877012284
-3.7598229953459983
-2.9785610742351416
-2.5879301136797133
-2.5879301136797133
-2.68558785381857
-3.1738765545128556
-2.490272373540856
-0.8300907911802854
-0.7324330510414282
-1.2207217517357138
-2.8809033340962844
-5.71297779812314
-6.6895551995117115
-5.420004577706569
-3.076218814373999
-2.0996414129854277
-2.0019836728465705
-1.8066681925688564
-2.0996414129854277
-0.6347753109025711
1.513694972152285
2.0019836728465705
1.2207217517357138
-1.416037232013428
-5.615320057984283
-10.009918364232853
-11.47478446631571
-9.912260624093996
-8.154421301594567
-5.908293278400855
-4.736400396734569
-6.39658197909514
-8.642710002288853
-9.521629663538567
-7.959105821316854
-4.638742656595713
-0.7324330510414282
1.3183794918745708
-0.43945983062485694
-2.68558785381857
-4.443427176317998
-7.470817120622568
-10.205233844510566
-11.767757686732281
-10.595864805065995
-6.787212939650568
-1.416037232013428
2.0019836728465705
1.3183794918745708
0.6347753109025711
3.1738765545128556
10.595864805065995
28.174258030060273
59.03410391393912
94.77683680476082
109.52315556572823
78.95628290226597
8.349736781872283
-63.526359960326545
-95.46044098573282
-82.27664606698711
-49.56130312046998
-22.60776684214542
-12.256046387426567
-15.381094071869994
-21.92416266117342
-22.21713588158999
-14.990463111314565
-7.275501640344854
-2.0996414129854277
0.43945983062485694
0.9277485313191425
1.0254062714579995
0.04882887006942855
-1.6113527122911422
-2.783245593957427
-1.416037232013428
2.5879301136797133
6.298924238956283
10.888838025482567
15.576409552147707
18.21316853589685
18.89677271686885
17.82253757534142
16.357671473258563
15.47875181200885
16.357671473258563
17.82253757534142
17.724879835202564
17.920195315480278
18.310826276035705
17.627222095063708
17.43190661478599
17.52956435492485
17.236591134508277
15.869382772564279
14.697489890897993
14.404516670481422
14.11154345006485
15.771725032425422
18.11551079575799
17.627222095063708
13.623254749370565
6.201266498817426
-2.0019836728465705
-8.252079041733426
-10.595864805065995
-10.10757610437171
-9.71694514381628
-8.349736781872283
-7.568474860761425
-9.228656443121995
-11.865415426871138
-15.185778591592278
-18.89677271686885
-22.314793621728846
-23.19371328297856
-20.752269779507134
-16.943617914091707
-10.498207064927138
-2.68558785381857
2.392614633401999
3.9551384756237127
1.7090104524299992
-2.0996414129854277
-5.322346837567712
-5.517662317845426
-2.8809033340962844
0.34180209048599985
6.005951018539712
12.84199282825971
15.869382772564279
12.158388647287708
3.076218814373999
-5.224689097428855
-8.252079041733426
-6.494239719233997
-3.8574807354848555
-2.9785610742351416
-1.1230640115968566
1.416037232013428
1.9043259327077133
0.8300907911802854
-0.8300907911802854
-2.2949568932631417
-2.9785610742351416
-2.5879301136797133
-2.0996414129854277
-2.8809033340962844
-2.0996414129854277
0.34180209048599985
2.0019836728465705
2.5879301136797133
2.490272373540856
2.2949568932631417
2.392614633401999
2.490272373540856
1.6113527122911422
-1.0254062714579995
-1.3183794918745708
2.0996414129854277
6.982528419928283
11.572442206454566
13.720912489509422
14.11154345006485
15.185778591592278
17.627222095063708
18.994430457007706
16.357671473258563
12.256046387426567
6.005951018539712
-4.638742656595713
-17.43190661478599
-29.053177691309987
-37.15877012283513
-40.08850232700084
-37.74471656366827
-31.9829098954757
-26.709391927977418
-21.43587396047913
-17.236591134508277
-15.869382772564279
-15.283436331731137
-13.720912489509422
-9.42397192339971
1.416037232013428
25.732814526588847
63.33104448004883
94.38620584420539
90.2845807583734
39.600213626306555
-31.787594415197987
-78.76096742198825
-81.78835736629281
-56.006713969634546
-28.076600289921416
-12.84199282825971
-10.595864805065995
-14.892805371175708
-16.45532921339742
-13.037308308537423
-8.838025482566568
-5.127031357289998
-2.783245593957427
-1.8066681925688564
-1.7090104524299992
-1.513694972152285
-0.537117570763714
-0.43945983062485694
0.7324330510414282
2.8809033340962844
3.8574807354848555
4.736400396734569
5.71297779812314
6.39658197909514
6.494239719233997
6.298924238956283
6.201266498817426
5.322346837567712
6.201266498817426
8.935683222705425
10.693522545204852
11.279468986037996
9.619287403677424
6.298924238956283
3.2715342946517127
2.8809033340962844
5.0293736171511405
7.080186160067139
9.619287403677424
11.767757686732281
11.963073167009995
11.963073167009995
12.158388647287708
12.45136186770428
12.353704127565424
11.377126726176853
8.74036774242771
4.052796215762569
1.0254062714579995
-0.24414435034714274
-2.8809033340962844
-6.6895551995117115
-11.865415426871138
-17.236591134508277
-20.947585259784848
-21.63118944075685
-19.678034637979707
-17.334248874647134
-13.427939269092851
-8.642710002288853
-5.420004577706569
-2.9785610742351416
-0.9277485313191425
0.537117570763714
1.1230640115968566
0.7324330510414282
0.04882887006942855
-0.8300907911802854
1.0254062714579995
5.127031357289998
7.763790341039139
8.545052262149996
7.080186160067139
4.248111696040284
2.9785610742351416
4.638742656595713
7.275501640344854
7.373159380483711
6.103608758678568
4.736400396734569
3.7598229953459983
4.931715877012284
6.591897459372854
6.201266498817426
3.076218814373999
-1.2207217517357138
-4.638742656595713
-6.39658197909514
-4.931715877012284
-1.7090104524299992
1.1230640115968566
5.615320057984283
11.865415426871138
17.82253757534142
22.021820401312276
25.146868085755703
27.49065384908827
27.002365148393988
23.974975204089418
18.017853055619135
9.42397192339971
0.34180209048599985
-10.009918364232853
-21.92416266117342
-32.6665140764477
-38.91660944533455
-39.20958266575113
-35.20561532005799
-27.1976806286717
-17.920195315480278
-10.888838025482567
-5.420004577706569
-1.9043259327077133
-1.6113527122911422
-3.7598229953459983
-4.834058136873426
1.9043259327077133
23.291371023117417
59.22941939421683
88.91737239642939
83.35088120851454
36.768139162279695
-25.63515678644999
-66.84672312504769
-69.38582436865796
-45.85030899519341
-19.678034637979707
-5.322346837567712
-1.513694972152285
-2.9785610742351416
-6.591897459372854
-8.154421301594567
-7.568474860761425
-6.298924238956283
-4.248111696040284
-1.2207217517357138
2.392614633401999
5.127031357289998
8.349736781872283
11.181811245899137
11.47478446631571
11.377126726176853
11.279468986037996
10.10757610437171
7.959105821316854
5.224689097428855
2.9785610742351416
1.7090104524299992
3.1738765545128556
5.517662317845426
5.908293278400855
6.787212939650568
8.642710002288853
9.912260624093996
10.10757610437171
10.009918364232853
10.986495765621424
12.646677347981994
15.674067292286564
18.89677271686885
19.971007858396277
20.45929655909056
20.263981078812847
19.092088197146563
17.920195315480278
16.45532921339742
13.916227969787137
10.009918364232853
7.861448081177996
7.373159380483711
5.71297779812314
3.5645075150682843
-0.14648661020828566
-5.517662317845426
-10.693522545204852
-14.209201190203707
-16.260013733119706
-18.017853055619135
-17.724879835202564
-16.260013733119706
-15.771725032425422
-14.11154345006485
-11.865415426871138
-10.888838025482567
-11.181811245899137
-10.595864805065995
-8.154421301594567
-6.298924238956283
-4.736400396734569
-3.076218814373999
-2.490272373540856
-2.0996414129854277
-3.1738765545128556
-5.908293278400855
-7.861448081177996
-6.6895551995117115
-3.36919203479057
-1.8066681925688564
-1.513694972152285
-1.416037232013428
-1.3183794918745708
0.34180209048599985
2.197299153124285
1.8066681925688564
-0.7324330510414282
-3.5645075150682843
-4.345769436179141
-2.9785610742351416
1.1230640115968566
5.810635538261997
7.080186160067139
6.982528419928283
8.05676356145571
11.670099946593423
16.84596017395285
21.338216220340275
23.48668650339513
22.021820401312276
18.40848401617456
12.646677347981994
3.5645075150682843
-6.494239719233997
-17.041275654230564
-27.588311589227132
-35.889219501029984
-40.67444876783398
-41.065079728389414
-38.525978484779124
-32.764171816586554
-26.025787747005417
-22.021820401312276
-19.092088197146563
-17.041275654230564
-16.55298695353628
-16.16235599298085
-12.939650568398566
-2.197299153124285
20.361638818951704
54.7371633478294
82.27664606698711
75.2452887769894
28.857862211032273
-30.811017013809415
-68.60456244754711
-70.36240177004655
-49.75661860074769
-27.100022888532845
-13.037308308537423
-6.201266498817426
-4.248111696040284
-6.39658197909514
-7.763790341039139
-6.39658197909514
-3.36919203479057
-0.04882887006942855
2.490272373540856
4.736400396734569
5.908293278400855
7.666132600900283
9.912260624093996
10.79118028534371
11.767757686732281
12.84199282825971
13.525597009231708
14.892805371175708
16.357671473258563
16.84596017395285
15.381094071869994
14.990463111314565
16.943617914091707
19.287403677424276
21.533531700617992
22.119478141451133
20.45929655909056
18.11551079575799
15.869382772564279
14.013885709925994
12.45136186770428
11.963073167009995
11.08415350576028
7.861448081177996
5.0293736171511405
2.9785610742351416
0.9277485313191425
-0.14648661020828566
0.43945983062485694
2.197299153124285
2.68558785381857
2.0996414129854277
0.9277485313191425
-1.0254062714579995
-1.9043259327077133
-3.076218814373999
-6.39658197909514
-10.888838025482567
-14.599832150759136
-16.45532921339742
-17.82253757534142
-18.701457236591136
-20.263981078812847
-22.803082322423133
-22.119478141451133
-17.82253757534142
-12.84199282825971
-9.130998702983138
-7.666132600900283
-7.666132600900283
-8.154421301594567
-5.810635538261997
-0.14648661020828566
4.736400396734569
7.470817120622568
7.177843900205997
4.248111696040284
1.9043259327077133
1.416037232013428
2.197299153124285
1.9043259327077133
1.6113527122911422
2.0996414129854277
2.0996414129854277
2.783245593957427
2.783245593957427
0.9277485313191425
-1.1230640115968566
-2.392614633401999
-1.6113527122911422
0.43945983062485694
4.541084916456855
9.619287403677424
12.549019607843137
14.599832150759136
16.260013733119706
17.82253757534142
20.361638818951704
22.90074006256199
23.58434424353399
21.24055848020142
17.920195315480278
13.525597009231708
5.615320057984283
-4.834058136873426
-17.43190661478599
-29.834439612420844
-38.03768978408484
-40.67444876783398
-39.5025558861677
-37.549401083390556
-34.52201113908598
-29.9320973525597
-24.95155260547799
-18.799114976729992
-13.427939269092851
-10.693522545204852
-8.349736781872283
-3.8574807354848555
6.591897459372854
27.49065384908827
59.42473487449455
84.91340505073624
76.90547035934996
30.518043793392845
-28.857862211032273
-66.26077668421455
-66.74906538490883
-44.77607385366598
-22.314793621728846
-10.498207064927138
-6.39658197909514
-4.931715877012284
-4.834058136873426
-3.7598229953459983
-1.7090104524299992
-0.34180209048599985
0.6347753109025711
1.0254062714579995
1.8066681925688564
3.466849774929427
7.470817120622568
10.888838025482567
10.009918364232853
8.349736781872283
9.033340962844282
12.256046387426567
16.45532921339742
18.701457236591136
18.11551079575799
15.185778591592278
13.037308308537423
12.256046387426567
11.377126726176853
12.158388647287708
13.330281528953995
12.45136186770428
10.205233844510566
8.74036774242771
10.595864805065995
14.795147631036851
18.40848401617456
18.21316853589685
13.037308308537423
7.959105821316854
4.736400396734569
2.783245593957427
2.5879301136797133
2.8809033340962844
2.0996414129854277
-0.8300907911802854
-3.466849774929427
-4.345769436179141
-4.541084916456855
-3.36919203479057
-2.9785610742351416
-5.71297779812314
-10.693522545204852
-15.674067292286564
-18.017853055619135
-18.21316853589685
-16.943617914091707
-15.47875181200885
-14.892805371175708
-13.232623788815136
-11.572442206454566
-11.279468986037996
-9.81460288395514
-6.005951018539712
-0.8300907911802854
2.0996414129854277
2.197299153124285
-0.04882887006942855
-3.9551384756237127
-5.517662317845426
-4.736400396734569
-3.7598229953459983
-2.68558785381857
-1.416037232013428
-0.43945983062485694
-1.513694972152285
-3.5645075150682843
-4.345769436179141
-3.466849774929427
-0.04882887006942855
2.392614633401999
0.8300907911802854
-1.7090104524299992
-1.9043259327077133
0.8300907911802854
2.68558785381857
1.7090104524299992
-0.7324330510414282
-2.9785610742351416
-1.1230640115968566
3.5645075150682843
7.177843900205997
6.884870679789426
1.416037232013428
-6.494239719233997
-12.353704127565424
-12.353704127565424
-7.763790341039139
-3.8574807354848555
-0.9277485313191425
1.0254062714579995
1.416037232013428
0.7324330510414282
-0.8300907911802854
-1.7090104524299992
-0.9277485313191425
1.0254062714579995
2.392614633401999
2.0019836728465705
4.345769436179141
8.838025482566568
10.986495765621424
9.81460288395514
6.6895551995117115
3.662165255207141
1.2207217517357138
0.43945983062485694
1.1230640115968566
0.6347753109025711
-0.04882887006942855
-0.8300907911802854
-1.8066681925688564
-1.3183794918745708
-0.43945983062485694
-0.34180209048599985
-1.513694972152285
-1.2207217517357138
1.2207217517357138
3.076218814373999
4.443427176317998
5.224689097428855
5.224689097428855
5.322346837567712
3.9551384756237127
1.0254062714579995
-1.3183794918745708
0.537117570763714
7.959105821316854
17.041275654230564
25.146868085755703
28.369573510337986
24.853894865339132
17.920195315480278
9.71694514381628
1.7090104524299992
-5.71297779812314
-10.888838025482567
-13.623254749370565
-16.064698252841993
-16.45532921339742
-15.283436331731137
-14.209201190203707
-11.670099946593423
-3.466849774929427
17.52956435492485
55.90905622949569
104.34729533836881
135.9884031433585
119.58190280003052
48.877698939497975
-46.63157091630426
-117.62874799725337
-133.15632867933166
-104.93324177920195
-65.57717250324254
-38.72129396505684
-26.709391927977418
-21.63118944075685
-17.236591134508277
-9.619287403677424
-2.2949568932631417
-0.43945983062485694
-2.0019836728465705
-1.513694972152285
2.783245593957427
6.787212939650568
7.470817120622568
6.494239719233997
5.420004577706569
7.373159380483711
11.08415350576028
11.767757686732281
8.74036774242771
5.322346837567712
5.71297779812314
7.861448081177996
7.568474860761425
3.662165255207141
-0.34180209048599985
0.537117570763714
3.36919203479057
2.783245593957427
1.0254062714579995
0.9277485313191425
2.197299153124285
2.9785610742351416
5.127031357289998
10.498207064927138
15.967040512703136
18.89677271686885
17.724879835202564
14.209201190203707
11.767757686732281
8.935683222705425
6.005951018539712
5.517662317845426
7.861448081177996
7.763790341039139
0.537117570763714
-8.545052262149996
-14.697489890897993
-16.84596017395285
-15.283436331731137
-12.158388647287708
-9.71694514381628
-9.912260624093996
-10.888838025482567
-9.81460288395514
-7.177843900205997
-2.9785610742351416
-0.34180209048599985
-2.9785610742351416
-10.302891584649425
-18.017853055619135
-21.63118944075685
-20.752269779507134
-16.650644693675137
-11.572442206454566
-8.154421301594567
-4.541084916456855
-1.2207217517357138
-0.34180209048599985
0.04882887006942855
2.783245593957427
8.642710002288853
13.330281528953995
13.232623788815136
8.838025482566568
1.6113527122911422
-4.052796215762569
-6.39658197909514
-4.150453955901427
3.1738765545128556
9.326314183260854
8.545052262149996
1.7090104524299992
-4.541084916456855
-6.201266498817426
-5.224689097428855
-3.5645075150682843
-5.0293736171511405
-9.228656443121995
-9.81460288395514
-5.420004577706569
-0.6347753109025711
0.537117570763714
0.04882887006942855
-0.14648661020828566
-0.8300907911802854
0.04882887006942855
1.8066681925688564
1.8066681925688564
-0.04882887006942855
-2.2949568932631417
-2.8809033340962844
-3.1738765545128556
-3.2715342946517127
-1.0254062714579995
2.9785610742351416
7.080186160067139
7.568474860761425
4.834058136873426
3.9551384756237127
4.931715877012284
5.420004577706569
4.541084916456855
3.9551384756237127
3.1738765545128556
0.6347753109025711
-1.2207217517357138
-1.513694972152285
-0.34180209048599985
3.2715342946517127
7.080186160067139
7.470817120622568
3.36919203479057
-1.7090104524299992
-4.150453955901427
-3.1738765545128556
2.197299153124285
6.6895551995117115
4.443427176317998
-1.513694972152285
-6.201266498817426
-7.763790341039139
-7.959105821316854
-6.494239719233997
-1.6113527122911422
7.275501640344854
25.830472266727703
61.5732051575494
115.0896467536431
162.8442816815442
157.47310597390708
75.73357747768368
-47.0222018768597
-142.04318303196766
-167.14122224765393
-134.03524834058138
-80.9094377050431
-40.479133287556266
-23.096055542839704
-19.385061417563133
-18.994430457007706
-16.748302433813993
-12.353704127565424
-6.494239719233997
-0.14648661020828566
2.9785610742351416
3.5645075150682843
3.5645075150682843
3.9551384756237127
5.810635538261997
7.373159380483711
7.373159380483711
5.420004577706569
3.2715342946517127
3.1738765545128556
5.224689097428855
9.81460288395514
14.50217441062028
15.47875181200885
12.84199282825971
7.959105821316854
3.662165255207141
1.3183794918745708
0.9277485313191425
1.416037232013428
1.7090104524299992
4.638742656595713
9.619287403677424
13.720912489509422
16.650644693675137
18.017853055619135
18.40848401617456
17.920195315480278
15.869382772564279
11.963073167009995
6.884870679789426
5.615320057984283
8.935683222705425
12.74433508812085
14.013885709925994
10.400549324788281
4.150453955901427
-1.416037232013428
-5.0293736171511405
-8.252079041733426
-13.232623788815136
-16.650644693675137
-17.82253757534142
-19.385061417563133
-21.24055848020142
-23.19371328297856
-24.267948424505988
-23.48668650339513
-21.045242999923705
-17.724879835202564
-14.990463111314565
-9.912260624093996
-2.392614633401999
3.662165255207141
7.275501640344854
7.470817120622568
5.71297779812314
4.443427176317998
5.224689097428855
7.373159380483711
7.763790341039139
6.591897459372854
3.8574807354848555
-0.04882887006942855
-2.490272373540856
-3.2715342946517127
-3.2715342946517127
-3.076218814373999
-1.7090104524299992
0.6347753109025711
2.392614633401999
4.150453955901427
5.0293736171511405
2.8809033340962844
-0.14648661020828566
-2.68558785381857
-3.2715342946517127
-1.8066681925688564
0.537117570763714
2.0019836728465705
0.7324330510414282
-0.34180209048599985
-0.14648661020828566
-0.14648661020828566
0.8300907911802854
2.197299153124285
2.783245593957427
2.0996414129854277
1.2207217517357138
1.8066681925688564
3.36919203479057
5.810635538261997
6.982528419928283
4.638742656595713
1.2207217517357138
-1.416037232013428
-2.490272373540856
-1.8066681925688564
-0.537117570763714
0.04882887006942855
-0.8300907911802854
-0.34180209048599985
1.6113527122911422
2.2949568932631417
0.9277485313191425
-2.392614633401999
-5.615320057984283
-5.517662317845426
-1.416037232013428
4.638742656595713
8.252079041733426
8.642710002288853
5.908293278400855
1.3183794918745708
-1.3183794918745708
-2.783245593957427
-4.248111696040284
-5.127031357289998
-4.345769436179141
-2.68558785381857
-3.076218814373999
-3.7598229953459983
-2.8809033340962844
1.1230640115968566
14.11154345006485
40.86976424811169
83.35088120851454
129.05470359349965
144.09399557488365
97.90188448920424
0.24414435034714274
-95.16746776531625
-138.42984664682993
-121.73037308308537
-74.07339589532312
-31.396963454642556
-10.205233844510566
-7.861448081177996
-13.916227969787137
-18.994430457007706
-20.068665598535134
-15.381094071869994
-7.763790341039139
-1.6113527122911422
2.2949568932631417
3.466849774929427
2.783245593957427
1.7090104524299992
1.6113527122911422
2.9785610742351416
4.248111696040284
6.6895551995117115
9.81460288395514
11.377126726176853
12.060730907148852
11.865415426871138
10.888838025482567
9.81460288395514
9.42397192339971
9.71694514381628
9.81460288395514
10.79118028534371
12.45136186770428
12.74433508812085
12.549019607843137
11.865415426871138
11.279468986037996
11.47478446631571
12.353704127565424
13.623254749370565
14.209201190203707
15.576409552147707
16.943617914091707
16.16235599298085
13.720912489509422
8.838025482566568
2.490272373540856
-2.68558785381857
-5.908293278400855
-7.959105821316854
-10.595864805065995
-12.158388647287708
-12.549019607843137
-14.013885709925994
-16.16235599298085
-19.58037689784085
-23.779659723811704
-27.49065384908827
-29.63912413214313
-29.443808651865414
-27.588311589227132
-22.803082322423133
-16.45532921339742
-11.865415426871138
-8.252079041733426
-5.615320057984283
-3.8574807354848555
-3.2715342946517127
-3.5645075150682843
-4.248111696040284
-5.224689097428855
-3.8574807354848555
-0.04882887006942855
3.5645075150682843
6.982528419928283
8.545052262149996
7.861448081177996
6.494239719233997
6.005951018539712
6.591897459372854
5.908293278400855
4.736400396734569
3.662165255207141
2.197299153124285
2.0019836728465705
2.0996414129854277
1.513694972152285
0.04882887006942855
-2.197299153124285
-4.541084916456855
-6.591897459372854
-5.224689097428855
-0.8300907911802854
3.076218814373999
5.517662317845426
5.322346837567712
3.2715342946517127
2.0019836728465705
2.9785610742351416
6.103608758678568
9.228656443121995
12.74433508812085
16.45532921339742
19.287403677424276
23.19371328297856
27.49065384908827
30.127412832837415
29.150835431448844
23.58434424353399
14.697489890897993
3.662165255207141
-7.080186160067139
-17.43190661478599
-27.588311589227132
-34.131380178530556
-35.98687724116884
-33.93606469825284
-29.63912413214313
-25.732814526588847
-22.998397802700847
-21.63118944075685
-18.994430457007706
-15.185778591592278
-11.670099946593423
-2.8809033340962844
19.678034637979707
62.2568093385214
112.84351873044938
135.1094834821088
96.04638742656596
4.443427176317998
-85.0110627908751
-121.73037308308537
-100.44098573281453
-53.56527046616312
-17.724879835202564
-6.201266498817426
-10.498207064927138
-17.13893339436942
-18.11551079575799
-14.795147631036851
-9.228656443121995
-4.248111696040284
-1.9043259327077133
-0.14648661020828566
1.416037232013428
2.392614633401999
2.490272373540856
1.9043259327077133
2.2949568932631417
3.076218814373999
5.224689097428855
8.349736781872283
10.693522545204852
12.939650568398566
14.306858930342566
14.697489890897993
14.795147631036851
15.088120851453422
16.260013733119706
17.041275654230564
18.017853055619135
19.18974593728542
18.60379949645228
17.13893339436942
14.50217441062028
11.47478446631571
9.521629663538567
9.42397192339971
11.279468986037996
13.427939269092851
15.576409552147707
16.260013733119706
14.599832150759136
12.45136186770428
9.228656443121995
4.541084916456855
-0.04882887006942855
-3.466849774929427
-5.224689097428855
-7.080186160067139
-8.838025482566568
-11.377126726176853
-15.771725032425422
-19.775692378118563
-22.90074006256199
-25.146868085755703
-26.22110322728313
-26.22110322728313
-24.95155260547799
-23.096055542839704
-19.385061417563133
-14.013885709925994
-9.912260624093996
-6.884870679789426
-5.127031357289998
-4.248111696040284
-3.662165255207141
-4.150453955901427
-5.127031357289998
-6.298924238956283
-4.736400396734569
-0.04882887006942855
4.052796215762569
6.591897459372854
6.591897459372854
5.0293736171511405
3.5645075150682843
2.2949568932631417
1.416037232013428
0.6347753109025711
1.6113527122911422
4.248111696040284
5.71297779812314
6.298924238956283
6.103608758678568
5.908293278400855
6.6895551995117115
8.154421301594567
10.205233844510566
12.549019607843137
17.041275654230564
23.682001983672848
29.834439612420844
34.81498435950255
36.475165941863125
34.131380178530556
28.174258030060273
18.701457236591136
6.103608758678568
-8.545052262149996
-22.705424582284277
-34.717326619363696
-43.50652323186084
-45.069047074082555
-39.99084458686198
-32.56885633630884
-27.295338368810558
-25.049210345616846
-23.096055542839704
-20.55695429922942
-17.82253757534142
-16.357671473258563
-15.47875181200885
-7.177843900205997
17.236591134508277
61.08491645685512
108.64423590447852
123.29289692530709
78.6633096818494
-9.130998702983138
-86.57358663309682
-112.45288776989395
-89.99160753795681
-49.658960860608836
-19.87335011825742
-8.44739452201114
-8.545052262149996
-11.963073167009995
-13.427939269092851
-12.84199282825971
-9.81460288395514
-4.638742656595713
0.04882887006942855
4.736400396734569
8.05676356145571
9.326314183260854
8.935683222705425
7.470817120622568
6.298924238956283
5.224689097428855
4.834058136873426
5.224689097428855
5.322346837567712
7.275501640344854
10.400549324788281
13.037308308537423
14.306858930342566
14.306858930342566
14.209201190203707
14.013885709925994
14.697489890897993
15.967040512703136
16.260013733119706
17.041275654230564
17.82253757534142
18.11551079575799
18.40848401617456
18.799114976729992
19.775692378118563
20.361638818951704
20.45929655909056
19.287403677424276
15.674067292286564
11.572442206454566
6.6895551995117115
1.416037232013428
-2.68558785381857
-5.517662317845426
-7.470817120622568
-10.595864805065995
-14.50217441062028
-18.60379949645228
-22.803082322423133
-24.560921644922562
-24.267948424505988
-23.291371023117417
-22.021820401312276
-20.654612039368278
-18.60379949645228
-16.748302433813993
-14.697489890897993
-12.45136186770428
-11.279468986037996
-9.326314183260854
-6.6895551995117115
-4.541084916456855
-3.2715342946517127
-2.8809033340962844
-2.2949568932631417
-1.9043259327077133
-0.8300907911802854
0.34180209048599985
0.6347753109025711
1.8066681925688564
3.662165255207141
4.834058136873426
5.127031357289998
4.248111696040284
3.36919203479057
2.2949568932631417
2.68558785381857
4.541084916456855
5.810635538261997
6.884870679789426
7.959105821316854
9.130998702983138
10.302891584649425
10.009918364232853
9.521629663538567
10.302891584649425
14.013885709925994
19.58037689784085
23.87731746395056
26.416418707560844
25.439841306172273
20.263981078812847
11.47478446631571
-1.2207217517357138
-17.13893339436942
-32.95948729686427
-43.11589227130541
-45.45967803463798
-42.529945830472265
-35.79156176089113
-28.174258030060273
-22.412451361867703
-19.18974593728542
-17.724879835202564
-16.16235599298085
-14.404516670481422
-11.865415426871138
-6.982528419928283
3.36919203479057
28.95551995117113
71.43663691157397
112.25757228961623
117.23811703669794
65.28419928282597
-20.84992751964599
-89.01503013656824
-103.17540245670253
-72.12024109254597
-31.2993057145037
-5.420004577706569
0.537117570763714
-4.638742656595713
-10.888838025482567
-12.84199282825971
-9.912260624093996
-6.201266498817426
-3.076218814373999
-0.6347753109025711
1.1230640115968566
4.834058136873426
10.302891584649425
14.795147631036851
16.064698252841993
13.232623788815136
9.130998702983138
5.810635538261997
5.908293278400855
9.326314183260854
12.45136186770428
14.697489890897993
14.892805371175708
13.037308308537423
11.08415350576028
10.205233844510566
10.986495765621424
11.865415426871138
12.84199282825971
14.11154345006485
14.697489890897993
15.674067292286564
15.771725032425422
14.209201190203707
11.767757686732281
9.228656443121995
7.568474860761425
6.298924238956283
6.005951018539712
6.103608758678568
5.420004577706569
4.931715877012284
3.466849774929427
0.14648661020828566
-3.466849774929427
-7.177843900205997
-10.302891584649425
-13.916227969787137
-16.650644693675137
-18.017853055619135
-19.18974593728542
-18.89677271686885
-17.724879835202564
-16.84596017395285
-17.041275654230564
-18.40848401617456
-19.48271915770199
-20.263981078812847
-19.58037689784085
-17.627222095063708
-15.576409552147707
-12.158388647287708
-8.349736781872283
-5.127031357289998
-2.2949568932631417
0.14648661020828566
2.783245593957427
4.834058136873426
7.080186160067139
9.42397192339971
10.009918364232853
9.912260624093996
9.228656443121995
7.666132600900283
6.298924238956283
5.0293736171511405
4.736400396734569
4.248111696040284
3.9551384756237127
4.345769436179141
4.638742656595713
6.39658197909514
8.935683222705425
11.572442206454566
14.990463111314565
18.506141756313422
22.021820401312276
25.146868085755703
27.68596932936599
27.97894254978256
23.974975204089418
17.43190661478599
8.642710002288853
-2.490272373540856
-15.088120851453422
-27.783627069504846
-37.4517433432517
-42.33463035019455
-41.065079728389414
-35.20561532005799
-28.760204470893417
-22.21713588158999
-16.45532921339742
-12.549019607843137
-10.693522545204852
-11.377126726176853
-13.037308308537423
-12.74433508812085
-2.9785610742351416
25.049210345616846
70.06942854962998
110.79270618753338
111.18333714808881
56.88563363088426
-22.90074006256199
-80.9094377050431
-91.35881589990082
-67.13969634546426
-35.596246280613414
-14.990463111314565
-9.033340962844282
-10.302891584649425
-12.060730907148852
-11.181811245899137
-7.373159380483711
-3.1738765545128556
0.04882887006942855
1.513694972152285
2.490272373540856
4.638742656595713
6.201266498817426
7.470817120622568
7.861448081177996
7.763790341039139
7.666132600900283
6.982528419928283
6.884870679789426
7.861448081177996
10.400549324788281
13.037308308537423
13.13496604867628
12.45136186770428
12.549019607843137
13.81857022964828
15.185778591592278
14.404516670481422
12.353704127565424
10.986495765621424
12.158388647287708
14.697489890897993
15.576409552147707
15.47875181200885
15.088120851453422
14.599832150759136
14.404516670481422
13.232623788815136
11.08415350576028
6.884870679789426
0.8300907911802854
-6.005951018539712
-13.525597009231708
-19.971007858396277
-26.025787747005417
-30.908674753948272
-32.95948729686427
-32.95948729686427
-32.08056763561456
-32.178225375753414
-32.95948729686427
-31.787594415197987
-27.783627069504846
-20.947585259784848
-14.892805371175708
-11.08415350576028
-7.861448081177996
-5.0293736171511405
-2.0996414129854277
1.1230640115968566
5.71297779812314
10.693522545204852
12.45136186770428
11.279468986037996
8.349736781872283
6.39658197909514
7.763790341039139
10.79118028534371
13.720912489509422
14.795147631036851
14.404516670481422
13.330281528953995
11.377126726176853
11.08415350576028
12.646677347981994
14.697489890897993
15.869382772564279
14.990463111314565
13.916227969787137
14.404516670481422
17.43190661478599
22.021820401312276
25.732814526588847
30.029755092698558
34.91264209964141
39.69787136644541
43.89715419241627
45.55733577477684
44.97138933394369
42.529945830472265
38.1353475242237
30.127412832837415
17.13893339436942
1.416037232013428
-15.381094071869994
-31.00633249408713
-42.529945830472265
-50.04959182116426
-53.467612726024264
-52.97932402532997
-47.705806057831694
-39.11192492561227
-31.885252155336843
-26.514076447699704
-23.096055542839704
-21.63118944075685
-21.045242999923705
-19.092088197146563
-9.033340962844282
16.357671473258563
58.057526512550545
95.85107194628824
96.33936064698253
47.31517509727627
-25.830472266727703
-78.6633096818494
-86.96421759365225
-63.42870222018769
-34.61966887922484
-18.40848401617456
-15.283436331731137
-17.43190661478599
-19.58037689784085
-18.21316853589685
-15.185778591592278
-12.84199282825971
-10.10757610437171
-6.591897459372854
-2.5879301136797133
-0.14648661020828566
1.2207217517357138
3.1738765545128556
4.834058136873426
6.6895551995117115
8.05676356145571
9.033340962844282
10.693522545204852
11.670099946593423
11.279468986037996
9.130998702983138
7.275501640344854
7.666132600900283
9.619287403677424
13.525597009231708
17.920195315480278
20.654612039368278
21.14290074006256
18.994430457007706
16.064698252841993
13.427939269092851
11.767757686732281
10.498207064927138
8.349736781872283
7.080186160067139
7.275501640344854
8.252079041733426
8.935683222705425
7.861448081177996
5.224689097428855
1.8066681925688564
-0.537117570763714
-1.513694972152285
-2.5879301136797133
-3.2715342946517127
-4.638742656595713
-7.177843900205997
-9.619287403677424
-11.377126726176853
-11.572442206454566
-12.256046387426567
-14.013885709925994
-16.748302433813993
-19.87335011825742
-19.678034637979707
-15.381094071869994
-9.130998702983138
-3.9551384756237127
-2.68558785381857
-5.0293736171511405
-8.935683222705425
-10.888838025482567
-9.033340962844282
-6.201266498817426
-4.052796215762569
-4.150453955901427
-5.71297779812314
-6.494239719233997
-6.787212939650568
-7.275501640344854
-8.935683222705425
-9.619287403677424
-6.982528419928283
-1.8066681925688564
4.931715877012284
9.521629663538567
8.74036774242771
4.150453955901427
-0.537117570763714
-1.2207217517357138
1.6113527122911422
6.005951018539712
11.08415350576028
16.260013733119706
22.21713588158999
27.588311589227132
31.494621194781413
33.74074921797513
32.56885633630884
26.90470740825513
16.45532921339742
1.9043259327077133
-14.50217441062028
-29.9320973525597
-39.11192492561227
-40.96742198825055
-38.03768978408484
-32.178225375753414
-25.63515678644999
-19.18974593728542
-14.892805371175708
-13.232623788815136
-12.84199282825971
-12.646677347981994
-8.935683222705425
-0.7324330510414282
12.256046387426567
34.424353398947126
68.89753566796368
106.8863965819791
120.26550698100252
83.93682764934768
6.39658197909514
-69.48348210879682
-102.19882505531396
-87.94079499504082
-53.27229724574655
-24.65857938506142
-13.037308308537423
-13.81857022964828
-19.287403677424276
-22.803082322423133
-21.43587396047913
-17.13893339436942
-10.400549324788281
-2.392614633401999
5.0293736171511405
10.595864805065995
12.45136186770428
11.767757686732281
9.42397192339971
7.080186160067139
6.6895551995117115
7.861448081177996
11.279468986037996
14.697489890897993
16.16235599298085
15.967040512703136
14.599832150759136
13.427939269092851
12.353704127565424
11.572442206454566
11.572442206454566
10.986495765621424
10.205233844510566
8.935683222705425
7.763790341039139
7.763790341039139
7.861448081177996
7.470817120622568
6.494239719233997
6.494239719233997
8.545052262149996
11.08415350576028
13.330281528953995
12.84199282825971
8.838025482566568
3.1738765545128556
-2.2949568932631417
-5.908293278400855
-8.05676356145571
-10.009918364232853
-12.158388647287708
-15.088120851453422
-16.943617914091707
-17.920195315480278
-18.40848401617456
-17.82253757534142
-16.84596017395285
-15.185778591592278
-14.11154345006485
-13.81857022964828
-13.525597009231708
-12.549019607843137
-8.74036774242771
-3.36919203479057
0.7324330510414282
2.5879301136797133
1.7090104524299992
0.537117570763714
0.04882887006942855
0.9277485313191425
3.36919203479057
5.322346837567712
6.884870679789426
7.568474860761425
7.666132600900283
8.252079041733426
8.252079041733426
7.470817120622568
5.517662317845426
3.5645075150682843
2.8809033340962844
2.8809033340962844
4.248111696040284
5.322346837567712
4.150453955901427
0.537117570763714
-5.0293736171511405
-9.033340962844282
-9.42397192339971
-6.39658197909514
-2.0996414129854277
0.43945983062485694
2.490272373540856
4.248111696040284
4.931715877012284
4.443427176317998
2.2949568932631417
0.04882887006942855
-1.2207217517357138
-1.2207217517357138
0.04882887006942855
0.7324330510414282
1.0254062714579995
0.34180209048599985
-0.537117570763714
-0.04882887006942855
0.9277485313191425
2.0019836728465705
2.0996414129854277
2.68558785381857
5.127031357289998
7.959105821316854
10.10757610437171
10.009918364232853
7.568474860761425
4.638742656595713
1.513694972152285
-0.6347753109025711
-1.7090104524299992
-1.1230640115968566
0.6347753109025711
1.9043259327077133
2.68558785381857
2.68558785381857
1.8066681925688564
1.1230640115968566
0.7324330510414282
1.1230640115968566
1.3183794918745708
1.3183794918745708
1.513694972152285
1.0254062714579995
0.7324330510414282
0.04882887006942855
-0.9277485313191425
-0.6347753109025711
0.7324330510414282
3.466849774929427
5.322346837567712
4.834058136873426
2.2949568932631417
-1.8066681925688564
-4.052796215762569
-3.662165255207141
-2.8809033340962844
-4.052796215762569
-8.545052262149996
-12.939650568398566
-14.795147631036851
-14.50217441062028
-12.74433508812085
-8.838025482566568
3.2715342946517127
29.834439612420844
69.58113984893568
104.54261081864652
102.39414053559167
48.48706797894255
-32.08056763561456
-92.43305104142824
-105.32387273975738
-82.27664606698711
-50.928511482413974
-30.615701533531702
-24.267948424505988
-24.853894865339132
-26.416418707560844
-24.95155260547799
-21.045242999923705
-16.064698252841993
-11.572442206454566
-9.912260624093996
-9.619287403677424
-9.521629663538567
-8.935683222705425
-7.080186160067139
-5.420004577706569
-3.8574807354848555
-2.5879301136797133
-1.2207217517357138
0.537117570763714
1.9043259327077133
4.052796215762569
6.494239719233997
8.05676356145571
8.935683222705425
8.642710002288853
8.349736781872283
7.763790341039139
7.666132600900283
8.642710002288853
9.228656443121995
10.79118028534371
13.720912489509422
16.943617914091707
18.799114976729992
16.748302433813993
13.037308308537423
9.81460288395514
8.642710002288853
9.130998702983138
8.74036774242771
8.349736781872283
8.154421301594567
7.763790341039139
6.787212939650568
4.248111696040284
1.2207217517357138
-1.8066681925688564
-4.931715877012284
-8.252079041733426
-12.646677347981994
-15.576409552147707
-16.064698252841993
-15.381094071869994
-14.697489890897993
-15.47875181200885
-16.748302433813993
-18.11551079575799
-18.799114976729992
-17.724879835202564
-15.185778591592278
-10.009918364232853
-4.150453955901427
-0.8300907911802854
-0.04882887006942855
-0.537117570763714
0.9277485313191425
4.248111696040284
7.763790341039139
10.498207064927138
11.572442206454566
13.037308308537423
15.47875181200885
18.21316853589685
21.045242999923705
22.510109102006563
22.998397802700847
22.021820401312276
20.16632333867399
18.506141756313422
16.943617914091707
17.334248874647134
19.18974593728542
20.55695429922942
20.068665598535134
17.334248874647134
14.892805371175708
13.623254749370565
13.232623788815136
13.232623788815136
12.45136186770428
11.08415350576028
8.44739452201114
5.127031357289998
3.076218814373999
1.2207217517357138
-0.04882887006942855
-1.0254062714579995
-1.3183794918745708
-0.8300907911802854
-0.34180209048599985
1.513694972152285
4.931715877012284
7.568474860761425
7.763790341039139
4.150453955901427
-0.7324330510414282
-4.345769436179141
-4.834058136873426
-2.5879301136797133
-0.24414435034714274
1.7090104524299992
2.197299153124285
1.0254062714579995
-0.8300907911802854
-3.8574807354848555
-6.298924238956283
-6.494239719233997
-2.8809033340962844
3.9551384756237127
9.228656443121995
9.912260624093996
5.0293736171511405
-2.68558785381857
-9.521629663538567
-13.916227969787137
-14.50217441062028
-10.888838025482567
-3.5645075150682843
4.443427176317998
8.154421301594567
6.884870679789426
2.8809033340962844
0.9277485313191425
7.373159380483711
27.68596932936599
64.20996414129854
103.37071793698024
113.82009613183794
72.12024109254597
-6.39658197909514
-74.36636911573969
-97.41359578850995
-78.85862516212711
-45.75265125505455
-22.510109102006563
-14.404516670481422
-16.55298695353628
-21.24055848020142
-22.510109102006563
-20.16632333867399
-14.697489890897993
-8.154421301594567
-3.466849774929427
-2.0996414129854277
-4.541084916456855
-7.177843900205997
-7.666132600900283
-5.420004577706569
-1.6113527122911422
0.34180209048599985
-0.14648661020828566
-3.5645075150682843
-8.05676356145571
-10.595864805065995
-10.498207064927138
-8.349736781872283
-6.787212939650568
-6.787212939650568
-7.177843900205997
-7.568474860761425
-6.005951018539712
-3.1738765545128556
-0.7324330510414282
0.34180209048599985
0.04882887006942855
-0.04882887006942855
-0.04882887006942855
0.04882887006942855
0.8300907911802854
2.0996414129854277
4.345769436179141
5.71297779812314
4.443427176317998
1.3183794918745708
-3.076218814373999
-6.39658197909514
-8.252079041733426
-8.74036774242771
-8.838025482566568
-10.595864805065995
-13.232623788815136
-16.064698252841993
-18.60379949645228
-20.361638818951704
-22.60776684214542
-24.560921644922562
-25.537499046311133
-24.853894865339132
-22.60776684214542
-20.84992751964599
-19.092088197146563
-17.920195315480278
-17.236591134508277
-15.185778591592278
-12.158388647287708
-8.349736781872283
-4.931715877012284
-2.5879301136797133
-0.14648661020828566
2.0996414129854277
5.517662317845426
8.642710002288853
9.912260624093996
9.619287403677424
7.861448081177996
6.787212939650568
7.177843900205997
9.228656443121995
12.84199282825971
14.795147631036851
14.50217441062028
12.646677347981994
10.693522545204852
9.619287403677424
8.252079041733426
6.591897459372854
4.248111696040284
2.197299153124285
2.2949568932631417
3.8574807354848555
7.080186160067139
10.400549324788281
12.549019607843137
13.330281528953995
12.158388647287708
9.912260624093996
6.982528419928283
3.466849774929427
0.6347753109025711
-1.513694972152285
-0.7324330510414282
2.5879301136797133
5.908293278400855
6.591897459372854
3.7598229953459983
-0.24414435034714274
-3.7598229953459983
-5.810635538261997
-5.615320057984283
-4.345769436179141
-1.416037232013428
2.392614633401999
5.322346837567712
6.494239719233997
4.736400396734569
1.2207217517357138
-2.197299153124285
-3.1738765545128556
0.7324330510414282
8.349736781872283
17.334248874647134
23.291371023117417
23.58434424353399
18.310826276035705
9.033340962844282
0.537117570763714
-3.2715342946517127
-1.513694972152285
4.834058136873426
11.767757686732281
16.55298695353628
16.650644693675137
12.74433508812085
9.130998702983138
8.838025482566568
15.674067292286564
34.22903791866941
66.3584344243534
100.24567025253681
108.54657816433966
71.43663691157397
-1.3183794918745708
-69.19050888838025
-96.53467612726024
-83.83916990920882
-54.932478828107115
-32.27588311589227
-22.60776684214542
-21.24055848020142
-22.314793621728846
-20.752269779507134
-16.357671473258563
-12.256046387426567
-9.71694514381628
-9.326314183260854
-9.42397192339971
-9.71694514381628
-9.326314183260854
-6.787212939650568
-3.7598229953459983
-0.7324330510414282
1.3183794918745708
2.392614633401999
3.5645075150682843
4.052796215762569
4.052796215762569
3.466849774929427
3.36919203479057
4.834058136873426
6.787212939650568
9.130998702983138
10.400549324788281
9.619287403677424
7.666132600900283
5.0293736171511405
3.076218814373999
2.197299153124285
2.392614633401999
3.8574807354848555
5.224689097428855
7.959105821316854
11.181811245899137
13.037308308537423
12.74433508812085
9.42397192339971
5.517662317845426
2.490272373540856
0.43945983062485694
-1.1230640115968566
-3.2715342946517127
-3.9551384756237127
-4.345769436179141
-6.6895551995117115
-10.888838025482567
-15.869382772564279
-18.89677271686885
-19.678034637979707
-19.48271915770199
-19.287403677424276
-19.971007858396277
-18.310826276035705
-12.84199282825971
-6.103608758678568
-1.416037232013428
-2.0996414129854277
-5.71297779812314
-8.349736781872283
-7.666132600900283
-3.8574807354848555
-0.04882887006942855
3.1738765545128556
5.224689097428855
5.517662317845426
4.931715877012284
3.662165255207141
2.68558785381857
1.8066681925688564
1.7090104524299992
3.2715342946517127
5.0293736171511405
7.080186160067139
9.130998702983138
10.302891584649425
10.400549324788281
8.349736781872283
5.420004577706569
2.8809033340962844
1.513694972152285
1.7090104524299992
1.9043259327077133
2.0019836728465705
1.513694972152285
0.24414435034714274
-0.43945983062485694
-1.3183794918745708
-2.0996414129854277
-3.466849774929427
-4.931715877012284
-4.931715877012284
-4.541084916456855
-3.662165255207141
-2.9785610742351416
-2.68558785381857
-1.9043259327077133
-1.513694972152285
-0.9277485313191425
-0.43945983062485694
-0.24414435034714274
-0.34180209048599985
-1.6113527122911422
-2.2949568932631417
-2.197299153124285
-1.7090104524299992
-1.3183794918745708
-2.5879301136797133
-4.638742656595713
-6.6895551995117115
-7.568474860761425
-6.005951018539712
-2.490272373540856
2.9785610742351416
7.763790341039139
8.74036774242771
5.0293736171511405
-2.0996414129854277
-8.935683222705425
-13.427939269092851
-14.990463111314565
-12.939650568398566
-8.44739452201114
-2.197299153124285
2.0996414129854277
2.5879301136797133
1.416037232013428
1.0254062714579995
5.810635538261997
20.45929655909056
48.97535667963683
84.71808957045853
103.07774471656367
79.44457160296025
15.967040512703136
-51.02616922255284
-83.6438544289311
-76.61249713893339
-50.24490730144198
-26.61173418783856
-14.013885709925994
-10.009918364232853
-10.79118028534371
-10.79118028534371
-7.470817120622568
-2.0019836728465705
3.1738765545128556
5.420004577706569
5.127031357289998
3.2715342946517127
2.0996414129854277
3.466849774929427
5.810635538261997
8.74036774242771
10.888838025482567
10.79118028534371
8.74036774242771
5.224689097428855
2.392614633401999
0.6347753109025711
0.537117570763714
2.0996414129854277
3.466849774929427
4.736400396734569
5.224689097428855
5.420004577706569
6.591897459372854
7.861448081177996
9.228656443121995
9.81460288395514
9.71694514381628
9.71694514381628
9.228656443121995
9.033340962844282
9.033340962844282
8.935683222705425
9.130998702983138
8.545052262149996
7.275501640344854
5.322346837567712
3.1738765545128556
1.2207217517357138
-0.9277485313191425
-2.392614633401999
-3.9551384756237127
-6.787212939650568
-10.302891584649425
-14.306858930342566
-17.334248874647134
-19.385061417563133
-20.361638818951704
-19.87335011825742
-19.287403677424276
-17.724879835202564
-15.088120851453422
-11.865415426871138
-8.05676356145571
-5.322346837567712
-3.2715342946517127
-2.5879301136797133
-3.7598229953459983
-5.420004577706569
-7.080186160067139
-6.201266498817426
-3.076218814373999
0.04882887006942855
2.490272373540856
3.1738765545128556
2.8809033340962844
1.9043259327077133
0.43945983062485694
-0.537117570763714
-1.8066681925688564
-1.8066681925688564
-0.24414435034714274
1.3183794918745708
1.9043259327077133
0.24414435034714274
-1.8066681925688564
-3.5645075150682843
-4.638742656595713
-4.541084916456855
-3.8574807354848555
-1.513694972152285
1.7090104524299992
4.443427176317998
5.908293278400855
5.224689097428855
4.052796215762569
3.36919203479057
3.662165255207141
5.224689097428855
6.103608758678568
5.615320057984283
3.076218814373999
-0.34180209048599985
-2.392614633401999
-2.8809033340962844
-1.8066681925688564
-0.43945983062485694
0.6347753109025711
2.9785610742351416
6.884870679789426
13.330281528953995
19.775692378118563
23.87731746395056
25.63515678644999
25.049210345616846
23.389028763256274
19.48271915770199
11.279468986037996
-1.3183794918745708
-16.55298695353628
-28.66254673075456
-34.91264209964141
-35.98687724116884
-33.3501182574197
-29.9320973525597
-25.732814526588847
-21.338216220340275
-16.84596017395285
-11.963073167009995
-8.74036774242771
-6.39658197909514
-3.1738765545128556
5.615320057984283
27.49065384908827
61.37788967727169
89.89394979781795
85.0110627908751
37.84237430380713
-25.63515678644999
-67.53032730601969
-69.48348210879682
-44.97138933394369
-17.920195315480278
-2.490272373540856
-0.8300907911802854
-6.201266498817426
-11.572442206454566
-13.525597009231708
-11.47478446631571
-8.05676356145571
-3.2715342946517127
1.513694972152285
4.931715877012284
6.591897459372854
5.71297779812314
4.052796215762569
2.197299153124285
0.9277485313191425
1.0254062714579995
0.8300907911802854
0.8300907911802854
1.1230640115968566
1.7090104524299992
3.662165255207141
5.71297779812314
8.05676356145571
9.619287403677424
9.81460288395514
9.71694514381628
9.228656443121995
9.619287403677424
10.693522545204852
11.47478446631571
12.353704127565424
12.45136186770428
12.74433508812085
13.037308308537423
12.939650568398566
12.84199282825971
11.670099946593423
10.205233844510566
8.74036774242771
7.861448081177996
7.861448081177996
6.591897459372854
3.662165255207141
-1.1230640115968566
-6.591897459372854
-10.595864805065995
-13.13496604867628
-14.013885709925994
-14.404516670481422
-15.47875181200885
-16.55298695353628
-18.40848401617456
-20.16632333867399
-21.338216220340275
-21.14290074006256
-18.60379949645228
-15.47875181200885
-11.865415426871138
-8.349736781872283
-5.517662317845426
-2.5879301136797133
-0.6347753109025711
0.8300907911802854
1.416037232013428
1.1230640115968566
1.1230640115968566
1.3183794918745708
3.36919203479057
6.982528419928283
10.498207064927138
12.549019607843137
11.377126726176853
8.44739452201114
5.517662317845426
3.9551384756237127
4.443427176317998
5.615320057984283
7.470817120622568
8.838025482566568
8.154421301594567
5.810635538261997
2.490272373540856
0.537117570763714
0.04882887006942855
0.24414435034714274
2.5879301136797133
6.884870679789426
13.330281528953995
19.87335011825742
24.560921644922562
27.100022888532845
26.025787747005417
22.510109102006563
16.748302433813993
7.470817120622568
-5.908293278400855
-21.826504921034562
-34.131380178530556
-39.893186846723125
-39.99084458686198
-36.182192721446555
-31.592278934920273
-27.588311589227132
-25.24452582589456
-24.267948424505988
-22.705424582284277
-20.752269779507134
-17.236591134508277
-12.45136186770428
-6.201266498817426
6.884870679789426
31.103990234225986
60.108339055466544
70.26474402990769
42.04165712977798
-14.697489890897993
-66.45609216449226
-84.52277409018082
-70.06942854962998
-43.99481193255512
-24.072632944228275
-17.041275654230564
-17.627222095063708
-19.092088197146563
-17.920195315480278
-14.404516670481422
-10.888838025482567
-7.568474860761425
-5.322346837567712
-4.150453955901427
-1.8066681925688564
1.3183794918745708
5.420004577706569
9.130998702983138
12.353704127565424
16.45532921339742
20.45929655909056
24.95155260547799
29.443808651865414
33.05714503700313
36.37750820172427
39.11192492561227
41.943999389639124
43.40886549172198
42.62760357061112
41.651026169222554
41.16273746852827
41.943999389639124
42.92057679102769
42.92057679102769
41.5533684290837
37.84237430380713
34.131380178530556
31.68993667505913
30.127412832837415
28.27191577019913
24.560921644922562
19.971007858396277
14.990463111314565
11.865415426871138
11.865415426871138
11.279468986037996
8.349736781872283
3.466849774929427
-2.2949568932631417
-7.763790341039139
-12.646677347981994
-15.381094071869994
-16.84596017395285
-18.21316853589685
-20.068665598535134
-22.90074006256199
-24.560921644922562
-23.779659723811704
-20.361638818951704
-15.381094071869994
-11.963073167009995
-10.302891584649425
-9.71694514381628
-9.42397192339971
-8.642710002288853
-8.838025482566568
-9.228656443121995
-9.81460288395514
-9.71694514381628
-7.861448081177996
-6.39658197909514
-5.322346837567712
-4.736400396734569
-4.248111696040284
-3.5645075150682843
-3.662165255207141
-4.248111696040284
-4.931715877012284
-4.638742656595713
-2.392614633401999
-0.6347753109025711
0.04882887006942855
0.34180209048599985
1.3183794918745708
3.36919203479057
5.127031357289998
8.154421301594567
12.84199282825971
18.017853055619135
22.803082322423133
25.830472266727703
26.514076447699704
23.389028763256274
17.13893339436942
9.71694514381628
0.24414435034714274
-11.572442206454566
-25.342183566033416
-37.256427862973986
-43.604180971999696
-44.38544289311055
-40.67444876783398
-35.20561532005799
-30.22507057297627
-25.92813000686656
-22.60776684214542
-19.385061417563133
-16.84596017395285
-15.185778591592278
-12.74433508812085
-7.959105821316854
5.420004577706569
33.05714503700313
67.62798504615854
84.91340505073624
61.182574196993976
3.662165255207141
-52.49103532463569
-75.73357747768368
-63.42870222018769
-37.06111238269627
-15.283436331731137
-5.322346837567712
-5.0293736171511405
-8.05676356145571
-10.10757610437171
-8.642710002288853
-5.127031357289998
-2.392614633401999
-1.513694972152285
-2.9785610742351416
-3.466849774929427
-1.1230640115968566
2.490272373540856
4.931715877012284
3.9551384756237127
1.513694972152285
-0.14648661020828566
-0.24414435034714274
1.8066681925688564
3.7598229953459983
5.517662317845426
6.6895551995117115
6.982528419928283
6.494239719233997
4.345769436179141
2.0996414129854277
1.0254062714579995
1.7090104524299992
4.638742656595713
8.05676356145571
11.865415426871138
15.674067292286564
17.82253757534142
17.627222095063708
13.81857022964828
8.935683222705425
5.517662317845426
4.052796215762569
3.9551384756237127
3.2715342946517127
2.490272373540856
1.3183794918745708
-0.537117570763714
-3.36919203479057
-8.154421301594567
-13.720912489509422
-19.092088197146563
-22.90074006256199
-23.682001983672848
-22.314793621728846
-18.506141756313422
-13.623254749370565
-10.009918364232853
-8.74036774242771
-9.619287403677424
-9.912260624093996
-8.44739452201114
-5.810635538261997
-2.5879301136797133
0.04882887006942855
2.2949568932631417
4.052796215762569
4.248111696040284
3.466849774929427
1.3183794918745708
-0.6347753109025711
-1.9043259327077133
-2.0019836728465705
-0.9277485313191425
-0.14648661020828566
0.6347753109025711
2.0019836728465705
3.36919203479057
4.834058136873426
5.0293736171511405
4.834058136873426
3.466849774929427
0.9277485313191425
-0.7324330510414282
-0.537117570763714
2.783245593957427
7.861448081177996
12.84199282825971
17.724879835202564
21.24055848020142
23.974975204089418
25.732814526588847
26.709391927977418
27.49065384908827
26.709391927977418
23.58434424353399
16.260013733119706
4.638742656595713
-8.935683222705425
-23.389028763256274
-34.81498435950255
-40.08850232700084
-38.1353475242237
-30.518043793392845
-22.510109102006563
-15.967040512703136
-11.08415350576028
-8.05676356145571
-6.298924238956283
-6.201266498817426
-5.908293278400855
-3.466849774929427
4.443427176317998
25.24452582589456
58.54581521324483
87.06187533379111
83.4485389486534
39.20958266575113
-19.87335011825742
-59.03410391393912
-61.86617837796597
-40.96742198825055
-17.43190661478599
-3.466849774929427
-1.513694972152285
-6.298924238956283
-11.47478446631571
-13.525597009231708
-11.963073167009995
-9.228656443121995
-6.494239719233997
-4.834058136873426
-4.052796215762569
-2.197299153124285
0.24414435034714274
3.5645075150682843
6.201266498817426
7.080186160067139
7.373159380483711
8.44739452201114
11.670099946593423
14.306858930342566
13.623254749370565
11.181811245899137
9.130998702983138
9.619287403677424
11.181811245899137
12.060730907148852
11.865415426871138
10.595864805065995
9.81460288395514
9.81460288395514
9.619287403677424
9.42397192339971
9.228656443121995
10.205233844510566
11.572442206454566
11.865415426871138
10.986495765621424
8.74036774242771
7.275501640344854
6.494239719233997
5.224689097428855
3.466849774929427
1.2207217517357138
-0.14648661020828566
-1.2207217517357138
-2.68558785381857
-4.345769436179141
-8.05676356145571
-12.549019607843137
-16.748302433813993
-18.89677271686885
-18.017853055619135
-16.55298695353628
-15.185778591592278
-14.599832150759136
-14.11154345006485
-12.45136186770428
-10.79118028534371
-8.838025482566568
-6.884870679789426
-4.834058136873426
-2.392614633401999
-0.9277485313191425
0.24414435034714274
1.7090104524299992
2.783245593957427
3.1738765545128556
1.2207217517357138
-1.2207217517357138
-2.8809033340962844
-2.68558785381857
-0.537117570763714
1.1230640115968566
2.5879301136797133
3.7598229953459983
4.248111696040284
4.443427176317998
3.36919203479057
2.68558785381857
2.9785610742351416
4.834058136873426
8.349736781872283
11.963073167009995
15.771725032425422
19.678034637979707
23.291371023117417
26.709391927977418
27.68596932936599
25.830472266727703
21.045242999923705
13.81857022964828
5.615320057984283
-3.8574807354848555
-13.720912489509422
-23.87731746395056
-32.764171816586554
-37.84237430380713
-39.014267185473415
-36.37750820172427
-31.885252155336843
-27.588311589227132
-23.096055542839704
-18.799114976729992
-13.81857022964828
-9.130998702983138
-6.494239719233997
-5.127031357289998
-1.513694972152285
13.623254749370565
43.604180971999696
72.41321431296254
73.68276493476768
36.0845349813077
-17.43190661478599
-52.78400854505226
-55.22545204852369
-35.69390402075227
-14.795147631036851
-3.076218814373999
-1.416037232013428
-5.127031357289998
-7.373159380483711
-6.298924238956283
-2.392614633401999
1.7090104524299992
4.345769436179141
5.127031357289998
3.36919203479057
1.6113527122911422
0.7324330510414282
0.537117570763714
1.3183794918745708
2.392614633401999
4.443427176317998
6.787212939650568
8.838025482566568
9.81460288395514
8.545052262149996
6.591897459372854
5.322346837567712
5.420004577706569
7.177843900205997
8.935683222705425
10.986495765621424
12.84199282825971
14.209201190203707
14.795147631036851
13.13496604867628
10.986495765621424
9.71694514381628
9.521629663538567
10.400549324788281
10.79118028534371
10.888838025482567
10.10757610437171
8.935683222705425
7.763790341039139
5.420004577706569
2.8809033340962844
0.7324330510414282
-0.9277485313191425
-1.9043259327077133
-3.1738765545128556
-4.541084916456855
-6.787212939650568
-10.400549324788281
-14.013885709925994
-16.84596017395285
-16.650644693675137
-14.404516670481422
-12.353704127565424
-12.060730907148852
-13.720912489509422
-14.11154345006485
-12.060730907148852
-8.05676356145571
-3.5645075150682843
-0.8300907911802854
0.6347753109025711
1.3183794918745708
1.8066681925688564
3.466849774929427
4.638742656595713
5.0293736171511405
4.052796215762569
2.5879301136797133
2.0019836728465705
1.7090104524299992
2.0996414129854277
2.5879301136797133
2.68558785381857
3.5645075150682843
4.443427176317998
5.420004577706569
5.615320057984283
4.638742656595713
3.5645075150682843
2.392614633401999
2.9785610742351416
5.71297779812314
10.10757610437171
15.771725032425422
20.55695429922942
23.291371023117417
22.90074006256199
20.16632333867399
16.84596017395285
11.767757686732281
4.052796215762569
-6.982528419928283
-20.654612039368278
-33.252460517280845
-41.943999389639124
-43.89715419241627
-40.38147554741741
-35.10795757991913
-30.322728313115128
-27.49065384908827
-24.853894865339132
-21.63118944075685
-18.40848401617456
-14.599832150759136
-10.79118028534371
-5.420004577706569
3.662165255207141
22.412451361867703
53.467612726024264
81.98367284657053
82.27664606698711
41.065079728389414
-22.21713588158999
-68.4092469672694
-75.73357747768368
-52.002746623941405
-20.752269779507134
0.34180209048599985
7.373159380483711
3.1738765545128556
-4.736400396734569
-10.986495765621424
-12.74433508812085
-9.130998702983138
-2.490272373540856
4.638742656595713
9.619287403677424
11.377126726176853
10.79118028534371
7.861448081177996
4.638742656595713
2.0019836728465705
0.7324330510414282
1.7090104524299992
3.7598229953459983
6.39658197909514
8.838025482566568
11.08415350576028
13.330281528953995
13.525597009231708
12.549019607843137
11.377126726176853
10.888838025482567
11.572442206454566
11.279468986037996
9.619287403677424
7.470817120622568
6.884870679789426
9.521629663538567
13.720912489509422
17.52956435492485
18.017853055619135
15.283436331731137
12.549019607843137
11.181811245899137
12.060730907148852
13.623254749370565
14.306858930342566
13.037308308537423
9.228656443121995
4.931715877012284
0.537117570763714
-4.541084916456855
-9.130998702983138
-12.549019607843137
-13.525597009231708
-13.232623788815136
-13.232623788815136
-13.81857022964828
-15.283436331731137
-15.185778591592278
-13.720912489509422
-12.74433508812085
-12.549019607843137
-12.84199282825971
-11.279468986037996
-7.568474860761425
-3.5645075150682843
-1.2207217517357138
-1.8066681925688564
-3.2715342946517127
-4.248111696040284
-4.248111696040284
-2.2949568932631417
0.24414435034714274
3.076218814373999
4.248111696040284
3.076218814373999
0.24414435034714274
-3.466849774929427
-5.908293278400855
-6.6895551995117115
-6.39658197909514
-5.322346837567712
-4.345769436179141
-2.9785610742351416
-1.0254062714579995
0.24414435034714274
0.14648661020828566
-2.9785610742351416
-6.103608758678568
-6.298924238956283
-2.197299153124285
6.005951018539712
14.50217441062028
20.947585259784848
23.682001983672848
22.998397802700847
20.45929655909056
15.088120851453422
7.177843900205997
-2.9785610742351416
-15.088120851453422
-26.22110322728313
-34.61966887922484
-37.06111238269627
-34.0337224383917
-28.369573510337986
-22.705424582284277
-19.58037689784085
-17.52956435492485
-15.185778591592278
-12.353704127565424
-9.228656443121995
-7.666132600900283
-5.0293736171511405
4.834058136873426
29.9320973525597
68.4092469672694
98.48783093003739
93.01899748226138
44.48310063324941
-21.92416266117342
-67.43266956588083
-73.87808041504539
-50.928511482413974
-22.21713588158999
-4.150453955901427
0.6347753109025711
-2.9785610742351416
-7.275501640344854
-9.033340962844282
-8.44739452201114
-5.810635538261997
-3.2715342946517127
-1.416037232013428
-0.34180209048599985
