ecg
5.517662317845426
5.615320057984283
8.349736781872283
12.646677347981994
16.55298695353628
17.627222095063708
16.55298695353628
13.525597009231708
8.44739452201114
4.834058136873426
3.076218814373999
2.490272373540856
4.248111696040284
7.275501640344854
10.595864805065995
12.353704127565424
13.525597009231708
14.404516670481422
14.404516670481422
15.47875181200885
16.260013733119706
15.185778591592278
13.232623788815136
11.08415350576028
9.521629663538567
7.763790341039139
6.298924238956283
4.345769436179141
-0.43945983062485694
-6.201266498817426
-11.865415426871138
-16.748302433813993
-18.89677271686885
-19.092088197146563
-18.60379949645228
-19.678034637979707
-21.045242999923705
-21.92416266117342
-22.510109102006563
-20.16632333867399
-16.260013733119706
-12.646677347981994
-8.838025482566568
-5.615320057984283
-3.2715342946517127
-3.2715342946517127
-4.931715877012284
-7.470817120622568
-10.693522545204852
-11.08415350576028
-9.326314183260854
-7.763790341039139
-6.982528419928283
-6.884870679789426
-5.322346837567712
-3.076218814373999
-0.6347753109025711
0.537117570763714
0.24414435034714274
1.416037232013428
2.490272373540856
1.6113527122911422
0.9277485313191425
2.5879301136797133
6.591897459372854
8.838025482566568
8.154421301594567
5.420004577706569
1.9043259327077133
2.197299153124285
5.908293278400855
9.912260624093996
13.13496604867628
15.674067292286564
19.287403677424276
23.48668650339513
28.076600289921416
29.541466392004274
23.779659723811704
13.720912489509422
1.8066681925688564
-10.79118028534371
-23.291371023117417
-34.61966887922484
-40.96742198825055
-40.772106507972836
-35.010299839780274
-28.467231250476843
-25.732814526588847
-23.58434424353399
-20.45929655909056
-16.650644693675137
-12.939650568398566
-10.79118028534371
-9.521629663538567
-7.470817120622568
0.34180209048599985
19.385061417563133
47.51049057755398
72.12024109254597
70.06942854962998
31.9829098954757
-20.45929655909056
-53.85824368657969
-52.588693064774546
-30.420386053253985
-7.959105821316854
2.197299153124285
-0.7324330510414282
-7.470817120622568
-11.08415350576028
-9.71694514381628
-5.224689097428855
-1.513694972152285
0.34180209048599985
0.24414435034714274
0.34180209048599985
0.6347753109025711
-0.9277485313191425
-2.783245593957427
-4.638742656595713
-5.71297779812314
-4.345769436179141
-0.43945983062485694
5.615320057984283
10.986495765621424
14.013885709925994
14.11154345006485
12.256046387426567
12.84199282825971
14.697489890897993
14.795147631036851
13.037308308537423
10.888838025482567
9.619287403677424
7.861448081177996
6.982528419928283
8.154421301594567
10.009918364232853
12.646677347981994
13.232623788815136
11.279468986037996
9.619287403677424
9.912260624093996
12.353704127565424
13.916227969787137
13.623254749370565
10.498207064927138
3.7598229953459983
-2.0019836728465705
-4.834058136873426
-5.322346837567712
-4.736400396734569
-4.736400396734569
-5.322346837567712
-6.787212939650568
-6.39658197909514
-5.0293736171511405
-6.6895551995117115
-10.009918364232853
-12.939650568398566
-12.84199282825971
-8.349736781872283
-2.68558785381857
0.7324330510414282
-0.24414435034714274
-2.392614633401999
-2.2949568932631417
-0.9277485313191425
1.8066681925688564
3.5645075150682843
3.076218814373999
2.197299153124285
2.8809033340962844
5.615320057984283
7.568474860761425
7.666132600900283
5.615320057984283
1.8066681925688564
0.6347753109025711
1.416037232013428
1.513694972152285
1.6113527122911422
3.466849774929427
6.298924238956283
5.615320057984283
2.0019836728465705
-1.0254062714579995
-2.490272373540856
-0.9277485313191425
1.9043259327077133
4.736400396734569
6.787212939650568
7.275501640344854
7.861448081177996
9.326314183260854
12.84199282825971
15.967040512703136
14.306858930342566
9.619287403677424
4.052796215762569
-0.34180209048599985
-3.1738765545128556
-5.224689097428855
-6.591897459372854
-7.763790341039139
-6.494239719233997
-3.2715342946517127
-1.416037232013428
-0.43945983062485694
-0.04882887006942855
0.6347753109025711
1.6113527122911422
1.1230640115968566
-1.2207217517357138
-6.298924238956283
-10.498207064927138
-11.767757686732281
-11.181811245899137
-8.349736781872283
-5.71297779812314
-4.638742656595713
-4.443427176317998
-4.736400396734569
-4.248111696040284
-3.7598229953459983
-2.2949568932631417
-0.14648661020828566
0.7324330510414282
1.6113527122911422
1.416037232013428
0.537117570763714
1.1230640115968566
4.150453955901427
8.154421301594567
9.033340962844282
6.494239719233997
1.9043259327077133
-3.8574807354848555
-6.982528419928283
-4.736400396734569
3.8574807354848555
15.283436331731137
22.21713588158999
21.43587396047913
14.013885709925994
7.373159380483711
5.908293278400855
7.763790341039139
10.693522545204852
11.47478446631571
10.400549324788281
9.619287403677424
8.74036774242771
5.908293278400855
-1.3183794918745708
-8.349736781872283
-8.44739452201114
3.662165255207141
32.95948729686427
72.80384527351796
97.41359578850995
75.2452887769894
2.197299153124285
-84.42511635004196
-138.7228198672465
-139.79705500877392
-105.0308995193408
-66.55374990463112
-41.74868390936141
-32.86182955672541
-32.27588311589227
-33.252460517280845
-33.74074921797513
-33.74074921797513
-35.4009308003357
-38.33066300450141
-42.33463035019455
-47.90112153810941
-51.80743114366369
-52.295719844357976
-49.75661860074769
-46.33859769588769
-42.92057679102769
-38.42832074464027
-34.717326619363696
-30.420386053253985
-23.58434424353399
-15.381094071869994
-5.322346837567712
5.127031357289998
14.013885709925994
19.775692378118563
23.389028763256274
28.467231250476843
34.61966887922484
41.651026169222554
46.826886396581976
47.80346379797055
47.90112153810941
48.38941023880369
51.02616922255284
56.88563363088426
63.03807125963226
64.69825284199283
58.25284199282826
47.0222018768597
36.475165941863125
30.71335927367056
32.6665140764477
36.96345464255741
38.33066300450141
36.37750820172427
32.08056763561456
27.002365148393988
21.43587396047913
17.236591134508277
13.427939269092851
8.642710002288853
5.615320057984283
4.150453955901427
3.5645075150682843
3.7598229953459983
3.5645075150682843
1.9043259327077133
-2.0996414129854277
-5.0293736171511405
-6.005951018539712
-6.103608758678568
-4.638742656595713
-3.8574807354848555
-5.71297779812314
-10.302891584649425
-15.771725032425422
-19.48271915770199
-20.84992751964599
-18.89677271686885
-15.869382772564279
-15.771725032425422
-17.236591134508277
-19.092088197146563
-19.287403677424276
-17.43190661478599
-15.674067292286564
-15.47875181200885
-17.334248874647134
-17.920195315480278
-16.45532921339742
-15.088120851453422
-12.74433508812085
-10.009918364232853
-6.298924238956283
-0.9277485313191425
4.443427176317998
8.74036774242771
10.595864805065995
11.865415426871138
13.13496604867628
14.013885709925994
16.650644693675137
19.775692378118563
22.412451361867703
24.4632639047837
25.732814526588847
25.342183566033416
21.92416266117342
18.017853055619135
14.990463111314565
12.060730907148852
11.279468986037996
12.060730907148852
13.427939269092851
14.404516670481422
14.697489890897993
15.088120851453422
14.990463111314565
16.064698252841993
17.627222095063708
17.43190661478599
17.627222095063708
18.40848401617456
19.287403677424276
19.385061417563133
19.092088197146563
19.48271915770199
18.701457236591136
17.334248874647134
14.892805371175708
10.10757610437171
6.201266498817426
5.224689097428855
7.177843900205997
10.888838025482567
15.47875181200885
18.799114976729992
15.381094071869994
6.494239719233997
-4.345769436179141
-15.771725032425422
-25.732814526588847
-34.22903791866941
-41.358052948805984
-47.412832837415124
-52.19806210421912
-54.932478828107115
-57.56923781185626
-60.2059967956054
-62.54978255893797
-60.8896009765774
-47.0222018768597
-16.16235599298085
28.760204470893417
68.31158922713054
71.63195239185168
22.998397802700847
-57.37392233157855
-120.65613794155794
-133.93759060044252
-104.05432211795224
-59.62005035477226
-26.318760967421987
-10.10757610437171
-4.248111696040284
-0.9277485313191425
4.443427176317998
11.279468986037996
19.385061417563133
25.732814526588847
28.076600289921416
29.443808651865414
30.811017013809415
32.56885633630884
34.81498435950255
37.15877012283513
39.307240405889985
39.99084458686198
40.186160067139696
38.72129396505684
34.424353398947126
30.029755092698558
26.123445487144274
23.291371023117417
22.021820401312276
22.021820401312276
21.63118944075685
18.21316853589685
13.81857022964828
10.009918364232853
7.080186160067139
6.591897459372854
6.982528419928283
7.080186160067139
7.666132600900283
9.619287403677424
12.353704127565424
12.353704127565424
10.302891584649425
6.982528419928283
2.0996414129854277
-1.6113527122911422
-3.076218814373999
-1.9043259327077133
-0.9277485313191425
-2.490272373540856
-7.373159380483711
-15.674067292286564
-23.291371023117417
-29.2484931715877
-34.424353398947126
-37.256427862973986
-37.84237430380713
-36.0845349813077
-33.44777599755856
-31.2993057145037
-29.053177691309987
-26.807049668116274
-22.90074006256199
-19.287403677424276
-18.701457236591136
-18.994430457007706
-18.89677271686885
-16.943617914091707
-13.13496604867628
-9.326314183260854
-7.568474860761425
-9.130998702983138
-10.595864805065995
-11.279468986037996
-12.060730907148852
-11.279468986037996
-9.521629663538567
-6.884870679789426
-3.36919203479057
0.9277485313191425
5.420004577706569
7.763790341039139
9.71694514381628
11.377126726176853
11.767757686732281
12.84199282825971
14.892805371175708
18.506141756313422
22.803082322423133
25.92813000686656
26.22110322728313
22.412451361867703
17.52956435492485
12.060730907148852
4.541084916456855
-2.2949568932631417
-7.470817120622568
-9.912260624093996
-10.10757610437171
-8.545052262149996
-5.517662317845426
-3.36919203479057
-1.513694972152285
-0.43945983062485694
-0.24414435034714274
2.0019836728465705
4.931715877012284
5.71297779812314
2.68558785381857
-2.5879301136797133
-7.666132600900283
-13.037308308537423
-17.627222095063708
-21.43587396047913
-24.853894865339132
-25.732814526588847
-25.146868085755703
-23.58434424353399
-22.119478141451133
-20.947585259784848
-19.971007858396277
-21.14290074006256
-22.21713588158999
-21.533531700617992
-18.994430457007706
-14.11154345006485
-8.74036774242771
-3.076218814373999
2.68558785381857
7.959105821316854
12.256046387426567
14.306858930342566
16.650644693675137
18.799114976729992
18.310826276035705
16.45532921339742
13.232623788815136
9.71694514381628
6.884870679789426
6.298924238956283
8.935683222705425
12.74433508812085
17.13893339436942
19.775692378118563
18.701457236591136
17.627222095063708
19.775692378118563
29.63912413214313
51.61211566338598
86.37827115281911
120.55848020141909
123.68352788586252
77.97970550087739
0.7324330510414282
-62.745098039215684
-77.00312809948882
-48.291752498664835
-8.44739452201114
16.748302433813993
24.365606164644845
23.291371023117417
19.775692378118563
18.21316853589685
17.236591134508277
14.50217441062028
11.865415426871138
10.009918364232853
6.6895551995117115
-0.7324330510414282
-10.693522545204852
-19.092088197146563
-24.95155260547799
-26.514076447699704
-24.756237125200276
-22.21713588158999
-18.994430457007706
-16.357671473258563
-13.720912489509422
-9.912260624093996
-5.127031357289998
-1.513694972152285
-2.0996414129854277
-3.2715342946517127
-1.8066681925688564
2.490272373540856
8.44739452201114
11.767757686732281
11.279468986037996
8.642710002288853
6.787212939650568
6.787212939650568
6.39658197909514
6.39658197909514
5.810635538261997
3.1738765545128556
1.1230640115968566
0.34180209048599985
-0.14648661020828566
-3.076218814373999
-7.568474860761425
-11.670099946593423
-16.45532921339742
-21.338216220340275
-26.416418707560844
-31.396963454642556
-34.0337224383917
-35.4009308003357
-36.0845349813077
-37.256427862973986
-38.62363622491798
-38.818951705195694
-38.23300526436255
-35.596246280613414
-32.37354085603113
-30.029755092698558
-26.514076447699704
-21.728847180895706
-16.260013733119706
-11.377126726176853
-6.591897459372854
-1.8066681925688564
0.24414435034714274
0.34180209048599985
0.14648661020828566
1.8066681925688564
7.470817120622568
12.84199282825971
14.892805371175708
14.599832150759136
15.47875181200885
18.89677271686885
21.045242999923705
21.338216220340275
19.287403677424276
15.869382772564279
14.990463111314565
15.674067292286564
15.967040512703136
13.81857022964828
9.619287403677424
4.736400396734569
-0.04882887006942855
-1.2207217517357138
0.537117570763714
2.197299153124285
2.8809033340962844
1.513694972152285
0.24414435034714274
0.537117570763714
2.392614633401999
4.052796215762569
4.150453955901427
6.201266498817426
9.912260624093996
11.767757686732281
11.963073167009995
11.279468986037996
11.670099946593423
12.74433508812085
13.427939269092851
12.060730907148852
7.080186160067139
1.9043259327077133
-2.2949568932631417
-6.005951018539712
-7.470817120622568
-6.884870679789426
-4.736400396734569
-3.1738765545128556
-2.9785610742351416
-4.248111696040284
-7.177843900205997
-8.838025482566568
-9.228656443121995
-10.302891584649425
-11.377126726176853
-12.646677347981994
-12.646677347981994
-10.79118028534371
-6.884870679789426
-2.490272373540856
-1.416037232013428
-1.6113527122911422
-1.6113527122911422
-0.7324330510414282
3.076218814373999
8.545052262149996
12.646677347981994
11.963073167009995
6.201266498817426
-1.8066681925688564
-10.986495765621424
-17.724879835202564
-22.21713588158999
-24.853894865339132
-23.291371023117417
-18.310826276035705
-11.767757686732281
-6.982528419928283
-4.834058136873426
-3.662165255207141
-2.0996414129854277
6.884870679789426
30.22507057297627
67.13969634546426
102.58945601586939
105.7145037003128
55.22545204852369
-34.424353398947126
-113.42946517128252
-139.21110856794078
-114.60135805294881
-70.16708628976883
-34.22903791866941
-15.674067292286564
-7.177843900205997
-1.6113527122911422
4.834058136873426
11.572442206454566
17.041275654230564
20.752269779507134
22.412451361867703
24.65857938506142
27.588311589227132
31.103990234225986
36.67048142214084
41.651026169222554
43.79949645227741
41.84634164950027
37.64705882352941
32.764171816586554
26.61173418783856
21.14290074006256
16.357671473258563
12.84199282825971
12.74433508812085
14.306858930342566
15.674067292286564
16.16235599298085
16.064698252841993
14.795147631036851
10.498207064927138
7.568474860761425
7.666132600900283
9.130998702983138
11.181811245899137
12.74433508812085
14.013885709925994
13.525597009231708
11.963073167009995
10.400549324788281
7.666132600900283
5.322346837567712
2.68558785381857
-1.416037232013428
-5.810635538261997
-8.935683222705425
-9.521629663538567
-9.326314183260854
-10.205233844510566
-12.939650568398566
-18.21316853589685
-22.119478141451133
-23.291371023117417
-22.60776684214542
-20.45929655909056
-19.385061417563133
-19.48271915770199
-19.58037689784085
-17.724879835202564
-13.916227969787137
-10.888838025482567
-7.666132600900283
-4.834058136873426
-3.466849774929427
-2.2949568932631417
-1.7090104524299992
-1.0254062714579995
0.24414435034714274
3.1738765545128556
6.39658197909514
6.201266498817426
3.662165255207141
0.04882887006942855
-3.5645075150682843
-4.736400396734569
-3.662165255207141
-0.6347753109025711
2.490272373540856
4.736400396734569
4.931715877012284
2.0019836728465705
-0.34180209048599985
-1.416037232013428
-2.392614633401999
-3.076218814373999
-3.7598229953459983
-3.1738765545128556
-1.8066681925688564
-0.04882887006942855
0.537117570763714
-1.6113527122911422
-3.7598229953459983
-4.541084916456855
-4.443427176317998
-3.2715342946517127
-2.197299153124285
-0.6347753109025711
0.6347753109025711
1.513694972152285
1.416037232013428
-0.43945983062485694
-1.1230640115968566
-0.7324330510414282
-0.8300907911802854
-0.43945983062485694
0.34180209048599985
1.7090104524299992
2.392614633401999
2.8809033340962844
3.1738765545128556
1.9043259327077133
1.416037232013428
1.513694972152285
1.6113527122911422
3.076218814373999
6.005951018539712
9.81460288395514
12.646677347981994
14.013885709925994
13.13496604867628
8.154421301594567
2.392614633401999
-1.3183794918745708
-2.392614633401999
-0.9277485313191425
0.14648661020828566
0.14648661020828566
-1.3183794918745708
-2.8809033340962844
-3.7598229953459983
-5.224689097428855
-4.541084916456855
-1.8066681925688564
0.9277485313191425
2.68558785381857
1.513694972152285
-1.7090104524299992
-6.005951018539712
-8.838025482566568
-9.228656443121995
-9.130998702983138
-7.275501640344854
-4.345769436179141
-2.0996414129854277
-0.6347753109025711
-0.8300907911802854
-1.8066681925688564
-1.9043259327077133
2.197299153124285
14.209201190203707
36.86579690241855
73.09681849393453
109.1325246051728
113.82009613183794
65.47951476310368
-18.994430457007706
-91.06584267948425
-114.69901579308767
-91.74944686045625
-51.80743114366369
-23.096055542839704
-11.572442206454566
-11.279468986037996
-14.599832150759136
-15.771725032425422
-13.916227969787137
-8.154421301594567
-0.14648661020828566
7.177843900205997
10.498207064927138
8.642710002288853
6.298924238956283
4.834058136873426
2.9785610742351416
1.513694972152285
0.537117570763714
1.2207217517357138
3.2715342946517127
5.810635538261997
6.591897459372854
3.8574807354848555
0.537117570763714
-2.2949568932631417
-4.541084916456855
-4.345769436179141
-2.490272373540856
-0.04882887006942855
1.3183794918745708
3.076218814373999
5.420004577706569
5.71297779812314
5.615320057984283
5.810635538261997
6.6895551995117115
8.74036774242771
10.498207064927138
12.256046387426567
13.720912489509422
15.283436331731137
15.771725032425422
13.037308308537423
9.619287403677424
6.39658197909514
3.2715342946517127
0.8300907911802854
-1.2207217517357138
-2.8809033340962844
-5.322346837567712
-8.252079041733426
-11.47478446631571
-15.283436331731137
-17.334248874647134
-18.60379949645228
-19.678034637979707
-19.18974593728542
-17.236591134508277
-14.892805371175708
-14.11154345006485
-13.720912489509422
-12.158388647287708
-10.595864805065995
-7.568474860761425
-4.541084916456855
-2.490272373540856
0.04882887006942855
2.68558785381857
5.322346837567712
6.787212939650568
7.763790341039139
7.177843900205997
2.8809033340962844
-1.416037232013428
-4.150453955901427
-4.345769436179141
-2.197299153124285
0.04882887006942855
1.2207217517357138
0.9277485313191425
0.14648661020828566
-1.1230640115968566
-4.541084916456855
-7.080186160067139
-7.959105821316854
-7.861448081177996
-6.6895551995117115
-5.224689097428855
-3.5645075150682843
-2.783245593957427
-1.7090104524299992
0.04882887006942855
1.0254062714579995
2.5879301136797133
3.7598229953459983
4.345769436179141
6.103608758678568
7.959105821316854
8.545052262149996
6.787212939650568
5.0293736171511405
4.443427176317998
3.1738765545128556
2.5879301136797133
2.783245593957427
3.36919203479057
4.541084916456855
4.931715877012284
4.541084916456855
3.36919203479057
2.9785610742351416
2.68558785381857
0.43945983062485694
-1.513694972152285
-2.490272373540856
-2.197299153124285
-0.34180209048599985
1.416037232013428
3.36919203479057
4.638742656595713
5.71297779812314
5.322346837567712
2.2949568932631417
0.14648661020828566
0.537117570763714
2.783245593957427
5.615320057984283
6.39658197909514
4.638742656595713
0.04882887006942855
-4.443427176317998
-7.470817120622568
-8.838025482566568
-6.201266498817426
-0.6347753109025711
4.541084916456855
7.080186160067139
5.420004577706569
1.8066681925688564
-2.783245593957427
-6.982528419928283
-10.498207064927138
-13.525597009231708
-12.549019607843137
-7.959105821316854
-2.490272373540856
2.0996414129854277
4.150453955901427
5.127031357289998
7.373159380483711
15.869382772564279
35.010299839780274
64.60059510185397
97.51125352864881
108.35126268406195
71.53429465171283
-6.591897459372854
-83.83916990920882
-115.67559319447624
-97.41359578850995
-56.006713969634546
-22.314793621728846
-9.521629663538567
-10.009918364232853
-13.81857022964828
-14.013885709925994
-8.74036774242771
-1.8066681925688564
3.1738765545128556
4.443427176317998
3.7598229953459983
1.9043259327077133
-1.3183794918745708
-3.2715342946517127
-3.662165255207141
-2.68558785381857
0.04882887006942855
2.783245593957427
4.736400396734569
5.517662317845426
6.201266498817426
6.39658197909514
3.9551384756237127
1.416037232013428
-0.537117570763714
-1.513694972152285
-0.24414435034714274
2.0019836728465705
4.736400396734569
6.884870679789426
9.619287403677424
12.84199282825971
14.11154345006485
14.013885709925994
12.939650568398566
12.646677347981994
14.11154345006485
15.576409552147707
15.771725032425422
13.916227969787137
11.767757686732281
9.326314183260854
5.224689097428855
2.5879301136797133
2.5879301136797133
5.127031357289998
8.349736781872283
8.44739452201114
4.443427176317998
-2.9785610742351416
-9.326314183260854
-12.939650568398566
-16.16235599298085
-18.017853055619135
-18.11551079575799
-15.47875181200885
-9.42397192339971
-2.2949568932631417
3.9551384756237127
7.959105821316854
10.986495765621424
13.330281528953995
13.720912489509422
14.209201190203707
15.47875181200885
18.60379949645228
24.267948424505988
29.834439612420844
32.27588311589227
29.443808651865414
24.267948424505988
18.60379949645228
10.302891584649425
0.8300907911802854
-7.861448081177996
-14.795147631036851
-20.068665598535134
-24.072632944228275
-25.24452582589456
-24.560921644922562
-22.60776684214542
-21.92416266117342
-24.65857938506142
-28.174258030060273
-31.103990234225986
-32.6665140764477
-32.764171816586554
-32.95948729686427
-33.05714503700313
-33.838406958113985
-34.22903791866941
-34.424353398947126
-36.27985046158541
-37.94003204394598
-38.525978484779124
-37.64705882352941
-35.4009308003357
-32.95948729686427
-29.834439612420844
-27.1976806286717
-24.072632944228275
-20.45929655909056
-18.701457236591136
-17.52956435492485
-15.771725032425422
-12.256046387426567
-7.080186160067139
-2.0019836728465705
2.8809033340962844
6.494239719233997
9.521629663538567
12.353704127565424
13.720912489509422
16.064698252841993
19.18974593728542
23.19371328297856
28.27191577019913
32.56885633630884
34.91264209964141
34.717326619363696
34.131380178530556
33.252460517280845
30.811017013809415
29.443808651865414
28.369573510337986
26.807049668116274
25.92813000686656
25.63515678644999
25.146868085755703
23.682001983672848
23.19371328297856
24.072632944228275
24.95155260547799
26.61173418783856
27.295338368810558
24.853894865339132
19.385061417563133
11.47478446631571
2.9785610742351416
-6.298924238956283
-13.81857022964828
-17.041275654230564
-15.869382772564279
-9.521629663538567
-2.0996414129854277
2.783245593957427
4.736400396734569
4.541084916456855
4.834058136873426
7.177843900205997
16.748302433813993
38.33066300450141
70.16708628976883
98.97611963073167
97.12062256809338
47.51049057755398
-31.494621194781413
-94.28854810406654
-108.05828946364538
-81.20241092545967
-43.21355001144427
-17.041275654230564
-8.05676356145571
-8.154421301594567
-11.377126726176853
-13.916227969787137
-13.232623788815136
-10.009918364232853
-5.224689097428855
-1.0254062714579995
1.8066681925688564
2.783245593957427
1.3183794918745708
1.3183794918745708
2.5879301136797133
4.345769436179141
6.201266498817426
7.080186160067139
7.177843900205997
5.908293278400855
4.931715877012284
4.736400396734569
3.2715342946517127
1.8066681925688564
-0.43945983062485694
-2.490272373540856
-2.0996414129854277
0.14648661020828566
3.1738765545128556
4.736400396734569
6.6895551995117115
8.74036774242771
8.74036774242771
8.349736781872283
7.568474860761425
6.39658197909514
5.908293278400855
7.177843900205997
10.400549324788281
11.963073167009995
10.986495765621424
8.252079041733426
4.345769436179141
1.8066681925688564
-0.04882887006942855
-2.2949568932631417
-4.931715877012284
-8.252079041733426
-11.572442206454566
-15.576409552147707
-18.40848401617456
-19.58037689784085
-20.55695429922942
-21.045242999923705
-21.826504921034562
-21.14290074006256
-17.52956435492485
-12.646677347981994
-8.252079041733426
-6.494239719233997
-6.005951018539712
-6.591897459372854
-9.228656443121995
-10.79118028534371
-10.595864805065995
-8.642710002288853
-5.127031357289998
-1.2207217517357138
3.5645075150682843
8.252079041733426
12.353704127565424
13.525597009231708
9.326314183260854
3.076218814373999
-2.197299153124285
-4.150453955901427
-2.2949568932631417
1.416037232013428
4.345769436179141
3.36919203479057
0.04882887006942855
-2.490272373540856
-3.7598229953459983
-2.68558785381857
-2.392614633401999
-3.662165255207141
-4.443427176317998
-3.2715342946517127
0.04882887006942855
3.076218814373999
5.615320057984283
6.201266498817426
2.5879301136797133
-2.197299153124285
-6.005951018539712
-6.884870679789426
-4.736400396734569
-2.392614633401999
-1.3183794918745708
-1.9043259327077133
-1.1230640115968566
1.2207217517357138
1.7090104524299992
0.6347753109025711
-0.6347753109025711
-0.14648661020828566
2.0996414129854277
4.541084916456855
6.591897459372854
7.666132600900283
8.74036774242771
8.935683222705425
6.6895551995117115
5.517662317845426
6.201266498817426
7.470817120622568
7.959105821316854
7.470817120622568
7.177843900205997
6.201266498817426
5.615320057984283
5.908293278400855
6.982528419928283
10.302891584649425
14.209201190203707
17.52956435492485
19.48271915770199
18.21316853589685
12.549019607843137
1.9043259327077133
-8.349736781872283
-14.306858930342566
-17.13893339436942
-17.82253757534142
-17.627222095063708
-15.576409552147707
-12.158388647287708
-10.595864805065995
-11.767757686732281
-15.576409552147707
-17.920195315480278
-17.13893339436942
-14.306858930342566
-9.81460288395514
-7.470817120622568
-8.252079041733426
-8.154421301594567
-1.2207217517357138
19.092088197146563
55.51842526894026
101.02693217364767
127.49217975127794
100.14801251239795
18.40848401617456
-74.65934233615626
-127.00389105058366
-120.94911116197451
-79.15159838254368
-34.61966887922484
-7.666132600900283
1.2207217517357138
0.04882887006942855
-3.2715342946517127
-2.2949568932631417
1.7090104524299992
5.810635538261997
8.44739452201114
8.935683222705425
8.05676356145571
5.810635538261997
5.517662317845426
6.6895551995117115
5.908293278400855
3.1738765545128556
-0.8300907911802854
-2.392614633401999
1.2207217517357138
7.470817120622568
11.47478446631571
9.81460288395514
6.005951018539712
3.5645075150682843
2.392614633401999
3.5645075150682843
5.0293736171511405
5.420004577706569
4.931715877012284
5.0293736171511405
7.568474860761425
10.79118028534371
13.623254749370565
13.916227969787137
10.986495765621424
8.838025482566568
9.033340962844282
11.572442206454566
14.892805371175708
16.16235599298085
14.11154345006485
7.861448081177996
1.416037232013428
-2.2949568932631417
-4.248111696040284
-4.248111696040284
-4.736400396734569
-6.982528419928283
-10.888838025482567
-15.185778591592278
-18.21316853589685
-21.045242999923705
-22.705424582284277
-22.90074006256199
-22.803082322423133
-20.84992751964599
-17.82253757534142
-13.525597009231708
-8.74036774242771
-4.931715877012284
-2.2949568932631417
-1.6113527122911422
-0.6347753109025711
0.43945983062485694
0.7324330510414282
1.7090104524299992
2.68558785381857
3.8574807354848555
6.103608758678568
8.74036774242771
9.912260624093996
6.6895551995117115
1.9043259327077133
-1.416037232013428
-2.9785610742351416
-1.8066681925688564
-0.43945983062485694
0.04882887006942855
0.14648661020828566
0.34180209048599985
0.43945983062485694
-1.513694972152285
-3.5645075150682843
-4.541084916456855
-5.224689097428855
-4.638742656595713
-3.662165255207141
-2.5879301136797133
-1.3183794918745708
-0.14648661020828566
0.9277485313191425
0.43945983062485694
-0.24414435034714274
-1.2207217517357138
-3.076218814373999
-3.1738765545128556
-1.513694972152285
1.7090104524299992
5.810635538261997
8.935683222705425
9.912260624093996
7.177843900205997
3.7598229953459983
1.3183794918745708
-0.7324330510414282
-1.1230640115968566
-0.34180209048599985
0.6347753109025711
0.43945983062485694
-1.7090104524299992
-4.150453955901427
-5.322346837567712
-2.8809033340962844
0.9277485313191425
2.5879301136797133
3.076218814373999
4.541084916456855
9.130998702983138
15.869382772564279
21.533531700617992
23.779659723811704
20.55695429922942
14.209201190203707
6.494239719233997
-1.8066681925688564
-8.349736781872283
-13.232623788815136
-15.674067292286564
-14.892805371175708
-12.060730907148852
-9.81460288395514
-11.08415350576028
-13.525597009231708
-14.697489890897993
-15.185778591592278
-14.11154345006485
-12.158388647287708
-9.033340962844282
-5.420004577706569
-2.0996414129854277
3.7598229953459983
18.21316853589685
49.85427634088655
93.8979171435111
121.92568856336308
101.71053635461966
28.076600289921416
-61.67086289768826
-117.62874799725337
-117.53109025711451
-78.76096742198825
-36.27985046158541
-9.912260624093996
-1.416037232013428
-3.7598229953459983
-7.177843900205997
-8.349736781872283
-6.787212939650568
-3.662165255207141
-0.34180209048599985
3.1738765545128556
6.005951018539712
8.935683222705425
10.595864805065995
9.619287403677424
8.349736781872283
7.177843900205997
5.810635538261997
4.541084916456855
4.150453955901427
5.322346837567712
6.103608758678568
7.080186160067139
8.252079041733426
8.349736781872283
8.154421301594567
7.080186160067139
6.494239719233997
7.177843900205997
8.935683222705425
11.47478446631571
12.939650568398566
14.404516670481422
16.064698252841993
17.13893339436942
18.60379949645228
19.678034637979707
19.971007858396277
18.799114976729992
15.869382772564279
12.45136186770428
8.252079041733426
5.322346837567712
3.2715342946517127
0.04882887006942855
-3.662165255207141
-7.959105821316854
-11.47478446631571
-13.720912489509422
-15.381094071869994
-16.84596017395285
-19.87335011825742
-22.412451361867703
-23.58434424353399
-23.779659723811704
-22.119478141451133
-19.287403677424276
-15.185778591592278
-10.205233844510566
-6.201266498817426
-3.9551384756237127
-3.8574807354848555
-3.076218814373999
-1.8066681925688564
-2.8809033340962844
-5.517662317845426
-8.05676356145571
-6.884870679789426
-1.2207217517357138
5.127031357289998
7.763790341039139
4.052796215762569
-1.513694972152285
-4.638742656595713
-4.345769436179141
-1.416037232013428
1.1230640115968566
2.8809033340962844
4.150453955901427
4.834058136873426
4.345769436179141
1.7090104524299992
0.04882887006942855
0.537117570763714
1.9043259327077133
4.541084916456855
7.959105821316854
13.232623788815136
20.361638818951704
27.588311589227132
33.3501182574197
34.61966887922484
32.27588311589227
27.002365148393988
18.60379949645228
8.74036774242771
-3.1738765545128556
-16.357671473258563
-28.857862211032273
-37.74471656366827
-41.16273746852827
-40.772106507972836
-37.35408560311284
-33.252460517280845
-30.22507057297627
-26.025787747005417
-21.24055848020142
-17.13893339436942
-15.088120851453422
-14.209201190203707
-9.033340962844282
6.201266498817426
38.72129396505684
82.17898832684826
108.35126268406195
87.25719081406882
18.017853055619135
-58.8387884336614
-97.12062256809338
-84.71808957045853
-45.26436255436027
-10.595864805065995
6.591897459372854
8.545052262149996
2.68558785381857
-1.6113527122911422
-1.9043259327077133
0.9277485313191425
5.0293736171511405
8.545052262149996
10.693522545204852
10.009918364232853
8.74036774242771
7.275501640344854
4.541084916456855
2.783245593957427
2.392614633401999
4.150453955901427
7.470817120622568
10.595864805065995
11.47478446631571
8.642710002288853
6.103608758678568
6.103608758678568
7.080186160067139
8.44739452201114
8.44739452201114
8.349736781872283
9.619287403677424
12.256046387426567
15.088120851453422
15.674067292286564
15.576409552147707
15.771725032425422
15.674067292286564
16.45532921339742
17.724879835202564
19.092088197146563
19.18974593728542
17.334248874647134
14.404516670481422
10.205233844510566
7.275501640344854
5.420004577706569
2.0019836728465705
-2.68558785381857
-9.033340962844282
-15.47875181200885
-20.947585259784848
-25.049210345616846
-27.295338368810558
-29.346150911726557
-29.834439612420844
-29.053177691309987
-27.392996108949415
-23.682001983672848
-19.092088197146563
-14.013885709925994
-9.130998702983138
-5.127031357289998
-2.392614633401999
-2.5879301136797133
-3.36919203479057
-4.150453955901427
-5.322346837567712
-5.0293736171511405
-3.36919203479057
0.04882887006942855
4.052796215762569
7.275501640344854
9.42397192339971
9.228656443121995
8.252079041733426
6.591897459372854
4.248111696040284
3.5645075150682843
3.8574807354848555
4.248111696040284
3.9551384756237127
3.36919203479057
2.8809033340962844
1.2207217517357138
0.14648661020828566
-0.537117570763714
-1.7090104524299992
-1.416037232013428
-0.24414435034714274
1.7090104524299992
4.345769436179141
8.74036774242771
15.381094071869994
21.24055848020142
26.123445487144274
29.736781872281988
30.420386053253985
28.95551995117113
24.756237125200276
18.11551079575799
7.959105821316854
-5.420004577706569
-19.971007858396277
-34.52201113908598
-44.580758373388264
-47.90112153810941
-44.97138933394369
-37.84237430380713
-30.908674753948272
-24.756237125200276
-18.40848401617456
-12.939650568398566
-10.302891584649425
-12.060730907148852
-13.525597009231708
-8.838025482566568
8.05676356145571
41.943999389639124
79.3469138628214
90.47989623865111
53.36995498588541
-16.84596017395285
-75.04997329671168
-89.99160753795681
-65.38185702296482
-29.736781872281988
-6.39658197909514
1.513694972152285
0.24414435034714274
-3.1738765545128556
-5.322346837567712
-5.224689097428855
-2.8809033340962844
-0.537117570763714
1.8066681925688564
3.5645075150682843
4.736400396734569
8.252079041733426
12.549019607843137
15.381094071869994
15.47875181200885
14.306858930342566
13.525597009231708
12.256046387426567
11.572442206454566
10.888838025482567
9.42397192339971
9.130998702983138
9.42397192339971
10.595864805065995
12.353704127565424
14.209201190203707
14.990463111314565
12.646677347981994
9.912260624093996
8.44739452201114
7.959105821316854
8.838025482566568
9.81460288395514
11.670099946593423
13.916227969787137
15.47875181200885
15.771725032425422
13.330281528953995
10.400549324788281
8.154421301594567
6.6895551995117115
6.591897459372854
6.201266498817426
5.127031357289998
2.197299153124285
-2.68558785381857
-8.44739452201114
-14.697489890897993
-19.092088197146563
-22.412451361867703
-24.756237125200276
-24.365606164644845
-22.119478141451133
-19.58037689784085
-17.920195315480278
-16.748302433813993
-15.185778591592278
-14.306858930342566
-12.549019607843137
-10.205233844510566
-8.74036774242771
-7.666132600900283
-7.080186160067139
-5.224689097428855
-2.197299153124285
0.8300907911802854
3.2715342946517127
2.9785610742351416
1.9043259327077133
1.0254062714579995
1.1230640115968566
3.076218814373999
4.736400396734569
5.71297779812314
6.103608758678568
6.787212939650568
7.666132600900283
7.177843900205997
7.080186160067139
7.177843900205997
6.298924238956283
5.615320057984283
5.0293736171511405
5.127031357289998
5.517662317845426
5.517662317845426
6.103608758678568
8.05676356145571
13.81857022964828
21.826504921034562
28.174258030060273
31.885252155336843
31.592278934920273
27.588311589227132
19.775692378118563
9.228656443121995
-2.68558785381857
-17.041275654230564
-30.420386053253985
-39.69787136644541
-43.604180971999696
-42.13931486991684
-38.03768978408484
-31.885252155336843
-24.560921644922562
-17.627222095063708
-13.037308308537423
-13.623254749370565
-16.55298695353628
-18.701457236591136
-17.627222095063708
-8.74036774242771
11.572442206454566
44.67841611352712
76.41718165865568
80.71412222476539
43.89715419241627
-16.55298695353628
-60.987258716716255
-67.33501182574197
-46.04562447547112
-20.263981078812847
-5.615320057984283
-2.0996414129854277
-4.248111696040284
-6.982528419928283
-7.861448081177996
-8.642710002288853
-8.44739452201114
-7.275501640344854
-5.615320057984283
-2.2949568932631417
1.3183794918745708
5.0293736171511405
7.568474860761425
8.935683222705425
10.986495765621424
13.13496604867628
16.16235599298085
19.092088197146563
21.045242999923705
23.291371023117417
24.560921644922562
25.732814526588847
27.49065384908827
30.322728313115128
33.838406958113985
36.0845349813077
37.94003204394598
39.69787136644541
40.96742198825055
42.92057679102769
44.873731593804834
47.21751735713741
49.073014419775696
51.123826962691695
52.49103532463569
48.48706797894255
39.99084458686198
30.22507057297627
19.87335011825742
9.71694514381628
0.6347753109025711
-6.884870679789426
-15.674067292286564
-25.63515678644999
-35.303273060196844
-47.0222018768597
-59.91302357518883
-72.02258335240711
-80.51880674448768
-82.86259250782025
-80.81177996490425
-76.22186617837797
-71.72961013199054
-68.70222018768597
-66.55374990463112
-65.6748302433814
-64.11230640115969
-61.08491645685512
-56.39734493018997
-49.75661860074769
-42.13931486991684
-32.471198596169984
-21.045242999923705
-9.42397192339971
1.0254062714579995
8.05676356145571
12.84199282825971
16.16235599298085
18.701457236591136
23.291371023117417
28.857862211032273
34.91264209964141
40.57679102769512
44.97138933394369
47.60814831769284
47.705806057831694
47.51049057755398
46.240939955748836
43.89715419241627
43.50652323186084
44.38544289311055
44.38544289311055
41.943999389639124
38.23300526436255
35.20561532005799
33.15480277714199
34.424353398947126
37.94003204394598
40.479133287556266
40.86976424811169
38.42832074464027
33.05714503700313
23.291371023117417
10.498207064927138
-3.466849774929427
-20.361638818951704
-38.91660944533455
-56.39734493018997
-69.28816662851911
-75.04997329671168
-75.04997329671168
-69.0928511482414
-58.057526512550545
-45.654993514915695
-37.64705882352941
-37.15877012283513
-38.62363622491798
-37.35408560311284
-32.95948729686427
-26.807049668116274
-19.287403677424276
-2.2949568932631417
31.201647974364842
71.04600595101854
87.06187533379111
53.66292820630198
-15.185778591592278
-76.41718165865568
-95.85107194628824
-74.5616845960174
-40.08850232700084
-15.381094071869994
-7.763790341039139
-10.986495765621424
-15.088120851453422
-15.283436331731137
-10.400549324788281
-4.541084916456855
-0.9277485313191425
2.0019836728465705
5.615320057984283
10.693522545204852
15.869382772564279
18.60379949645228
17.920195315480278
14.404516670481422
11.963073167009995
10.498207064927138
9.71694514381628
11.963073167009995
15.967040512703136
20.263981078812847
22.705424582284277
23.58434424353399
23.87731746395056
22.21713588158999
20.068665598535134
17.724879835202564
15.771725032425422
15.47875181200885
14.990463111314565
14.795147631036851
15.088120851453422
16.260013733119706
18.017853055619135
18.799114976729992
19.385061417563133
18.017853055619135
14.404516670481422
11.572442206454566
10.009918364232853
9.326314183260854
8.05676356145571
6.201266498817426
4.052796215762569
0.43945983062485694
-2.68558785381857
-5.322346837567712
-7.470817120622568
-7.763790341039139
-6.591897459372854
-4.443427176317998
-2.9785610742351416
-2.783245593957427
-2.9785610742351416
-3.36919203479057
-2.783245593957427
-2.9785610742351416
-5.322346837567712
-6.6895551995117115
-5.615320057984283
-1.6113527122911422
3.076218814373999
7.080186160067139
8.935683222705425
6.103608758678568
0.7324330510414282
-5.517662317845426
-11.767757686732281
-16.748302433813993
-20.45929655909056
-20.068665598535134
-14.697489890897993
-6.298924238956283
1.9043259327077133
7.959105821316854
14.599832150759136
22.60776684214542
32.27588311589227
44.09246967269398
54.932478828107115
62.64744029907683
66.3584344243534
68.70222018768597
70.55771725032426
66.84672312504769
56.7879758907454
41.74868390936141
21.728847180895706
-1.0254062714579995
-22.90074006256199
-41.45571068894484
-58.643472953383686
-74.07339589532312
-84.03448538948653
-88.03845273517967
-86.28061341268025
-81.5930418860151
-75.63591973754482
-68.31158922713054
-60.59662775616083
-51.02616922255284
-40.186160067139696
-29.541466392004274
-20.45929655909056
-14.50217441062028
-10.205233844510566
-7.177843900205997
-3.8574807354848555
2.0019836728465705
8.252079041733426
13.13496604867628
15.869382772564279
17.43190661478599
18.506141756313422
18.017853055619135
18.017853055619135
17.82253757534142
16.357671473258563
14.50217441062028
12.158388647287708
10.595864805065995
9.130998702983138
6.591897459372854
3.1738765545128556
-0.9277485313191425
-2.783245593957427
-3.2715342946517127
-4.443427176317998
-5.908293278400855
-7.861448081177996
-8.935683222705425
-9.42397192339971
-9.912260624093996
-11.08415350576028
-13.330281528953995
-12.158388647287708
-6.39658197909514
0.537117570763714
5.71297779812314
7.861448081177996
10.693522545204852
15.283436331731137
19.092088197146563
18.310826276035705
9.81460288395514
-3.5645075150682843
-19.18974593728542
-33.44777599755856
-42.33463035019455
-45.55733577477684
-42.529945830472265
-35.49858854047456
-26.807049668116274
-19.092088197146563
-15.47875181200885
-14.11154345006485
-12.84199282825971
-9.326314183260854
0.43945983062485694
21.14290074006256
56.006713969634546
94.87449454489968
112.64820325017166
86.08529793240254
18.40848401617456
-50.928511482413974
-83.15556572823682
-69.48348210879682
-31.00633249408713
3.36919203479057
20.654612039368278
22.60776684214542
18.60379949645228
15.771725032425422
14.990463111314565
16.650644693675137
18.60379949645228
20.654612039368278
24.267948424505988
27.588311589227132
29.346150911726557
29.736781872281988
29.834439612420844
28.369573510337986
22.90074006256199
16.357671473258563
11.572442206454566
9.42397192339971
9.326314183260854
8.935683222705425
8.05676356145571
6.39658197909514
5.224689097428855
5.322346837567712
5.127031357289998
5.810635538261997
6.494239719233997
6.201266498817426
6.298924238956283
6.787212939650568
8.642710002288853
9.912260624093996
9.71694514381628
7.959105821316854
4.638742656595713
2.783245593957427
2.2949568932631417
1.1230640115968566
-0.6347753109025711
-2.783245593957427
-3.662165255207141
-3.9551384756237127
-4.834058136873426
-6.787212939650568
-10.595864805065995
-14.11154345006485
-17.43190661478599
-21.43587396047913
-25.146868085755703
-27.68596932936599
-26.709391927977418
-23.48668650339513
-20.84992751964599
-20.752269779507134
-23.682001983672848
-24.756237125200276
-22.705424582284277
-18.21316853589685
-12.646677347981994
-8.545052262149996
-5.322346837567712
-2.0996414129854277
1.3183794918745708
4.150453955901427
3.5645075150682843
1.6113527122911422
0.24414435034714274
1.1230640115968566
4.834058136873426
8.44739452201114
10.79118028534371
11.47478446631571
11.47478446631571
10.888838025482567
7.763790341039139
4.248111696040284
1.0254062714579995
-0.6347753109025711
0.537117570763714
2.9785610742351416
4.834058136873426
4.541084916456855
2.9785610742351416
1.416037232013428
-0.6347753109025711
-1.0254062714579995
-0.14648661020828566
1.1230640115968566
2.490272373540856
2.68558785381857
2.783245593957427
3.8574807354848555
6.201266498817426
7.959105821316854
6.591897459372854
4.345769436179141
2.9785610742351416
3.1738765545128556
4.736400396734569
5.517662317845426
5.908293278400855
6.201266498817426
6.884870679789426
7.373159380483711
6.298924238956283
6.005951018539712
6.298924238956283
5.0293736171511405
2.783245593957427
0.8300907911802854
1.6113527122911422
4.248111696040284
6.591897459372854
6.591897459372854
3.2715342946517127
0.537117570763714
-0.14648661020828566
0.6347753109025711
2.490272373540856
3.662165255207141
3.8574807354848555
2.0996414129854277
-1.7090104524299992
-7.275501640344854
-13.720912489509422
-16.16235599298085
-13.525597009231708
-8.838025482566568
-5.615320057984283
-6.39658197909514
-8.05676356145571
-9.42397192339971
-10.693522545204852
-12.939650568398566
-16.84596017395285
-18.017853055619135
-14.599832150759136
-7.666132600900283
-0.04882887006942855
3.8574807354848555
4.834058136873426
5.810635538261997
10.400549324788281
22.60776684214542
45.362020294499125
78.56565194171054
100.53864347295338
80.2258335240711
12.74433508812085
-65.38185702296482
-105.51918822003509
-93.99557488364995
-54.15121690699626
-17.920195315480278
-1.7090104524299992
-1.2207217517357138
-7.177843900205997
-11.47478446631571
-10.10757610437171
-5.71297779812314
-1.2207217517357138
1.1230640115968566
2.2949568932631417
3.36919203479057
3.36919203479057
3.36919203479057
2.9785610742351416
2.783245593957427
5.0293736171511405
8.838025482566568
12.84199282825971
14.697489890897993
14.404516670481422
13.13496604867628
11.767757686732281
12.549019607843137
13.525597009231708
13.037308308537423
12.646677347981994
13.13496604867628
14.599832150759136
14.892805371175708
13.81857022964828
12.256046387426567
10.302891584649425
9.912260624093996
10.302891584649425
9.326314183260854
6.982528419928283
4.541084916456855
4.541084916456855
5.127031357289998
4.541084916456855
2.197299153124285
-2.0019836728465705
-5.322346837567712
-7.080186160067139
-7.568474860761425
-7.373159380483711
-8.252079041733426
-10.986495765621424
-16.650644693675137
-23.19371328297856
-27.588311589227132
-29.834439612420844
-29.2484931715877
-28.369573510337986
-29.2484931715877
-30.811017013809415
-30.71335927367056
-25.537499046311133
-15.967040512703136
-5.615320057984283
1.3183794918745708
2.8809033340962844
2.9785610742351416
3.36919203479057
3.9551384756237127
4.638742656595713
4.052796215762569
3.5645075150682843
3.5645075150682843
4.443427176317998
4.638742656595713
2.0996414129854277
-0.537117570763714
-2.0019836728465705
-1.3183794918745708
0.9277485313191425
2.8809033340962844
3.9551384756237127
3.7598229953459983
3.2715342946517127
2.68558785381857
0.24414435034714274
-2.490272373540856
-4.834058136873426
-5.810635538261997
-5.0293736171511405
-4.541084916456855
-4.443427176317998
-5.0293736171511405
-5.224689097428855
-5.420004577706569
-7.763790341039139
-9.912260624093996
-10.302891584649425
-8.252079041733426
-4.248111696040284
-1.513694972152285
-1.1230640115968566
-3.466849774929427
-5.615320057984283
-4.931715877012284
-2.490272373540856
1.1230640115968566
3.076218814373999
2.2949568932631417
1.0254062714579995
0.537117570763714
1.3183794918745708
1.1230640115968566
-0.34180209048599985
-1.6113527122911422
-2.490272373540856
-1.416037232013428
0.34180209048599985
1.6113527122911422
2.490272373540856
3.076218814373999
5.517662317845426
9.71694514381628
13.525597009231708
13.720912489509422
8.05676356145571
0.9277485313191425
-3.9551384756237127
-5.0293736171511405
-2.0019836728465705
2.68558785381857
8.05676356145571
11.670099946593423
12.256046387426567
9.619287403677424
3.1738765545128556
-2.9785610742351416
-6.6895551995117115
-6.201266498817426
-0.9277485313191425
5.615320057984283
10.205233844510566
10.009918364232853
6.982528419928283
4.052796215762569
3.1738765545128556
8.935683222705425
24.95155260547799
49.85427634088655
71.24132143129626
66.74906538490883
25.537499046311133
-36.768139162279695
-82.7649347676814
-88.33142595559625
-63.03807125963226
-31.201647974364842
-10.986495765621424
-4.638742656595713
-5.615320057984283
-8.935683222705425
-10.205233844510566
-9.033340962844282
-6.298924238956283
-3.9551384756237127
-4.150453955901427
-4.248111696040284
-3.1738765545128556
0.14648661020828566
5.71297779812314
10.205233844510566
12.646677347981994
12.939650568398566
11.670099946593423
8.838025482566568
3.466849774929427
-1.1230640115968566
-4.052796215762569
-5.420004577706569
-5.127031357289998
-4.736400396734569
-3.076218814373999
-1.1230640115968566
0.34180209048599985
0.14648661020828566
-2.9785610742351416
-5.71297779812314
-6.6895551995117115
-6.298924238956283
-5.517662317845426
-6.201266498817426
-7.373159380483711
-9.228656443121995
-10.498207064927138
-10.205233844510566
-9.033340962844282
-6.103608758678568
-2.5879301136797133
0.537117570763714
3.7598229953459983
5.615320057984283
5.71297779812314
3.8574807354848555
1.9043259327077133
1.7090104524299992
2.2949568932631417
3.5645075150682843
3.8574807354848555
3.8574807354848555
5.615320057984283
7.959105821316854
10.400549324788281
12.256046387426567
13.81857022964828
15.576409552147707
16.943617914091707
19.87335011825742
22.119478141451133
22.119478141451133
21.338216220340275
19.971007858396277
17.52956435492485
12.84199282825971
9.130998702983138
9.033340962844282
10.79118028534371
13.427939269092851
14.990463111314565
16.16235599298085
18.310826276035705
20.068665598535134
20.068665598535134
17.334248874647134
14.306858930342566
13.525597009231708
13.232623788815136
12.84199282825971
10.400549324788281
6.6895551995117115
4.443427176317998
4.248111696040284
6.201266498817426
8.349736781872283
9.71694514381628
9.42397192339971
6.884870679789426
5.810635538261997
8.252079041733426
14.209201190203707
21.728847180895706
26.709391927977418
27.100022888532845
22.705424582284277
18.21316853589685
16.748302433813993
15.771725032425422
14.11154345006485
10.888838025482567
6.201266498817426
1.0254062714579995
-3.076218814373999
-4.150453955901427
-4.150453955901427
-4.052796215762569
-4.443427176317998
-6.103608758678568
-7.373159380483711
-7.959105821316854
-7.568474860761425
-4.931715877012284
-0.24414435034714274
6.103608758678568
11.279468986037996
13.81857022964828
12.74433508812085
7.470817120622568
1.416037232013428
-4.541084916456855
-10.302891584649425
-12.939650568398566
-10.400549324788281
-3.662165255207141
0.43945983062485694
-1.8066681925688564
-10.009918364232853
-21.43587396047913
-30.322728313115128
-35.010299839780274
-35.79156176089113
-33.545433737697415
-30.127412832837415
-26.61173418783856
-25.342183566033416
-25.830472266727703
-25.732814526588847
-22.90074006256199
-12.549019607843137
8.349736781872283
41.84634164950027
80.12817578393225
98.87846189059282
72.60852979324025
-0.04882887006942855
-82.56961928740368
-129.05470359349965
-124.75776302738994
-88.4290836957351
-51.80743114366369
-33.64309147783627
-33.838406958113985
-42.62760357061112
-48.584725719081405
-48.877698939497975
-45.75265125505455
-41.45571068894484
-36.86579690241855
-31.103990234225986
-27.49065384908827
-27.783627069504846
-29.9320973525597
-30.518043793392845
-26.807049668116274
-22.021820401312276
-18.11551079575799
-13.916227969787137
-7.861448081177996
1.3183794918745708
10.693522545204852
18.506141756313422
26.318760967421987
34.424353398947126
42.62760357061112
48.97535667963683
53.27229724574655
55.22545204852369
55.127794308384836
56.690318150606544
59.32707713435569
61.96383611810483
64.60059510185397
65.6748302433814
64.60059510185397
60.79194323643854
55.61608300907912
49.365987640192266
40.86976424811169
33.252460517280845
27.100022888532845
21.24055848020142
15.185778591592278
8.935683222705425
2.392614633401999
-6.787212939650568
-18.60379949645228
-30.908674753948272
-42.822919050888835
-50.53788052185855
-53.07698176546884
-50.928511482413974
-46.33859769588769
-42.62760357061112
-39.40489814602884
-36.475165941863125
-33.252460517280845
-30.127412832837415
-27.783627069504846
-24.072632944228275
-20.55695429922942
-17.82253757534142
-14.990463111314565
-11.767757686732281
-7.275501640344854
-2.392614633401999
2.392614633401999
6.005951018539712
6.494239719233997
5.810635538261997
4.541084916456855
3.9551384756237127
5.0293736171511405
5.615320057984283
5.71297779812314
5.71297779812314
6.982528419928283
7.568474860761425
4.443427176317998
0.04882887006942855
-3.8574807354848555
-6.884870679789426
-8.74036774242771
-10.009918364232853
-10.10757610437171
-10.205233844510566
-10.302891584649425
-10.498207064927138
-12.060730907148852
-13.525597009231708
-15.381094071869994
-17.82253757534142
-20.84992751964599
-24.853894865339132
-28.174258030060273
-31.494621194781413
-33.545433737697415
-32.86182955672541
-29.9320973525597
-24.65857938506142
-18.701457236591136
-11.670099946593423
-3.076218814373999
5.322346837567712
12.84199282825971
17.920195315480278
22.314793621728846
26.709391927977418
28.95551995117113
30.127412832837415
29.2484931715877
26.807049668116274
23.779659723811704
19.971007858396277
16.84596017395285
14.306858930342566
12.549019607843137
10.302891584649425
6.39658197909514
4.052796215762569
3.662165255207141
5.420004577706569
10.888838025482567
19.092088197146563
27.588311589227132
31.494621194781413
29.736781872281988
23.974975204089418
17.041275654230564
13.037308308537423
10.888838025482567
9.228656443121995
8.74036774242771
9.521629663538567
11.279468986037996
11.181811245899137
9.619287403677424
7.959105821316854
8.05676356145571
15.381094071869994
33.252460517280845
64.11230640115969
102.58945601586939
127.10154879072252
110.9880216678111
48.19409475852598
-27.68596932936599
-72.99916075379568
-74.5616845960174
-49.75661860074769
-24.65857938506142
-11.572442206454566
-8.642710002288853
-10.205233844510566
-10.986495765621424
-10.205233844510566
-8.154421301594567
-6.982528419928283
-8.349736781872283
-9.228656443121995
-8.545052262149996
-6.005951018539712
-2.392614633401999
0.14648661020828566
2.2949568932631417
4.052796215762569
6.884870679789426
10.302891584649425
11.963073167009995
13.720912489509422
15.088120851453422
16.16235599298085
17.334248874647134
17.724879835202564
16.650644693675137
12.549019607843137
7.373159380483711
3.076218814373999
-0.6347753109025711
-1.8066681925688564
-0.34180209048599985
3.076218814373999
7.666132600900283
10.693522545204852
10.595864805065995
6.884870679789426
3.36919203479057
1.6113527122911422
-2.0996414129854277
-7.763790341039139
-13.427939269092851
-15.47875181200885
-13.037308308537423
-8.935683222705425
-5.0293736171511405
-3.5645075150682843
-4.248111696040284
-5.908293278400855
-7.861448081177996
-6.6895551995117115
-3.076218814373999
1.6113527122911422
6.39658197909514
9.326314183260854
9.71694514381628
7.080186160067139
4.248111696040284
1.8066681925688564
-2.2949568932631417
-6.884870679789426
-11.963073167009995
-16.943617914091707
-21.24055848020142
-23.87731746395056
-24.267948424505988
-25.049210345616846
-26.318760967421987
-27.881284809643702
-29.834439612420844
-29.9320973525597
-28.66254673075456
-25.24452582589456
-19.58037689784085
-14.404516670481422
-11.670099946593423
-12.646677347981994
-14.306858930342566
-14.697489890897993
-14.209201190203707
-12.060730907148852
-10.009918364232853
-8.545052262149996
-7.275501640344854
-6.884870679789426
-6.787212939650568
-7.373159380483711
-7.275501640344854
-6.982528419928283
-7.763790341039139
-7.275501640344854
-5.420004577706569
-2.197299153124285
2.8809033340962844
9.521629663538567
17.52956435492485
24.65857938506142
31.00633249408713
34.91264209964141
33.64309147783627
28.564888990615703
21.63118944075685
14.404516670481422
6.201266498817426
-4.638742656595713
-16.650644693675137
-27.68596932936599
-33.545433737697415
-33.44777599755856
-30.71335927367056
-26.416418707560844
-22.21713588158999
-17.13893339436942
-10.10757610437171
-3.1738765545128556
2.0019836728465705
4.736400396734569
9.130998702983138
21.14290074006256
45.16670481422141
78.56565194171054
97.51125352864881
75.14763103685054
12.353704127565424
-54.346532387273975
-84.81574731059739
-72.90150301365682
-41.16273746852827
-15.47875181200885
-6.591897459372854
-8.935683222705425
-15.381094071869994
-19.971007858396277
-19.385061417563133
-15.185778591592278
-9.71694514381628
-6.39658197909514
-5.224689097428855
-6.39658197909514
-10.009918364232853
-12.549019607843137
-12.84199282825971
-9.912260624093996
-5.0293736171511405
-0.9277485313191425
2.197299153124285
4.248111696040284
6.39658197909514
7.568474860761425
6.201266498817426
5.224689097428855
5.127031357289998
6.298924238956283
8.74036774242771
11.181811245899137
13.037308308537423
12.646677347981994
11.08415350576028
9.81460288395514
9.521629663538567
12.646677347981994
16.84596017395285
19.287403677424276
19.385061417563133
18.017853055619135
16.943617914091707
14.892805371175708
12.549019607843137
9.81460288395514
6.39658197909514
4.345769436179141
2.68558785381857
0.6347753109025711
-1.7090104524299992
-4.345769436179141
-6.201266498817426
-8.05676356145571
-8.935683222705425
-9.228656443121995
-10.009918364232853
-10.009918364232853
-10.009918364232853
-9.521629663538567
-7.568474860761425
-4.736400396734569
-2.2949568932631417
-2.2949568932631417
-2.783245593957427
-2.68558785381857
-2.9785610742351416
-2.490272373540856
-1.6113527122911422
-0.24414435034714274
1.9043259327077133
3.8574807354848555
4.638742656595713
3.2715342946517127
2.392614633401999
3.2715342946517127
4.638742656595713
6.591897459372854
7.373159380483711
7.177843900205997
7.568474860761425
9.033340962844282
11.572442206454566
12.84199282825971
13.232623788815136
12.060730907148852
7.959105821316854
3.466849774929427
0.537117570763714
0.43945983062485694
3.076218814373999
6.787212939650568
10.498207064927138
12.549019607843137
13.81857022964828
14.404516670481422
12.84199282825971
10.595864805065995
7.373159380483711
2.392614633401999
-5.71297779812314
-17.627222095063708
-30.420386053253985
-41.358052948805984
-47.11985961699855
-48.19409475852598
-47.80346379797055
-45.362020294499125
-40.57679102769512
-32.764171816586554
-24.17029068436713
-18.11551079575799
-14.209201190203707
-11.181811245899137
-6.591897459372854
0.6347753109025711
14.013885709925994
41.065079728389414
75.04997329671168
90.57755397878996
63.91699092088197
2.9785610742351416
-52.588693064774546
-71.24132143129626
-52.588693064774546
-21.826504921034562
-2.197299153124285
2.392614633401999
-2.0996414129854277
-6.884870679789426
-6.591897459372854
-2.783245593957427
0.8300907911802854
1.513694972152285
1.7090104524299992
2.9785610742351416
4.541084916456855
7.763790341039139
10.986495765621424
13.330281528953995
14.599832150759136
14.306858930342566
13.13496604867628
11.181811245899137
10.595864805065995
11.279468986037996
11.670099946593423
13.232623788815136
14.990463111314565
16.45532921339742
17.82253757534142
18.11551079575799
17.041275654230564
13.916227969787137
11.963073167009995
12.060730907148852
12.549019607843137
14.306858930342566
16.260013733119706
17.82253757534142
18.40848401617456
17.52956435492485
16.16235599298085
13.916227969787137
12.74433508812085
12.158388647287708
10.10757610437171
7.666132600900283
4.931715877012284
2.197299153124285
-0.6347753109025711
-4.248111696040284
-7.959105821316854
-13.232623788815136
-18.11551079575799
-21.338216220340275
-22.803082322423133
-21.14290074006256
-19.287403677424276
-19.092088197146563
-20.068665598535134
-20.263981078812847
-19.092088197146563
-19.092088197146563
-19.385061417563133
-18.994430457007706
-17.627222095063708
-14.209201190203707
-10.400549324788281
-6.494239719233997
-2.392614633401999
1.1230640115968566
3.9551384756237127
4.931715877012284
5.810635538261997
6.201266498817426
4.736400396734569
3.1738765545128556
1.8066681925688564
1.513694972152285
2.392614633401999
4.052796215762569
6.494239719233997
7.959105821316854
8.44739452201114
6.787212939650568
2.2949568932631417
-1.416037232013428
-3.1738765545128556
-2.197299153124285
0.6347753109025711
5.0293736171511405
11.377126726176853
18.506141756313422
26.123445487144274
31.68993667505913
31.494621194781413
26.90470740825513
19.971007858396277
12.939650568398566
4.931715877012284
-5.615320057984283
-18.11551079575799
-31.00633249408713
-39.893186846723125
-42.43228809033341
-39.99084458686198
-33.93606469825284
-27.881284809643702
-22.510109102006563
-17.627222095063708
-13.330281528953995
-9.81460288395514
-8.154421301594567
-5.615320057984283
0.34180209048599985
14.013885709925994
42.04165712977798
75.9288929579614
90.96818493934539
65.57717250324254
7.861448081177996
-45.16670481422141
-64.69825284199283
-49.75661860074769
-22.803082322423133
-5.0293736171511405
-0.43945983062485694
-4.345769436179141
-8.545052262149996
-8.349736781872283
-4.834058136873426
-0.9277485313191425
0.7324330510414282
1.8066681925688564
2.68558785381857
2.5879301136797133
3.36919203479057
3.8574807354848555
3.8574807354848555
3.8574807354848555
4.931715877012284
7.568474860761425
8.935683222705425
8.642710002288853
6.494239719233997
3.8574807354848555
3.9551384756237127
5.908293278400855
7.763790341039139
8.935683222705425
8.838025482566568
7.470817120622568
4.150453955901427
2.0019836728465705
1.8066681925688564
1.2207217517357138
0.9277485313191425
0.8300907911802854
2.0996414129854277
4.931715877012284
7.959105821316854
10.009918364232853
9.42397192339971
8.05676356145571
6.6895551995117115
3.5645075150682843
-0.8300907911802854
-5.908293278400855
-8.935683222705425
-8.642710002288853
-7.275501640344854
-7.373159380483711
-11.377126726176853
-16.260013733119706
-19.678034637979707
-22.314793621728846
-23.19371328297856
-22.412451361867703
-17.920195315480278
-9.619287403677424
-0.6347753109025711
5.71297779812314
6.298924238956283
2.783245593957427
-2.490272373540856
-7.470817120622568
-8.154421301594567
-6.103608758678568
-3.8574807354848555
-3.8574807354848555
-5.71297779812314
-6.982528419928283
-8.05676356145571
-8.545052262149996
-8.74036774242771
-9.033340962844282
-7.373159380483711
-5.0293736171511405
-2.8809033340962844
-1.1230640115968566
0.04882887006942855
2.0019836728465705
3.466849774929427
6.005951018539712
8.838025482566568
9.912260624093996
10.205233844510566
9.912260624093996
10.498207064927138
13.525597009231708
18.994430457007706
24.853894865339132
27.1976806286717
27.881284809643702
29.2484931715877
31.201647974364842
32.6665140764477
30.908674753948272
25.049210345616846
14.599832150759136
0.34180209048599985
-14.50217441062028
-27.881284809643702
-35.889219501029984
-38.525978484779124
-38.33066300450141
-35.889219501029984
-32.471198596169984
-27.97894254978256
-23.096055542839704
-18.799114976729992
-14.697489890897993
-11.47478446631571
-7.373159380483711
-1.513694972152285
9.326314183260854
34.61966887922484
72.60852979324025
100.63630121309224
87.64782177462425
28.760204470893417
-41.943999389639124
-83.74151216906996
-81.49538414587624
-52.881666285191116
-24.4632639047837
-8.252079041733426
-4.638742656595713
-6.591897459372854
-7.080186160067139
-3.8574807354848555
1.3183794918745708
5.420004577706569
9.228656443121995
11.865415426871138
10.888838025482567
7.763790341039139
3.7598229953459983
1.9043259327077133
3.7598229953459983
7.470817120622568
10.10757610437171
9.130998702983138
7.568474860761425
6.591897459372854
5.322346837567712
5.127031357289998
6.005951018539712
7.568474860761425
8.252079041733426
8.252079041733426
9.42397192339971
11.963073167009995
16.16235599298085
18.017853055619135
14.697489890897993
10.10757610437171
7.568474860761425
8.545052262149996
10.693522545204852
11.865415426871138
11.767757686732281
9.71694514381628
8.545052262149996
8.838025482566568
9.326314183260854
10.10757610437171
9.42397192339971
7.470817120622568
4.443427176317998
0.43945983062485694
-4.541084916456855
-12.353704127565424
-19.775692378118563
-23.87731746395056
-24.4632639047837
-21.92416266117342
-19.48271915770199
-17.724879835202564
-15.381094071869994
-11.767757686732281
-8.252079041733426
-8.349736781872283
-10.79118028534371
-12.939650568398566
-13.232623788815136
-10.009918364232853
-5.908293278400855
-2.2949568932631417
0.24414435034714274
1.6113527122911422
2.2949568932631417
2.0019836728465705
3.662165255207141
6.884870679789426
8.44739452201114
7.568474860761425
3.8574807354848555
-0.24414435034714274
-2.68558785381857
-2.197299153124285
0.537117570763714
2.0019836728465705
1.7090104524299992
-0.8300907911802854
-5.127031357289998
-6.787212939650568
-4.834058136873426
0.04882887006942855
4.150453955901427
5.322346837567712
4.150453955901427
0.9277485313191425
-0.9277485313191425
-0.9277485313191425
0.04882887006942855
2.5879301136797133
4.834058136873426
6.787212939650568
8.44739452201114
9.619287403677424
9.619287403677424
6.787212939650568
4.248111696040284
3.1738765545128556
2.0019836728465705
0.537117570763714
-1.3183794918745708
-2.0019836728465705
-0.7324330510414282
1.1230640115968566
1.7090104524299992
-1.513694972152285
-6.005951018539712
-9.42397192339971
-11.08415350576028
-9.521629663538567
-5.908293278400855
-1.0254062714579995
2.783245593957427
3.8574807354848555
2.0019836728465705
-2.197299153124285
-4.345769436179141
-4.052796215762569
-3.5645075150682843
-2.783245593957427
-2.392614633401999
-1.6113527122911422
-0.7324330510414282
0.04882887006942855
0.6347753109025711
-0.34180209048599985
-2.0019836728465705
-3.8574807354848555
-5.615320057984283
-4.736400396734569
-0.34180209048599985
8.154421301594567
18.40848401617456
25.92813000686656
27.392996108949415
22.119478141451133
15.869382772564279
11.47478446631571
7.763790341039139
2.9785610742351416
-4.541084916456855
-12.84199282825971
-19.18974593728542
-21.533531700617992
-19.385061417563133
-16.16235599298085
-12.84199282825971
-9.71694514381628
-4.541084916456855
10.595864805065995
40.479133287556266
77.19844357976653
95.36278324559396
71.53429465171283
9.033340962844282
-59.22941939421683
-94.87449454489968
-88.23376821545739
-59.13176165407798
-30.518043793392845
-14.599832150759136
-10.10757610437171
-11.08415350576028
-11.963073167009995
-10.79118028534371
-9.326314183260854
-6.787212939650568
-3.7598229953459983
-1.7090104524299992
-0.34180209048599985
-0.14648661020828566
0.6347753109025711
2.9785610742351416
6.201266498817426
8.642710002288853
8.05676356145571
7.275501640344854
6.787212939650568
5.908293278400855
5.71297779812314
6.005951018539712
7.666132600900283
10.205233844510566
13.037308308537423
14.892805371175708
13.720912489509422
12.158388647287708
11.865415426871138
12.256046387426567
13.330281528953995
13.330281528953995
12.84199282825971
12.646677347981994
13.232623788815136
13.427939269092851
10.009918364232853
5.127031357289998
1.3183794918745708
-0.537117570763714
0.04882887006942855
1.3183794918745708
2.68558785381857
3.36919203479057
3.466849774929427
2.9785610742351416
0.537117570763714
-1.1230640115968566
-1.6113527122911422
-2.0996414129854277
-2.8809033340962844
-5.71297779812314
-9.619287403677424
-13.330281528953995
-14.892805371175708
-13.81857022964828
-13.720912489509422
-14.892805371175708
-17.13893339436942
-18.506141756313422
-15.869382772564279
-10.693522545204852
-5.420004577706569
-1.9043259327077133
0.04882887006942855
0.9277485313191425
0.04882887006942855
-0.04882887006942855
0.24414435034714274
0.04882887006942855
-0.537117570763714
-1.416037232013428
-0.537117570763714
1.9043259327077133
5.517662317845426
8.44739452201114
7.373159380483711
3.9551384756237127
-0.14648661020828566
-3.36919203479057
-3.662165255207141
-2.68558785381857
-1.7090104524299992
-1.416037232013428
-0.9277485313191425
0.04882887006942855
0.04882887006942855
0.6347753109025711
2.0019836728465705
3.36919203479057
5.517662317845426
7.275501640344854
8.545052262149996
8.642710002288853
7.763790341039139
6.494239719233997
4.150453955901427
2.68558785381857
1.0254062714579995
-2.783245593957427
-7.373159380483711
-10.205233844510566
-8.44739452201114
-3.076218814373999
2.0996414129854277
3.662165255207141
0.24414435034714274
-3.2715342946517127
-5.0293736171511405
-5.517662317845426
-4.150453955901427
-2.490272373540856
-1.7090104524299992
-2.68558785381857
-4.248111696040284
-4.541084916456855
-5.0293736171511405
-4.443427176317998
-2.490272373540856
0.6347753109025711
5.615320057984283
9.326314183260854
10.009918364232853
7.861448081177996
5.0293736171511405
2.68558785381857
-0.34180209048599985
-2.2949568932631417
-2.68558785381857
-2.392614633401999
-0.9277485313191425
0.14648661020828566
0.6347753109025711
0.6347753109025711
2.0996414129854277
7.177843900205997
16.943617914091707
38.42832074464027
70.26474402990769
90.96818493934539
73.09681849393453
13.037308308537423
-56.006713969634546
-94.97215228503853
-91.74944686045625
-64.9912260624094
-41.16273746852827
-29.9320973525597
-28.564888990615703
-30.420386053253985
-29.053177691309987
-23.682001983672848
-15.283436331731137
-6.6895551995117115
0.04882887006942855
4.638742656595713
6.787212939650568
9.326314183260854
11.865415426871138
12.158388647287708
11.279468986037996
9.81460288395514
9.81460288395514
11.47478446631571
14.795147631036851
18.017853055619135
18.506141756313422
18.017853055619135
16.84596017395285
14.50217441062028
12.74433508812085
11.670099946593423
11.181811245899137
10.10757610437171
9.130998702983138
9.130998702983138
8.642710002288853
9.033340962844282
9.326314183260854
8.74036774242771
8.349736781872283
8.252079041733426
9.228656443121995
10.888838025482567
12.84199282825971
14.11154345006485
12.256046387426567
9.326314183260854
6.201266498817426
2.2949568932631417
-1.513694972152285
-5.810635538261997
-9.326314183260854
-11.279468986037996
-11.279468986037996
-10.79118028534371
-13.525597009231708
-17.82253757534142
-21.533531700617992
-22.60776684214542
-19.678034637979707
-15.47875181200885
-12.158388647287708
-10.498207064927138
-9.033340962844282
-7.470817120622568
-7.568474860761425
-7.275501640344854
-5.810635538261997
-2.783245593957427
2.5879301136797133
7.568474860761425
10.009918364232853
9.228656443121995
7.177843900205997
5.517662317845426
3.662165255207141
3.7598229953459983
5.420004577706569
7.080186160067139
9.130998702983138
10.79118028534371
11.670099946593423
10.400549324788281
7.177843900205997
2.8809033340962844
-2.783245593957427
-7.275501640344854
-10.10757610437171
-11.181811245899137
-9.81460288395514
-6.884870679789426
-3.662165255207141
-2.5879301136797133
-4.052796215762569
-6.787212939650568
-10.205233844510566
-11.181811245899137
-10.205233844510566
-9.619287403677424
-9.228656443121995
-9.81460288395514
-10.693522545204852
-12.353704127565424
-13.427939269092851
-12.646677347981994
-12.060730907148852
-11.181811245899137
-11.572442206454566
-13.427939269092851
-14.50217441062028
-14.209201190203707
-11.670099946593423
-7.666132600900283
-3.466849774929427
-0.6347753109025711
-1.3183794918745708
-2.8809033340962844
-3.7598229953459983
-3.662165255207141
-0.8300907911802854
3.8574807354848555
9.228656443121995
11.865415426871138
11.181811245899137
8.154421301594567
3.1738765545128556
-1.416037232013428
-6.6895551995117115
-14.697489890897993
-24.95155260547799
-35.10795757991913
-40.96742198825055
-42.529945830472265
-39.600213626306555
-32.95948729686427
-26.90470740825513
-23.096055542839704
-21.63118944075685
-21.045242999923705
-18.11551079575799
-10.400549324788281
6.005951018539712
34.0337224383917
70.94834821087969
97.02296482795452
82.47196154726483
24.267948424505988
-44.97138933394369
-81.98367284657053
-71.53429465171283
-35.20561532005799
-2.490272373540856
11.865415426871138
12.84199282825971
10.400549324788281
9.033340962844282
11.670099946593423
16.16235599298085
20.16632333867399
24.4632639047837
29.053177691309987
34.424353398947126
39.600213626306555
43.21355001144427
43.604180971999696
39.79552910658427
35.20561532005799
30.22507057297627
24.560921644922562
21.14290074006256
20.947585259784848
22.998397802700847
23.291371023117417
19.775692378118563
13.427939269092851
6.494239719233997
4.248111696040284
5.615320057984283
5.908293278400855
4.345769436179141
2.392614633401999
2.9785610742351416
5.908293278400855
10.400549324788281
13.720912489509422
13.13496604867628
11.865415426871138
11.572442206454566
11.279468986037996
10.400549324788281
8.838025482566568
8.349736781872283
8.935683222705425
10.10757610437171
10.986495765621424
10.400549324788281
11.08415350576028
10.986495765621424
6.005951018539712
-2.392614633401999
-9.130998702983138
-9.42397192339971
-5.517662317845426
-1.6113527122911422
-1.1230640115968566
-4.638742656595713
-7.275501640344854
-7.373159380483711
-6.494239719233997
-4.345769436179141
-0.14648661020828566
6.201266498817426
9.619287403677424
6.982528419928283
0.14648661020828566
-6.39658197909514
-7.373159380483711
-4.052796215762569
-0.537117570763714
1.2207217517357138
0.14648661020828566
-3.2715342946517127
-8.05676356145571
-10.79118028534371
-11.08415350576028
-12.646677347981994
-14.404516670481422
-15.283436331731137
-13.427939269092851
-7.177843900205997
0.34180209048599985
4.931715877012284
3.1738765545128556
-0.34180209048599985
-1.513694972152285
-2.68558785381857
-5.0293736171511405
-8.44739452201114
-10.888838025482567
-9.521629663538567
-4.443427176317998
2.8809033340962844
6.982528419928283
4.736400396734569
-2.197299153124285
-9.42397192339971
-10.205233844510566
-5.420004577706569
-0.04882887006942855
1.7090104524299992
-1.2207217517357138
-4.834058136873426
-5.908293278400855
-3.9551384756237127
-2.197299153124285
-3.5645075150682843
-4.345769436179141
-3.2715342946517127
-1.8066681925688564
-0.7324330510414282
-1.2207217517357138
-3.5645075150682843
-8.154421301594567
-12.45136186770428
-14.795147631036851
-15.967040512703136
-13.81857022964828
-8.44739452201114
-2.0996414129854277
3.662165255207141
8.154421301594567
12.646677347981994
16.45532921339742
19.18974593728542
19.287403677424276
14.795147631036851
9.130998702983138
4.541084916456855
2.68558785381857
5.71297779812314
11.572442206454566
17.041275654230564
18.701457236591136
18.40848401617456
18.701457236591136
21.045242999923705
31.2993057145037
55.713740749217976
93.8979171435111
130.61722743572136
136.96498054474708
90.38223849851225
-1.0254062714579995
-89.21034561684596
-126.32028686961166
-107.66765850308995
-62.84275577935454
-25.732814526588847
-10.400549324788281
-10.498207064927138
-14.50217441062028
-14.404516670481422
-10.498207064927138
-5.0293736171511405
-0.04882887006942855
3.076218814373999
6.494239719233997
9.912260624093996
13.037308308537423
16.84596017395285
18.89677271686885
17.627222095063708
13.623254749370565
10.986495765621424
10.595864805065995
9.326314183260854
7.666132600900283
6.298924238956283
5.420004577706569
5.810635538261997
7.666132600900283
10.498207064927138
11.377126726176853
10.498207064927138
9.033340962844282
6.787212939650568
6.6895551995117115
8.642710002288853
11.572442206454566
15.381094071869994
20.361638818951704
26.318760967421987
31.2993057145037
36.0845349813077
40.186160067139696
39.893186846723125
36.67048142214084
33.05714503700313
29.9320973525597
27.588311589227132
25.732814526588847
22.412451361867703
12.74433508812085
-2.392614633401999
-19.58037689784085
-36.768139162279695
-50.34256504158083
-59.42473487449455
-65.77248798352025
-70.4600595101854
-73.87808041504539
-74.46402685587854
-72.80384527351796
-69.67879758907453
-66.26077668421455
-63.526359960326545
-59.522392614633404
-54.639505607690545
-47.51049057755398
-36.57282368200198
-24.365606164644845
-13.623254749370565
-5.71297779812314
-0.43945983062485694
0.43945983062485694
-3.1738765545128556
-6.298924238956283
-7.470817120622568
-7.373159380483711
-6.787212939650568
-7.275501640344854
-7.959105821316854
-8.05676356145571
-6.982528419928283
-9.228656443121995
-20.45929655909056
-36.67048142214084
-50.14724956130312
-56.006713969634546
-54.346532387273975
-47.11985961699855
-34.61966887922484
-20.654612039368278
-8.545052262149996
-0.34180209048599985
1.8066681925688564
1.513694972152285
1.8066681925688564
3.9551384756237127
6.39658197909514
7.666132600900283
10.595864805065995
15.088120851453422
19.18974593728542
21.826504921034562
24.560921644922562
30.420386053253985
35.69390402075227
37.256427862973986
36.57282368200198
34.131380178530556
29.346150911726557
21.63118944075685
14.50217441062028
11.08415350576028
12.060730907148852
18.017853055619135
23.682001983672848
25.537499046311133
25.63515678644999
25.63515678644999
25.342183566033416
22.21713588158999
15.088120851453422
2.5879301136797133
-13.623254749370565
-25.830472266727703
-30.811017013809415
-30.22507057297627
-26.416418707560844
-21.728847180895706
-17.627222095063708
-15.088120851453422
-12.939650568398566
-11.377126726176853
-11.08415350576028
-7.373159380483711
4.248111696040284
29.150835431448844
70.36240177004655
116.55451285572595
137.1602960250248
100.14801251239795
10.693522545204852
-83.74151216906996
-132.47272449835967
-119.28892957961395
-72.21789883268482
-29.443808651865414
-9.326314183260854
-8.642710002288853
-14.990463111314565
-20.84992751964599
-22.998397802700847
-22.998397802700847
-23.682001983672848
-23.291371023117417
-21.63118944075685
-19.092088197146563
-16.260013733119706
-14.013885709925994
-11.377126726176853
-8.642710002288853
-5.517662317845426
-3.662165255207141
-4.931715877012284
-6.201266498817426
-5.71297779812314
-2.490272373540856
3.36919203479057
9.033340962844282
12.353704127565424
12.549019607843137
12.549019607843137
13.232623788815136
13.037308308537423
13.427939269092851
14.11154345006485
15.381094071869994
18.40848401617456
22.21713588158999
25.537499046311133
27.1976806286717
28.95551995117113
29.9320973525597
27.392996108949415
23.19371328297856
18.89677271686885
16.064698252841993
15.576409552147707
15.674067292286564
14.306858930342566
9.130998702983138
2.490272373540856
-4.052796215762569
-11.572442206454566
-18.701457236591136
-25.049210345616846
-28.66254673075456
-27.783627069504846
-25.146868085755703
-23.19371328297856
-23.389028763256274
-23.096055542839704
-21.338216220340275
-20.16632333867399
-18.11551079575799
-15.771725032425422
-13.330281528953995
-10.79118028534371
-9.130998702983138
-8.838025482566568
-10.693522545204852
-11.865415426871138
-11.08415350576028
-9.521629663538567
-6.591897459372854
-2.9785610742351416
1.6113527122911422
6.787212939650568
10.10757610437171
10.986495765621424
9.130998702983138
7.177843900205997
5.71297779812314
4.150453955901427
5.224689097428855
8.252079041733426
11.670099946593423
14.697489890897993
15.576409552147707
14.50217441062028
12.060730907148852
12.158388647287708
15.381094071869994
19.58037689784085
26.025787747005417
33.252460517280845
39.11192492561227
42.13931486991684
40.479133287556266
33.93606469825284
22.90074006256199
10.79118028534371
-1.7090104524299992
-17.13893339436942
-31.9829098954757
-42.822919050888835
-46.43625543602655
-42.43228809033341
-34.22903791866941
-25.92813000686656
-20.84992751964599
-17.724879835202564
-15.47875181200885
-14.50217441062028
-13.525597009231708
-11.670099946593423
-2.490272373540856
24.756237125200276
74.07339589532312
128.07812619211109
146.9260700389105
102.98008697642481
9.326314183260854
-83.74151216906996
-126.61326009002823
-111.47631036850538
-66.74906538490883
-25.732814526588847
-5.127031357289998
-3.1738765545128556
-10.595864805065995
-16.16235599298085
-15.47875181200885
-10.79118028534371
-4.052796215762569
0.9277485313191425
3.662165255207141
6.103608758678568
8.44739452201114
9.81460288395514
9.71694514381628
11.963073167009995
16.260013733119706
17.724879835202564
15.869382772564279
12.939650568398566
12.549019607843137
15.576409552147707
20.16632333867399
23.974975204089418
23.974975204089418
21.533531700617992
17.724879835202564
14.013885709925994
13.232623788815136
14.306858930342566
15.185778591592278
16.064698252841993
16.84596017395285
16.45532921339742
12.549019607843137
8.252079041733426
6.005951018539712
4.248111696040284
3.1738765545128556
2.197299153124285
2.0019836728465705
3.076218814373999
5.0293736171511405
7.861448081177996
8.838025482566568
6.787212939650568
-1.416037232013428
-17.041275654230564
-33.15480277714199
-43.604180971999696
-46.72922865644312
-45.654993514915695
-43.79949645227741
-41.16273746852827
-38.1353475242237
-33.93606469825284
-28.760204470893417
-22.705424582284277
-13.427939269092851
-3.9551384756237127
2.490272373540856
5.71297779812314
7.568474860761425
10.595864805065995
15.088120851453422
21.63118944075685
27.49065384908827
28.857862211032273
27.783627069504846
25.342183566033416
22.60776684214542
20.654612039368278
18.701457236591136
15.674067292286564
9.619287403677424
3.5645075150682843
-0.7324330510414282
-4.541084916456855
-7.080186160067139
-9.033340962844282
-9.326314183260854
-6.201266498817426
0.04882887006942855
7.470817120622568
12.549019607843137
15.47875181200885
17.236591134508277
18.11551079575799
20.947585259784848
24.95155260547799
27.588311589227132
26.709391927977418
22.021820401312276
13.427939269092851
-0.43945983062485694
-16.45532921339742
-30.22507057297627
-39.307240405889985
-41.5533684290837
-39.600213626306555
-35.79156176089113
-30.811017013809415
-24.95155260547799
-18.799114976729992
-14.795147631036851
-12.646677347981994
-12.256046387426567
-12.549019607843137
-6.787212939650568
11.572442206454566
46.14328221560998
86.47592889295797
105.81216144045166
78.95628290226597
8.154421301594567
-65.8701457236591
-101.41756313420309
-89.99160753795681
-53.95590142671855
-22.60776684214542
-8.154421301594567
-6.201266498817426
-8.05676356145571
-8.74036774242771
-8.74036774242771
-7.861448081177996
-6.982528419928283
-6.6895551995117115
-4.345769436179141
-1.416037232013428
0.537117570763714
1.6113527122911422
2.68558785381857
5.810635538261997
10.10757610437171
15.576409552147707
19.287403677424276
18.40848401617456
15.967040512703136
14.013885709925994
14.599832150759136
17.627222095063708
20.84992751964599
22.510109102006563
21.728847180895706
21.92416266117342
22.90074006256199
22.021820401312276
19.971007858396277
16.357671473258563
11.865415426871138
7.470817120622568
4.150453955901427
1.6113527122911422
-2.68558785381857
-7.177843900205997
-10.10757610437171
-11.377126726176853
-9.71694514381628
-7.080186160067139
-5.224689097428855
-4.541084916456855
-4.736400396734569
-4.931715877012284
-6.005951018539712
-6.6895551995117115
-7.568474860761425
-10.10757610437171
-11.963073167009995
-12.158388647287708
-9.326314183260854
-3.662165255207141
2.5879301136797133
7.959105821316854
10.498207064927138
12.45136186770428
13.916227969787137
13.623254749370565
13.916227969787137
15.283436331731137
17.52956435492485
20.263981078812847
22.510109102006563
23.291371023117417
20.84992751964599
17.82253757534142
15.771725032425422
14.306858930342566
15.185778591592278
17.13893339436942
18.89677271686885
19.87335011825742
20.947585259784848
23.682001983672848
26.709391927977418
30.811017013809415
34.91264209964141
36.182192721446555
36.0845349813077
36.37750820172427
37.4517433432517
38.33066300450141
40.186160067139696
42.822919050888835
41.065079728389414
35.596246280613414
28.95551995117113
19.678034637979707
7.470817120622568
-5.810635538261997
-19.092088197146563
-34.424353398947126
-52.295719844357976
-69.67879758907453
-84.81574731059739
-94.09323262378882
-96.82764934767681
-95.2651255054551
-90.57755397878996
-85.30403601129167
-79.05394064240483
-71.8272678721294
-65.28419928282597
-60.8896009765774
-58.1551842526894
-51.123826962691695
-35.10795757991913
-5.810635538261997
37.4517433432517
75.14763103685054
74.17105363546197
19.678034637979707
-60.79194323643854
-116.94514381628137
-122.90226596475166
-89.89394979781795
-48.291752498664835
-19.678034637979707
-5.810635538261997
-0.43945983062485694
4.150453955901427
11.181811245899137
18.506141756313422
22.803082322423133
22.705424582284277
22.119478141451133
22.412451361867703
23.389028763256274
27.002365148393988
32.27588311589227
39.014267185473415
47.0222018768597
54.83482108796826
60.79194323643854
65.47951476310368
72.21789883268482
78.95628290226597
82.27664606698711
82.86259250782025
80.51880674448768
74.85465781643397
66.94438086518655
59.62005035477226
52.39337758449683
41.358052948805984
28.760204470893417
18.60379949645228
11.572442206454566
7.861448081177996
5.322346837567712
1.513694972152285
-4.834058136873426
-12.84199282825971
-21.43587396047913
-32.27588311589227
-42.822919050888835
-50.928511482413974
-56.59266041046769
-59.62005035477226
-62.061493858243686
-63.91699092088197
-65.57717250324254
-67.82330052643626
-71.04600595101854
-75.83123521782254
-79.44457160296025
-80.81177996490425
-80.51880674448768
-78.07736324101626
-75.04997329671168
-71.33897917143511
-67.43266956588083
-63.6240177004654
-59.13176165407798
-55.61608300907912
-52.002746623941405
-48.48706797894255
-46.14328221560998
-43.79949645227741
-40.86976424811169
-35.69390402075227
-28.857862211032273
-21.43587396047913
-13.916227969787137
-8.642710002288853
-2.783245593957427
4.052796215762569
10.400549324788281
17.041275654230564
23.682001983672848
30.029755092698558
35.79156176089113
41.358052948805984
46.533913176165406
50.34256504158083
54.932478828107115
59.22941939421683
60.987258716716255
62.2568093385214
63.6240177004654
67.0420386053254
73.87808041504539
81.5930418860151
85.40169375143053
81.88601510643167
74.17105363546197
63.6240177004654
51.80743114366369
40.57679102769512
27.783627069504846
13.330281528953995
-0.6347753109025711
-11.865415426871138
-18.701457236591136
-20.55695429922942
-16.16235599298085
-10.302891584649425
-7.373159380483711
-5.615320057984283
-4.345769436179141
-3.2715342946517127
-2.5879301136797133
-2.2949568932631417
0.9277485313191425
14.892805371175708
47.705806057831694
87.55016403448539
102.7847714961471
70.94834821087969
3.7598229953459983
-56.59266041046769
-76.31952391851682
-56.29968719005112
-23.291371023117417
-2.5879301136797133
1.8066681925688564
-2.9785610742351416
-9.033340962844282
-10.205233844510566
-8.05676356145571
-5.127031357289998
-2.0996414129854277
1.1230640115968566
4.150453955901427
5.810635538261997
8.545052262149996
10.595864805065995
9.228656443121995
6.591897459372854
5.127031357289998
6.103608758678568
8.74036774242771
11.670099946593423
13.623254749370565
13.232623788815136
13.13496604867628
13.037308308537423
11.670099946593423
10.595864805065995
9.912260624093996
8.545052262149996
4.443427176317998
-1.9043259327077133
-8.838025482566568
-15.967040512703136
-20.55695429922942
-21.826504921034562
-20.84992751964599
-17.13893339436942
-12.74433508812085
-8.349736781872283
-4.541084916456855
-0.8300907911802854
1.9043259327077133
2.2949568932631417
2.392614633401999
2.8809033340962844
3.662165255207141
5.322346837567712
5.615320057984283
4.736400396734569
3.8574807354848555
3.9551384756237127
3.076218814373999
-1.3183794918745708
-6.201266498817426
-9.521629663538567
-10.888838025482567
-9.521629663538567
-6.982528419928283
-4.931715877012284
-3.9551384756237127
-2.5879301136797133
-0.6347753109025711
-0.8300907911802854
-1.7090104524299992
-2.490272373540856
-3.36919203479057
-3.1738765545128556
-3.2715342946517127
-3.5645075150682843
-3.466849774929427
-2.392614633401999
-1.416037232013428
-3.466849774929427
-5.615320057984283
-7.080186160067139
-8.642710002288853
-9.81460288395514
-10.693522545204852
-10.888838025482567
-10.888838025482567
-10.205233844510566
-9.619287403677424
-11.963073167009995
-14.306858930342566
-13.81857022964828
-8.545052262149996
2.0019836728465705
13.623254749370565
22.412451361867703
25.63515678644999
23.682001983672848
18.21316853589685
10.302891584649425
2.783245593957427
-5.71297779812314
-17.43190661478599
-29.443808651865414
-38.72129396505684
-42.236972610055695
-40.96742198825055
-36.0845349813077
-29.63912413214313
-24.65857938506142
-20.068665598535134
-15.869382772564279
-12.353704127565424
-6.982528419928283
-0.04882887006942855
9.228656443121995
25.92813000686656
55.90905622949569
89.7962920576791
98.09719996948196
60.2059967956054
-11.279468986037996
-74.07339589532312
-91.65178912031739
-67.33501182574197
-31.396963454642556
-9.81460288395514
-5.127031357289998
-5.0293736171511405
-1.513694972152285
6.6895551995117115
13.330281528953995
14.209201190203707
13.232623788815136
13.232623788815136
14.892805371175708
17.13893339436942
20.55695429922942
25.146868085755703
28.467231250476843
31.2993057145037
32.37354085603113
31.592278934920273
32.08056763561456
33.44777599755856
33.838406958113985
32.37354085603113
31.2993057145037
31.201647974364842
28.760204470893417
25.24452582589456
22.021820401312276
19.678034637979707
19.87335011825742
21.43587396047913
22.119478141451133
20.16632333867399
18.017853055619135
16.260013733119706
10.595864805065995
2.2949568932631417
-5.420004577706569
-11.377126726176853
-14.599832150759136
-17.041275654230564
-20.16632333867399
-25.049210345616846
-30.127412832837415
-35.596246280613414
-44.97138933394369
-56.39734493018997
-65.77248798352025
-70.06942854962998
-68.99519340810254
-66.06546120393683
-62.45212481879911
-59.42473487449455
-56.7879758907454
-53.17463950560769
-47.51049057755398
-37.35408560311284
-25.830472266727703
-17.82253757534142
-13.81857022964828
-11.47478446631571
-6.982528419928283
-0.04882887006942855
7.373159380483711
12.353704127565424
13.037308308537423
13.720912489509422
14.697489890897993
14.404516670481422
13.81857022964828
13.330281528953995
13.427939269092851
14.306858930342566
16.45532921339742
17.920195315480278
15.967040512703136
13.81857022964828
12.939650568398566
12.74433508812085
12.646677347981994
10.888838025482567
8.44739452201114
7.666132600900283
10.205233844510566
12.74433508812085
10.302891584649425
5.127031357289998
0.7324330510414282
-0.6347753109025711
0.7324330510414282
1.6113527122911422
1.1230640115968566
0.9277485313191425
2.8809033340962844
5.517662317845426
6.103608758678568
6.591897459372854
7.177843900205997
6.982528419928283
8.05676356145571
10.400549324788281
13.330281528953995
15.088120851453422
16.16235599298085
16.650644693675137
15.381094071869994
14.11154345006485
12.939650568398566
12.256046387426567
13.232623788815136
13.623254749370565
12.256046387426567
9.326314183260854
7.666132600900283
6.591897459372854
2.0019836728465705
-4.541084916456855
-11.181811245899137
-15.576409552147707
-15.869382772564279
-13.427939269092851
-9.619287403677424
-6.005951018539712
-2.0019836728465705
1.9043259327077133
4.345769436179141
8.252079041733426
13.916227969787137
19.58037689784085
25.342183566033416
31.103990234225986
37.549401083390556
43.11589227130541
45.45967803463798
40.96742198825055
26.61173418783856
7.080186160067139
-12.256046387426567
-27.295338368810558
-34.22903791866941
-33.74074921797513
-28.760204470893417
-23.779659723811704
-19.678034637979707
-17.041275654230564
-17.43190661478599
-17.236591134508277
-14.599832150759136
-6.298924238956283
15.283436331731137
52.97932402532997
90.77286945906768
95.9487296864271
49.365987640192266
-30.811017013809415
-101.51522087434195
-126.12497138933395
-106.10513466086825
-68.01861600671397
-35.69390402075227
-18.60379949645228
-13.427939269092851
-13.720912489509422
-13.13496604867628
-10.205233844510566
-7.470817120622568
-4.248111696040284
-1.6113527122911422
0.7324330510414282
5.615320057984283
11.670099946593423
16.943617914091707
19.385061417563133
20.068665598535134
19.678034637979707
17.236591134508277
16.064698252841993
16.260013733119706
16.55298695353628
16.943617914091707
16.650644693675137
15.967040512703136
14.50217441062028
13.916227969787137
14.013885709925994
12.84199282825971
12.939650568398566
14.013885709925994
15.185778591592278
16.84596017395285
17.13893339436942
13.623254749370565
5.0293736171511405
-3.5645075150682843
-8.05676356145571
-9.912260624093996
-9.71694514381628
-9.228656443121995
-8.838025482566568
-7.568474860761425
-6.005951018539712
-4.931715877012284
-5.420004577706569
-5.71297779812314
-5.517662317845426
-6.39658197909514
-6.005951018539712
-4.736400396734569
-3.36919203479057
-2.0019836728465705
-1.416037232013428
-1.2207217517357138
-1.3183794918745708
-0.537117570763714
0.04882887006942855
-1.8066681925688564
-3.1738765545128556
-2.9785610742351416
-1.3183794918745708
1.416037232013428
3.662165255207141
4.736400396734569
3.8574807354848555
2.68558785381857
1.416037232013428
-0.7324330510414282
-1.416037232013428
-1.3183794918745708
-2.68558785381857
-5.0293736171511405
-7.080186160067139
-7.763790341039139
-8.935683222705425
-10.302891584649425
-12.060730907148852
-15.088120851453422
-16.260013733119706
-14.892805371175708
-12.158388647287708
-8.838025482566568
-6.787212939650568
-6.103608758678568
-7.861448081177996
-9.912260624093996
-10.693522545204852
-10.693522545204852
-8.349736781872283
-5.810635538261997
-4.638742656595713
-3.662165255207141
-2.5879301136797133
-0.537117570763714
1.513694972152285
4.052796215762569
5.908293278400855
5.420004577706569
5.810635538261997
7.470817120622568
9.521629663538567
12.060730907148852
14.404516670481422
16.748302433813993
17.920195315480278
18.701457236591136
18.11551079575799
14.013885709925994
9.71694514381628
7.080186160067139
6.103608758678568
6.201266498817426
5.517662317845426
2.8809033340962844
-2.490272373540856
-7.568474860761425
-10.595864805065995
-13.427939269092851
-14.795147631036851
-15.47875181200885
-16.064698252841993
-16.16235599298085
-16.357671473258563
-17.236591134508277
-20.84992751964599
-24.95155260547799
-26.61173418783856
-24.072632944228275
-15.381094071869994
-4.541084916456855
3.466849774929427
7.959105821316854
9.81460288395514
12.158388647287708
17.627222095063708
31.9829098954757
58.74113069352254
91.74944686045625
112.45288776989395
95.2651255054551
35.20561532005799
-37.256427862973986
-79.93286030365454
-75.83123521782254
-43.89715419241627
-12.060730907148852
3.466849774929427
2.783245593957427
-3.2715342946517127
-7.861448081177996
-9.71694514381628
-8.935683222705425
-6.6895551995117115
-3.076218814373999
-0.04882887006942855
2.2949568932631417
3.466849774929427
3.36919203479057
4.638742656595713
5.615320057984283
3.8574807354848555
0.14648661020828566
-2.8809033340962844
-4.345769436179141
-5.908293278400855
-6.982528419928283
-7.470817120622568
-9.130998702983138
-10.009918364232853
-9.521629663538567
-7.861448081177996
-5.517662317845426
-3.7598229953459983
-2.490272373540856
-2.490272373540856
-2.392614633401999
-1.513694972152285
-0.43945983062485694
2.490272373540856
6.201266498817426
8.838025482566568
10.693522545204852
11.572442206454566
11.865415426871138
10.498207064927138
8.545052262149996
6.103608758678568
2.9785610742351416
2.197299153124285
2.68558785381857
2.0996414129854277
0.04882887006942855
-2.783245593957427
-5.810635538261997
-9.619287403677424
-12.256046387426567
-13.623254749370565
-15.088120851453422
-14.892805371175708
-13.81857022964828
-12.45136186770428
-9.81460288395514
-5.517662317845426
-1.416037232013428
-0.8300907911802854
-2.9785610742351416
-5.71297779812314
-7.373159380483711
-5.127031357289998
-1.416037232013428
0.24414435034714274
-0.24414435034714274
-1.6113527122911422
-1.6113527122911422
-1.416037232013428
-0.43945983062485694
1.2207217517357138
3.1738765545128556
6.39658197909514
8.349736781872283
7.666132600900283
6.787212939650568
7.861448081177996
10.693522545204852
12.060730907148852
12.353704127565424
11.377126726176853
8.252079041733426
6.39658197909514
7.666132600900283
11.767757686732281
17.334248874647134
20.752269779507134
18.799114976729992
10.498207064927138
1.7090104524299992
-3.5645075150682843
-6.103608758678568
-5.71297779812314
-4.931715877012284
-5.420004577706569
-7.080186160067139
-8.349736781872283
-8.44739452201114
-8.838025482566568
-8.74036774242771
-8.154421301594567
-7.861448081177996
-5.127031357289998
-0.9277485313191425
2.197299153124285
2.9785610742351416
2.0019836728465705
1.2207217517357138
0.7324330510414282
2.0019836728465705
3.1738765545128556
0.8300907911802854
-2.8809033340962844
-6.884870679789426
-9.71694514381628
-10.400549324788281
-8.44739452201114
-3.9551384756237127
0.24414435034714274
3.2715342946517127
3.7598229953459983
0.43945983062485694
-3.5645075150682843
-7.666132600900283
-10.498207064927138
-10.009918364232853
-5.810635538261997
0.6347753109025711
5.810635538261997
9.326314183260854
10.498207064927138
9.619287403677424
12.353704127565424
23.48668650339513
47.0222018768597
80.42114900434882
104.1519798580911
90.2845807583734
29.541466392004274
-45.75265125505455
-90.47989623865111
-89.1126878767071
-58.74113069352254
-27.881284809643702
-11.670099946593423
-9.42397192339971
-14.209201190203707
-18.701457236591136
-19.678034637979707
-15.381094071869994
-9.130998702983138
-5.517662317845426
-3.8574807354848555
-4.052796215762569
-4.443427176317998
-2.5879301136797133
0.8300907911802854
3.9551384756237127
4.443427176317998
4.834058136873426
5.908293278400855
6.005951018539712
7.177843900205997
9.130998702983138
11.572442206454566
13.525597009231708
13.623254749370565
11.279468986037996
6.298924238956283
2.2949568932631417
0.537117570763714
-0.6347753109025711
-0.537117570763714
-0.14648661020828566
1.1230640115968566
3.9551384756237127
7.959105821316854
11.572442206454566
12.45136186770428
12.158388647287708
10.986495765621424
8.252079041733426
6.39658197909514
5.810635538261997
5.810635538261997
5.420004577706569
4.052796215762569
2.2949568932631417
-0.34180209048599985
-2.5879301136797133
-5.420004577706569
-10.595864805065995
-15.185778591592278
-17.724879835202564
-17.724879835202564
-15.869382772564279
-13.330281528953995
-10.498207064927138
-9.033340962844282
-7.568474860761425
-6.884870679789426
-8.05676356145571
-8.252079041733426
-7.080186160067139
-5.224689097428855
-2.9785610742351416
-0.14648661020828566
2.392614633401999
2.0019836728465705
-0.24414435034714274
-3.36919203479057
-6.494239719233997
-6.201266498817426
-2.490272373540856
3.1738765545128556
9.326314183260854
14.013885709925994
15.283436331731137
11.181811245899137
5.420004577706569
0.537117570763714
-3.36919203479057
-5.0293736171511405
-5.0293736171511405
-4.345769436179141
-3.9551384756237127
-5.0293736171511405
-7.080186160067139
-8.642710002288853
-5.908293278400855
-0.43945983062485694
2.0996414129854277
1.0254062714579995
-2.392614633401999
-4.638742656595713
-2.9785610742351416
1.0254062714579995
4.443427176317998
4.736400396734569
5.224689097428855
7.666132600900283
11.377126726176853
17.52956435492485
23.87731746395056
28.467231250476843
31.68993667505913
34.22903791866941
34.61966887922484
29.346150911726557
20.16632333867399
8.44739452201114
-5.908293278400855
-20.45929655909056
-32.178225375753414
-38.62363622491798
-40.38147554741741
-39.600213626306555
-36.86579690241855
-32.471198596169984
-24.65857938506142
-16.748302433813993
-13.720912489509422
-14.404516670481422
-15.771725032425422
-11.963073167009995
3.8574807354848555
36.182192721446555
77.88204776073853
102.7847714961471
84.62043183031967
21.045242999923705
-54.7371633478294
-97.02296482795452
-89.50331883726253
-52.19806210421912
-16.55298695353628
1.1230640115968566
3.2715342946517127
-1.2207217517357138
-4.052796215762569
-4.736400396734569
-7.080186160067139
-8.935683222705425
-6.982528419928283
-0.04882887006942855
8.44739452201114
13.525597009231708
12.939650568398566
8.545052262149996
6.39658197909514
7.177843900205997
7.080186160067139
5.71297779812314
3.2715342946517127
1.8066681925688564
3.2715342946517127
7.959105821316854
13.330281528953995
14.013885709925994
10.986495765621424
6.6895551995117115
3.466849774929427
4.150453955901427
6.982528419928283
9.81460288395514
11.670099946593423
13.037308308537423
13.720912489509422
12.256046387426567
11.47478446631571
11.47478446631571
10.205233844510566
9.033340962844282
8.74036774242771
9.326314183260854
9.81460288395514
9.619287403677424
7.861448081177996
2.68558785381857
-2.490272373540856
-5.517662317845426
-6.787212939650568
-6.884870679789426
-8.05676356145571
-10.302891584649425
-11.767757686732281
-11.572442206454566
-11.572442206454566
-15.088120851453422
-18.994430457007706
-21.24055848020142
-21.92416266117342
-19.678034637979707
-15.088120851453422
-8.838025482566568
-2.392614633401999
2.5879301136797133
4.931715877012284
3.36919203479057
1.513694972152285
1.0254062714579995
1.416037232013428
3.1738765545128556
4.248111696040284
4.052796215762569
2.9785610742351416
2.68558785381857
3.1738765545128556
2.0019836728465705
0.7324330510414282
-0.43945983062485694
-1.7090104524299992
-0.24414435034714274
3.2715342946517127
6.298924238956283
6.6895551995117115
4.834058136873426
2.197299153124285
-1.0254062714579995
-2.0996414129854277
-1.0254062714579995
-0.537117570763714
-0.14648661020828566
-0.537117570763714
-0.9277485313191425
-1.2207217517357138
-1.1230640115968566
-1.3183794918745708
-3.5645075150682843
-4.443427176317998
-3.2715342946517127
-1.416037232013428
0.8300907911802854
2.5879301136797133
3.466849774929427
3.36919203479057
3.076218814373999
3.076218814373999
2.0019836728465705
0.9277485313191425
-0.6347753109025711
-3.466849774929427
-5.0293736171511405
-5.224689097428855
-4.345769436179141
-2.2949568932631417
1.1230640115968566
4.150453955901427
3.662165255207141
2.0019836728465705
1.2207217517357138
0.8300907911802854
1.416037232013428
1.6113527122911422
1.8066681925688564
2.5879301136797133
4.443427176317998
5.810635538261997
4.541084916456855
4.248111696040284
6.787212939650568
11.47478446631571
18.310826276035705
23.87731746395056
25.146868085755703
22.21713588158999
17.920195315480278
13.427939269092851
5.224689097428855
-5.615320057984283
-17.82253757534142
-28.467231250476843
-33.3501182574197
-32.56885633630884
-27.588311589227132
-20.84992751964599
-14.209201190203707
-8.838025482566568
-3.8574807354848555
10.79118028534371
40.57679102769512
71.72961013199054
76.90547035934996
38.1353475242237
-27.68596932936599
-80.71412222476539
-91.55413138017853
-65.8701457236591
-31.396963454642556
-6.884870679789426
2.0996414129854277
0.04882887006942855
-4.541084916456855
-6.787212939650568
-5.71297779812314
-3.076218814373999
-0.537117570763714
0.04882887006942855
-1.9043259327077133
-2.0996414129854277
-0.04882887006942855
1.6113527122911422
3.2715342946517127
4.931715877012284
7.666132600900283
10.986495765621424
14.013885709925994
14.599832150759136
11.377126726176853
8.642710002288853
7.763790341039139
7.373159380483711
8.642710002288853
11.279468986037996
14.795147631036851
17.334248874647134
18.506141756313422
16.650644693675137
10.595864805065995
5.127031357289998
3.662165255207141
5.908293278400855
10.79118028534371
14.892805371175708
16.650644693675137
16.45532921339742
16.748302433813993
16.943617914091707
13.916227969787137
9.228656443121995
4.541084916456855
0.43945983062485694
-1.3183794918745708
-1.8066681925688564
-2.0996414129854277
-3.662165255207141
-6.005951018539712
-9.130998702983138
-13.623254749370565
-16.357671473258563
-17.43190661478599
-18.701457236591136
-19.385061417563133
-18.40848401617456
-14.599832150759136
-10.009918364232853
-6.982528419928283
-6.884870679789426
-9.326314183260854
-9.619287403677424
-7.763790341039139
-6.982528419928283
-6.884870679789426
-7.080186160067139
-6.298924238956283
-4.443427176317998
-1.7090104524299992
0.43945983062485694
0.04882887006942855
-0.8300907911802854
-2.0996414129854277
-4.345769436179141
-5.517662317845426
-4.638742656595713
-1.416037232013428
2.490272373540856
6.005951018539712
7.470817120622568
5.127031357289998
2.8809033340962844
1.416037232013428
-1.2207217517357138
-4.052796215762569
-5.810635538261997
-4.638742656595713
-1.513694972152285
1.7090104524299992
3.2715342946517127
1.7090104524299992
1.0254062714579995
1.6113527122911422
1.2207217517357138
0.24414435034714274
-0.537117570763714
-0.34180209048599985
0.04882887006942855
0.43945983062485694
0.6347753109025711
0.24414435034714274
2.197299153124285
4.931715877012284
4.443427176317998
1.1230640115968566
-2.68558785381857
-3.9551384756237127
-2.2949568932631417
1.416037232013428
3.7598229953459983
0.43945983062485694
-5.420004577706569
-10.400549324788281
-12.256046387426567
-10.009918364232853
-5.71297779812314
0.14648661020828566
7.177843900205997
14.013885709925994
16.748302433813993
11.670099946593423
3.1738765545128556
-4.443427176317998
-9.521629663538567
-10.498207064927138
-7.959105821316854
-3.2715342946517127
0.9277485313191425
3.076218814373999
2.2949568932631417
-0.7324330510414282
0.24414435034714274
8.838025482566568
27.295338368810558
58.44815747310597
92.72602426184481
102.7847714961471
64.3076218814374
-10.205233844510566
-76.31952391851682
-99.17143511100939
-78.27267872129397
-42.04165712977798
-15.283436331731137
-3.8574807354848555
-2.9785610742351416
-5.420004577706569
-6.591897459372854
-5.127031357289998
-3.466849774929427
-4.834058136873426
-5.908293278400855
-5.810635538261997
-5.810635538261997
-5.517662317845426
-5.224689097428855
-3.5645075150682843
-0.34180209048599985
3.466849774929427
5.127031357289998
2.392614633401999
0.43945983062485694
0.8300907911802854
2.0996414129854277
4.443427176317998
7.177843900205997
9.228656443121995
8.642710002288853
6.787212939650568
5.322346837567712
4.541084916456855
7.275501640344854
11.767757686732281
14.697489890897993
15.674067292286564
14.990463111314565
13.81857022964828
12.256046387426567
11.865415426871138
11.767757686732281
8.935683222705425
5.127031357289998
1.416037232013428
-1.416037232013428
-2.0996414129854277
-1.2207217517357138
0.43945983062485694
1.416037232013428
1.0254062714579995
-2.392614633401999
-10.693522545204852
-18.60379949645228
-22.90074006256199
-23.682001983672848
-21.826504921034562
-20.263981078812847
-19.678034637979707
-19.678034637979707
-17.82253757534142
-14.795147631036851
-14.11154345006485
-14.697489890897993
-15.869382772564279
-16.16235599298085
-13.232623788815136
-7.861448081177996
-1.513694972152285
3.662165255207141
7.666132600900283
9.130998702983138
5.908293278400855
2.2949568932631417
0.9277485313191425
1.8066681925688564
4.736400396734569
8.252079041733426
10.693522545204852
10.400549324788281
8.44739452201114
5.810635538261997
2.2949568932631417
1.1230640115968566
1.8066681925688564
2.68558785381857
4.052796215762569
4.736400396734569
3.9551384756237127
1.3183794918745708
-0.04882887006942855
0.34180209048599985
0.14648661020828566
0.34180209048599985
0.8300907911802854
1.7090104524299992
3.662165255207141
4.931715877012284
4.736400396734569
3.1738765545128556
2.68558785381857
3.2715342946517127
2.392614633401999
1.9043259327077133
1.513694972152285
0.24414435034714274
-0.7324330510414282
-0.8300907911802854
0.43945983062485694
0.9277485313191425
0.43945983062485694
-1.0254062714579995
-4.248111696040284
-6.201266498817426
-6.982528419928283
-6.884870679789426
-3.7598229953459983
2.8809033340962844
12.060730907148852
19.58037689784085
23.19371328297856
20.45929655909056
10.888838025482567
0.43945983062485694
-6.982528419928283
-10.400549324788281
-9.228656443121995
-5.224689097428855
0.04882887006942855
4.248111696040284
6.6895551995117115
6.005951018539712
1.7090104524299992
0.04882887006942855
6.39658197909514
25.146868085755703
57.66689555199512
91.1635004196231
97.70656900892652
56.20202944991226
-16.16235599298085
-75.14763103685054
-91.1635004196231
-68.50690470740825
-35.010299839780274
-12.646677347981994
-4.931715877012284
-6.298924238956283
-9.326314183260854
-10.595864805065995
-8.642710002288853
-6.494239719233997
-7.568474860761425
-8.642710002288853
-8.349736781872283
-6.6895551995117115
-3.8574807354848555
-1.0254062714579995
1.0254062714579995
2.0019836728465705
3.8574807354848555
6.005951018539712
5.322346837567712
3.5645075150682843
1.513694972152285
0.7324330510414282
2.8809033340962844
6.6895551995117115
9.326314183260854
7.861448081177996
4.736400396734569
2.197299153124285
0.43945983062485694
2.0996414129854277
4.931715877012284
4.931715877012284
2.392614633401999
0.04882887006942855
0.537117570763714
2.490272373540856
5.420004577706569
7.568474860761425
6.591897459372854
4.736400396734569
1.9043259327077133
-1.513694972152285
-3.2715342946517127
-2.0996414129854277
0.43945983062485694
0.24414435034714274
-2.68558785381857
-6.787212939650568
-10.79118028534371
-11.963073167009995
-12.84199282825971
-16.260013733119706
-20.654612039368278
-22.803082322423133
-22.021820401312276
-21.14290074006256
-20.45929655909056
-19.287403677424276
-17.627222095063708
-13.330281528953995
-8.349736781872283
-4.541084916456855
-0.537117570763714
4.443427176317998
9.912260624093996
12.646677347981994
13.13496604867628
11.963073167009995
9.033340962844282
8.05676356145571
9.033340962844282
10.498207064927138
11.47478446631571
10.595864805065995
8.74036774242771
7.080186160067139
8.154421301594567
9.228656443121995
5.908293278400855
1.1230640115968566
-2.0996414129854277
-2.5879301136797133
-0.04882887006942855
3.9551384756237127
7.763790341039139
8.838025482566568
7.861448081177996
4.834058136873426
-0.537117570763714
-3.8574807354848555
-3.466849774929427
-0.24414435034714274
4.052796215762569
8.252079041733426
13.13496604867628
18.60379949645228
25.92813000686656
33.15480277714199
36.37750820172427
35.98687724116884
32.08056763561456
25.146868085755703
15.576409552147707
3.1738765545128556
-11.572442206454566
-27.783627069504846
-39.893186846723125
-45.26436255436027
-45.75265125505455
-41.84634164950027
-37.06111238269627
-33.545433737697415
-29.834439612420844
-25.24452582589456
-20.16632333867399
-16.84596017395285
-12.84199282825971
-4.541084916456855
13.427939269092851
47.80346379797055
88.13611047531853
105.90981918059052
75.73357747768368
4.834058136873426
-66.74906538490883
-101.22224765392538
-89.40566109712367
-53.27229724574655
-20.55695429922942
-3.076218814373999
-1.0254062714579995
-6.591897459372854
-9.619287403677424
-6.103608758678568
0.24414435034714274
2.8809033340962844
2.0996414129854277
0.43945983062485694
-1.0254062714579995
0.04882887006942855
2.8809033340962844
5.908293278400855
8.642710002288853
10.205233844510566
9.81460288395514
7.177843900205997
6.005951018539712
7.177843900205997
8.642710002288853
10.986495765621424
12.256046387426567
11.377126726176853
9.912260624093996
9.912260624093996
12.74433508812085
16.260013733119706
19.18974593728542
18.994430457007706
14.599832150759136
11.181811245899137
11.377126726176853
14.013885709925994
16.748302433813993
17.627222095063708
15.967040512703136
11.670099946593423
8.838025482566568
7.568474860761425
3.9551384756237127
-0.7324330510414282
-4.541084916456855
-5.0293736171511405
-2.9785610742351416
-1.513694972152285
-2.8809033340962844
-7.275501640344854
-10.888838025482567
-12.353704127565424
-13.037308308537423
-12.060730907148852
-11.279468986037996
-11.767757686732281
-11.963073167009995
-10.10757610437171
-6.884870679789426
-5.322346837567712
-4.638742656595713
-4.736400396734569
-6.005951018539712
-6.298924238956283
-5.810635538261997
-4.736400396734569
-2.8809033340962844
-1.0254062714579995
-0.14648661020828566
-1.416037232013428
-1.7090104524299992
-0.6347753109025711
-1.1230640115968566
-2.0019836728465705
-3.076218814373999
-3.36919203479057
-2.2949568932631417
-0.43945983062485694
1.2207217517357138
1.3183794918745708
1.513694972152285
1.6113527122911422
0.537117570763714
0.7324330510414282
1.8066681925688564
3.466849774929427
6.6895551995117115
12.353704127565424
19.092088197146563
23.87731746395056
28.467231250476843
32.56885633630884
32.27588311589227
27.392996108949415
18.506141756313422
7.177843900205997
-5.127031357289998
-17.236591134508277
-27.100022888532845
-35.10795757991913
-39.11192492561227
-39.20958266575113
-36.67048142214084
-30.518043793392845
-23.682001983672848
-19.287403677424276
-17.724879835202564
-17.52956435492485
-16.16235599298085
-13.13496604867628
-3.466849774929427
17.627222095063708
50.928511482413974
85.98764019226367
96.14404516670481
61.768520637827116
-5.127031357289998
-65.08888380254825
-85.88998245212481
-68.31158922713054
-34.0337224383917
-6.6895551995117115
3.466849774929427
2.68558785381857
-1.513694972152285
-5.0293736171511405
-6.494239719233997
-6.201266498817426
-3.7598229953459983
-0.8300907911802854
2.0996414129854277
2.9785610742351416
0.24414435034714274
-1.1230640115968566
0.43945983062485694
4.541084916456855
9.033340962844282
12.353704127565424
14.013885709925994
13.81857022964828
13.720912489509422
12.646677347981994
8.838025482566568
5.517662317845426
4.052796215762569
4.736400396734569
6.982528419928283
10.009918364232853
12.646677347981994
12.939650568398566
13.330281528953995
14.404516670481422
14.599832150759136
14.50217441062028
13.13496604867628
11.08415350576028
9.81460288395514
10.009918364232853
10.400549324788281
8.74036774242771
7.275501640344854
6.591897459372854
5.615320057984283
5.224689097428855
4.052796215762569
0.6347753109025711
-4.638742656595713
-9.42397192339971
-11.963073167009995
-14.50217441062028
-16.16235599298085
-17.334248874647134
-19.287403677424276
-19.775692378118563
-18.994430457007706
-17.52956435492485
-15.967040512703136
-13.720912489509422
-10.888838025482567
-8.838025482566568
-6.201266498817426
-3.7598229953459983
-3.662165255207141
-3.7598229953459983
-3.076218814373999
-1.416037232013428
0.9277485313191425
3.662165255207141
5.71297779812314
5.420004577706569
4.931715877012284
3.9551384756237127
1.3183794918745708
-0.43945983062485694
-1.3183794918745708
-1.9043259327077133
-2.392614633401999
-2.197299153124285
-1.0254062714579995
-0.34180209048599985
1.8066681925688564
5.322346837567712
8.935683222705425
14.795147631036851
22.314793621728846
29.443808651865414
33.93606469825284
34.91264209964141
32.37354085603113
25.24452582589456
16.064698252841993
4.541084916456855
-10.595864805065995
-25.92813000686656
-37.94003204394598
-43.311207751583126
-41.84634164950027
-35.69390402075227
-28.857862211032273
-25.24452582589456
-22.90074006256199
-20.752269779507134
-19.287403677424276
-16.943617914091707
-14.50217441062028
-10.888838025482567
-0.6347753109025711
24.365606164644845
62.745098039215684
90.77286945906768
80.51880674448768
25.92813000686656
-43.604180971999696
-84.62043183031967
-80.9094377050431
-48.877698939497975
-15.771725032425422
2.9785610742351416
6.787212939650568
1.3183794918745708
-3.662165255207141
-5.0293736171511405
-4.638742656595713
-2.197299153124285
0.6347753109025711
2.8809033340962844
3.9551384756237127
5.127031357289998
7.275501640344854
8.642710002288853
10.693522545204852
11.963073167009995
10.400549324788281
9.130998702983138
10.10757610437171
13.427939269092851
17.236591134508277
19.287403677424276
18.310826276035705
14.013885709925994
11.08415350576028
10.10757610437171
8.74036774242771
7.666132600900283
7.275501640344854
7.666132600900283
8.252079041733426
9.326314183260854
10.498207064927138
9.619287403677424
9.130998702983138
9.033340962844282
7.861448081177996
6.591897459372854
5.517662317845426
5.127031357289998
5.322346837567712
6.005951018539712
5.908293278400855
2.5879301136797133
-1.1230640115968566
-4.248111696040284
-7.568474860761425
-10.400549324788281
-13.427939269092851
-16.064698252841993
-17.627222095063708
-17.43190661478599
-16.16235599298085
-15.869382772564279
-14.50217441062028
-12.74433508812085
-12.84199282825971
-13.13496604867628
-13.13496604867628
-11.865415426871138
-9.326314183260854
-5.71297779812314
-2.490272373540856
-2.0019836728465705
-1.513694972152285
-0.24414435034714274
0.24414435034714274
1.1230640115968566
1.6113527122911422
1.416037232013428
1.3183794918745708
2.8809033340962844
5.322346837567712
5.224689097428855
4.443427176317998
3.7598229953459983
3.36919203479057
4.541084916456855
6.201266498817426
7.373159380483711
7.666132600900283
8.545052262149996
10.10757610437171
11.08415350576028
13.623254749370565
17.724879835202564
21.533531700617992
24.853894865339132
26.22110322728313
24.17029068436713
17.43190661478599
6.787212939650568
-7.275501640344854
-25.049210345616846
-40.772106507972836
-50.24490730144198
-52.49103532463569
-47.412832837415124
-38.818951705195694
-30.518043793392845
-24.853894865339132
-20.84992751964599
-17.236591134508277
-15.47875181200885
-13.916227969787137
-12.060730907148852
-7.666132600900283
7.763790341039139
39.40489814602884
77.19844357976653
93.2143129625391
65.08888380254825
2.0019836728465705
-57.66689555199512
-78.07736324101626
-58.936446173800256
-25.92813000686656
-0.537117570763714
9.326314183260854
7.861448081177996
2.197299153124285
-1.2207217517357138
-1.513694972152285
-1.3183794918745708
0.34180209048599985
2.197299153124285
2.197299153124285
2.0996414129854277
2.8809033340962844
4.931715877012284
7.275501640344854
10.205233844510566
12.549019607843137
11.865415426871138
10.888838025482567
10.10757610437171
8.838025482566568
8.252079041733426
8.44739452201114
9.521629663538567
11.279468986037996
13.916227969787137
15.47875181200885
12.939650568398566
9.81460288395514
8.74036774242771
9.71694514381628
12.45136186770428
14.795147631036851
16.357671473258563
17.236591134508277
18.310826276035705
18.40848401617456
15.381094071869994
12.74433508812085
11.865415426871138
10.595864805065995
8.349736781872283
5.224689097428855
2.8809033340962844
1.6113527122911422
1.1230640115968566
-1.7090104524299992
-10.302891584649425
-20.361638818951704
-27.783627069504846
-31.201647974364842
-29.63912413214313
-25.63515678644999
-21.728847180895706
-20.068665598535134
-19.385061417563133
-18.506141756313422
-18.017853055619135
-15.674067292286564
-12.256046387426567
-8.935683222705425
-4.345769436179141
0.14648661020828566
2.490272373540856
1.8066681925688564
0.34180209048599985
-0.7324330510414282
-2.8809033340962844
-3.2715342946517127
-2.197299153124285
-1.416037232013428
-0.04882887006942855
1.6113527122911422
3.5645075150682843
4.150453955901427
4.052796215762569
3.1738765545128556
0.9277485313191425
0.8300907911802854
2.2949568932631417
2.9785610742351416
4.248111696040284
8.05676356145571
14.892805371175708
21.826504921034562
27.1976806286717
30.71335927367056
31.68993667505913
32.764171816586554
32.37354085603113
27.49065384908827
18.799114976729992
6.884870679789426
-7.666132600900283
-24.072632944228275
-37.64705882352941
-44.67841611352712
-46.04562447547112
-41.943999389639124
-35.596246280613414
-30.029755092698558
-24.365606164644845
-18.40848401617456
-12.646677347981994
-8.935683222705425
-6.591897459372854
-4.150453955901427
1.6113527122911422
20.45929655909056
53.760585946440834
83.54619668879225
81.10475318532082
33.15480277714199
-35.49858854047456
-81.78835736629281
-81.69069962615396
-50.14724956130312
-19.18974593728542
-3.5645075150682843
-1.513694972152285
-4.541084916456855
-5.322346837567712
-4.345769436179141
-4.248111696040284
-6.39658197909514
-7.177843900205997
-4.736400396734569
-1.1230640115968566
3.2715342946517127
5.908293278400855
5.517662317845426
5.908293278400855
8.642710002288853
12.45136186770428
15.283436331731137
17.52956435492485
18.60379949645228
16.16235599298085
13.232623788815136
11.572442206454566
11.865415426871138
14.404516670481422
16.650644693675137
17.041275654230564
15.967040512703136
15.967040512703136
16.45532921339742
13.916227969787137
10.888838025482567
9.71694514381628
11.865415426871138
17.920195315480278
23.48668650339513
23.58434424353399
18.017853055619135
13.232623788815136
10.009918364232853
0.8300907911802854
-13.81857022964828
-27.002365148393988
-34.22903791866941
-36.37750820172427
-36.57282368200198
-35.010299839780274
-33.3501182574197
-31.396963454642556
-29.053177691309987
-26.807049668116274
-22.60776684214542
-17.627222095063708
-14.50217441062028
-12.84199282825971
-11.47478446631571
-9.42397192339971
-8.838025482566568
-9.912260624093996
-11.963073167009995
-14.209201190203707
-12.256046387426567
-6.494239719233997
-0.14648661020828566
4.345769436179141
5.71297779812314
4.345769436179141
0.9277485313191425
-0.9277485313191425
-0.537117570763714
-0.24414435034714274
0.537117570763714
1.2207217517357138
0.7324330510414282
0.34180209048599985
0.9277485313191425
2.8809033340962844
5.224689097428855
8.44739452201114
11.47478446631571
11.47478446631571
10.693522545204852
9.912260624093996
8.642710002288853
7.861448081177996
7.763790341039139
9.326314183260854
11.279468986037996
13.13496604867628
14.306858930342566
14.11154345006485
15.283436331731137
16.748302433813993
16.748302433813993
16.650644693675137
16.943617914091707
17.041275654230564
15.185778591592278
13.232623788815136
11.767757686732281
9.228656443121995
7.959105821316854
8.252079041733426
9.033340962844282
10.205233844510566
10.79118028534371
10.10757610437171
7.177843900205997
4.638742656595713
3.36919203479057
1.416037232013428
-0.04882887006942855
-2.0019836728465705
-3.5645075150682843
-1.9043259327077133
2.392614633401999
5.615320057984283
4.150453955901427
1.1230640115968566
-0.34180209048599985
-0.9277485313191425
0.04882887006942855
0.04882887006942855
-2.392614633401999
-5.322346837567712
-6.787212939650568
-5.908293278400855
-2.8809033340962844
4.052796215762569
13.13496604867628
18.701457236591136
20.263981078812847
17.920195315480278
13.232623788815136
9.326314183260854
6.201266498817426
1.513694972152285
-7.666132600900283
-18.017853055619135
-25.439841306172273
-28.857862211032273
-27.002365148393988
-22.90074006256199
-19.287403677424276
-15.185778591592278
-7.666132600900283
7.275501640344854
34.0337224383917
72.5108720531014
102.19882505531396
