ExG_CH1;ExG_CH2;ExG_CH3;ExG_CH4;ExG_CH5;ExG_CH6
566;531;532;522;482;427
551;613;665;699;692;651
545;653;745;810;831;788
549;488;476;488;508;518
535;519;514;523;540;561
534;644;720;773;798;783
543;521;528;545;567;579
537;470;433;421;429;464
530;620;675;711;727;728
539;577;615;646;663;659
540;455;412;398;405;439
527;566;586;600;607;619
527;619;686;730;747;730
535;464;435;428;437;459
526;506;492;488;492;515
525;632;702;743;757;740
535;509;509;519;532;541
527;462;422;406;407;439
523;613;667;701;713;707
529;564;599;627;641;635
533;447;403;386;390;421
524;563;583;595;601;608
528;616;680;721;735;717
536;462;430;420;427;448
522;506;494;490;492;513
520;628;699;741;754;737
528;501;501;511;523;532
522;458;420;405;406;438
519;611;667;702;713;707
526;558;592;618;632;626
528;443;399;382;387;417
518;560;583;596;602;609
519;607;672;712;727;709
529;453;421;411;418;441
517;504;492;489;492;512
516;623;693;736;750;733
526;495;493;501;513;524
522;458;420;403;405;437
519;611;668;702;713;707
526;554;585;609;623;617
528;442;398;380;383;413
517;561;584;599;604;611
519;604;667;707;722;704
529;450;416;406;412;435
515;505;494;492;495;514
512;619;690;733;748;730
518;486;484;492;505;517
503;445;411;397;401;435
490;592;655;692;707;701
501;528;561;587;604;601
500;418;376;360;366;398
488;538;564;583;590;599
495;578;640;681;697;680
505;426;391;381;389;413
500;490;480;478;481;501
509;611;678;719;732;714
526;486;477;480;490;500
524;460;421;402;401;431
520;615;672;706;715;703
528;548;575;596;608;601
531;445;398;379;380;407
525;572;596;611;615;618
527;607;665;702;714;695
535;453;416;404;409;431
523;517;509;507;510;526
515;623;694;737;752;734
514;481;477;483;496;510
464;424;400;393;401;437
358;503;594;651;680;684
233;325;405;465;511;534
164;147;159;187;232;297
149;240;310;370;420;465
221;300;374;436;484;500
416;272;205;185;197;238
583;483;414;376;356;366
619;660;674;672;649;609
600;536;495;465;438;422
577;515;463;426;397;398
572;669;720;742;730;694
583;594;612;623;619;596
589;500;450;424;414;426
585;634;658;671;668;657
587;659;712;744;752;724
588;505;465;448;451;468
574;574;568;567;568;579
572;676;745;786;799;779
578;535;524;526;535;546
565;512;481;466;468;497
556;659;722;760;771;760
558;572;596;617;632;631
553;473;429;411;415;447
541;600;633;654;662;667
540;615;672;711;727;711
542;461;424;412;420;449
528;533;533;536;541;560
525;630;702;747;765;750
530;488;478;482;495;511
516;468;440;429;433;466
506;613;680;721;735;725
509;522;547;569;586;589
503;426;385;369;374;408
488;553;590;614;626;632
488;563;621;661;679;665
488;409;374;364;374;406
473;484;488;494;501;522
472;579;652;700;719;707
482;438;426;430;444;463
471;425;397;387;393;425
467;572;638;679;693;683
477;483;504;525;541;543
478;397;353;335;339;370
472;533;567;590;599;603
482;548;599;634;650;634
492;404;363;348;354;383
487;493;492;494;496;512
495;593;660;702;714;698
513;458;439;437;443;456
511;460;426;411;409;434
517;616;675;710;717;699
533;529;542;555;564;560
538;453;403;380;376;400
539;598;629;646;650;646
549;609;655;684;693;673
562;471;424;405;405;429
555;563;561;560;558;568
560;658;723;762;772;751
573;517;496;491;495;506
565;518;487;472;470;493
564;667;730;765;772;753
570;568;582;596;608;605
564;485;440;419;419;445
556;623;661;684;691;691
561;621;671;703;717;702
560;474;433;418;423;453
548;563;567;573;575;590
551;651;720;763;778;762
560;504;484;482;491;507
548;506;479;468;470;497
544;650;716;755;766;750
550;547;561;577;590;592
543;466;422;403;405;435
534;605;645;671;680;682
537;598;647;680;695;683
539;454;413;398;405;436
531;549;555;561;565;579
533;633;702;745;762;746
541;484;464;461;471;487
530;492;467;456;458;486
528;635;702;741;752;736
539;532;545;559;572;574
536;458;414;395;396;425
529;601;643;668;677;677
535;591;637;668;683;670
538;451;409;394;399;430
526;547;555;561;565;579
526;626;696;739;755;739
536;477;455;451;459;478
529;492;467;457;458;485
528;633;698;738;748;732
537;527;537;551;562;565
535;458;412;393;393;421
527;601;643;671;680;679
533;585;630;660;674;662
537;449;406;389;395;426
524;547;557;564;568;581
527;624;692;735;751;735
537;474;450;445;453;470
528;494;470;460;462;487
529;635;700;740;750;732
535;524;532;545;557;559
530;457;413;394;395;423
526;603;648;676;686;684
530;580;624;654;668;657
534;448;405;388;393;425
521;548;560;568;573;585
521;619;688;731;747;731
530;466;442;436;445;464
520;490;468;461;463;488
520;627;694;734;746;729
528;513;520;533;545;550
516;446;404;386;388;418
507;589;639;670;682;681
504;556;601;632;649;642
503;420;381;368;376;410
492;523;538;550;557;572
494;591;660;705;723;710
501;437;411;406;416;438
490;463;445;438;441;468
491;598;667;708;721;705
508;488;493;504;516;522
512;435;390;370;370;400
515;592;637;664;673;669
524;565;601;627;638;627
528;441;394;376;378;406
520;550;562;570;572;581
527;619;683;723;736;716
538;468;437;428;432;449
526;500;481;472;472;492
526;632;700;738;750;729
535;514;517;526;538;542
520;453;413;394;397;426
503;594;648;682;695;692
472;529;578;614;634;630
386;341;325;327;347;391
245;348;414;461;496;530
174;332;452;538;593;611
175;146;159;191;240;298
219;202;203;224;259;315
391;440;482;518;540;541
584;466;407;381;373;375
630;492;393;331;295;304
598;659;676;672;645;611
587;617;635;637;620;583
587;497;442;409;389;394
578;611;622;623;610;598
582;669;730;764;766;731
590;514;480;466;465;472
575;555;537;528;525;536
573;680;746;784;794;769
581;555;554;561;571;573
574;506;464;446;445;473
564;654;708;741;751;745
565;601;637;663;677;669
563;479;436;419;423;454
549;590;611;624;631;639
546;638;704;745;762;745
551;478;448;439;449;471
535;521;510;506;510;533
531;639;710;753;768;753
535;510;510;520;535;546
525;462;424;409;413;446
518;611;669;705;718;715
518;553;588;616;632;630
514;432;391;376;382;417
500;545;569;585;594;604
499;589;655;698;716;701
503;430;399;392;403;428
484;475;466;465;472;496
481;591;663;708;726;713
488;460;460;470;486;500
475;416;381;368;373;408
470;567;628;665;679;676
477;508;542;569;586;584
478;395;353;337;343;377
472;517;541;556;563;572
477;562;626;665;681;664
487;409;376;365;372;396
478;467;457;454;457;477
485;589;657;699;712;695
500;464;458;463;474;485
498;433;393;376;376;406
500;592;647;680;690;679
515;534;560;580;592;585
525;434;386;363;363;390
527;566;584;594;597;598
540;615;670;703;712;688
556;469;427;409;410;428
551;536;521;513;509;523
558;656;719;756;764;741
573;531;520;520;526;531
570;504;462;441;437;463
569;662;717;747;752;738
581;597;620;638;647;637
581;493;445;422;421;446
573;620;642;655;658;658
575;655;712;748;759;736
580;499;461;447;451;472
566;561;553;551;552;568
565;670;739;780;794;775
574;535;528;531;542;553
565;507;471;455;457;487
560;659;719;754;765;756
567;585;611;631;645;642
565;482;436;417;419;450
555;607;634;651;657;662
558;637;695;732;745;727
565;482;444;430;436;461
554;551;544;543;545;563
555;658;727;768;782;765
564;523;513;515;526;538
558;500;465;449;450;481
553;652;712;748;759;749
559;573;596;616;629;627
559;476;429;410;411;441
549;603;631;649;655;659
554;628;684;720;734;716
564;479;438;424;430;454
556;554;547;546;548;564
558;660;728;769;783;764
563;521;510;511;521;533
555;501;467;452;454;484
551;653;715;751;761;750
560;571;592;612;624;622
560;478;432;411;413;442
553;609;639;656;662;665
557;630;685;718;732;715
563;479;439;424;429;455
555;557;553;552;554;570
556;658;727;769;782;764
566;520;507;508;517;529
559;505;472;457;459;487
557;658;720;757;766;752
567;573;592;610;622;620
565;482;435;414;415;445
558;615;646;665;672;673
559;629;682;716;729;713
565;480;439;423;428;455
555;560;559;559;561;577
556;657;726;768;782;765
561;514;501;501;511;525
548;500;470;457;460;489
539;646;711;750;762;750
539;549;570;590;607;608
531;456;414;397;402;434
525;588;625;648;659;663
532;600;655;690;706;692
540;454;413;399;406;436
527;537;538;541;545;562
534;635;703;746;760;745
553;499;481;479;487;502
551;500;467;451;451;477
555;655;715;750;757;740
569;566;579;593;602;599
569;486;437;414;412;438
562;623;656;675;680;678
568;631;679;709;721;702
574;486;442;425;428;455
564;575;575;576;577;590
568;667;734;775;787;769
577;523;504;501;508;522
561;518;489;477;477;503
543;654;720;761;772;756
508;525;553;576;595;599
415;379;363;363;380;420
285;419;504;563;601;627
240;358;454;528;579;598
258;201;193;212;253;316
318;326;337;358;387;430
481;522;559;591;607;603
650;508;431;391;376;382
674;574;495;441;406;409
637;724;760;766;741;697
622;616;617;612;598;572
616;537;487;454;436;442
611;677;712;729;723;706
618;673;718;744;749;721
625;534;489;469;468;487
612;627;630;632;630;636
611;708;774;813;825;803
617;559;538;532;538;550
604;564;537;525;526;549
596;702;767;804;815;797
598;593;606;620;633;633
589;515;473;453;455;484
578;651;693;720;730;730
577;635;683;715;732;721
578;494;453;439;446;478
566;587;595;602;608;623
564;663;732;775;792;778
567;511;491;488;499;517
552;519;497;489;493;521
548;656;724;764;778;763
557;549;560;575;589;594
547;476;434;417;419;450
534;612;657;687;698;700
531;589;638;671;688;680
531;450;410;398;407;441
516;544;556;566;575;590
511;612;684;729;750;737
517;460;441;439;451;473
507;476;456;449;455;484
502;611;679;721;736;723
505;496;508;524;540;547
500;429;389;373;377;410
498;575;619;649;661;663
505;554;598;628;643;636
514;426;383;367;373;405
508;532;541;548;553;565
512;605;671;712;727;710
524;459;432;425;432;450
518;485;461;451;452;475
520;623;688;725;735;716
536;518;521;531;541;543
540;462;416;394;392;419
543;616;657;682;689;683
552;595;631;657;667;654
560;471;424;404;405;432
555;580;589;594;594;601
562;652;714;752;764;743
573;505;475;465;468;483
567;536;513;501;500;519
568;671;735;771;779;758
578;558;560;568;577;579
569;498;455;434;433;459
564;644;691;719;729;724
564;609;649;677;690;679
566;480;437;420;425;455
554;586;600;609;614;625
553;646;713;754;770;754
555;490;463;457;465;485
540;517;500;495;498;522
536;644;712;754;768;752
542;524;528;540;555;562
534;466;426;410;413;445
525;611;663;695;707;706
527;570;611;639;655;649
532;447;404;388;395;428
518;554;571;583;589;601
517;611;678;720;737;721
523;456;429;422;431;453
510;490;475;471;474;499
511;618;687;728;742;726
519;497;500;511;524;532
509;444;406;389;393;424
503;591;645;677;690;688
509;548;586;615;630;624
512;428;386;369;375;408
503;540;558;570;576;585
505;595;660;702;717;700
510;441;412;404;412;433
495;478;465;461;465;487
494;601;670;713;728;711
503;478;480;490;504;513
495;430;392;376;380;412
489;578;633;666;679;676
496;531;567;594;609;604
499;414;371;355;360;392
490;529;548;561;567;576
492;580;643;684;700;682
497;425;394;386;393;416
483;469;456;453;456;479
482;589;659;701;716;700
491;465;466;475;488;499
484;421;385;369;372;405
478;570;626;661;674;670
484;518;552;578;593;589
485;403;361;345;350;382
475;518;540;555;563;570
475;563;627;668;685;668
478;407;377;368;378;401
466;455;445;443;448;471
461;570;643;686;702;687
462;437;439;450;465;479
449;392;359;348;354;389
444;540;600;638;654;652
448;480;514;542;560;560
446;366;325;311;319;354
438;484;509;526;535;546
445;529;592;632;650;634
461;382;349;338;346;370
458;443;431;428;430;450
468;567;633;672;685;666
480;443;437;442;451;460
470;409;372;354;355;385
467;561;617;651;661;653
478;502;530;553;565;559
478;396;352;333;335;364
472;518;542;557;561;566
477;559;619;657;670;651
484;406;372;361;368;389
461;458;452;452;456;475
446;559;633;680;697;682
406;393;403;420;440;458
289;283;284;294;316;363
155;327;442;519;567;588
105;191;275;345;403;438
104;60;58;83;129;200
180;223;259;298;336;377
384;390;412;438;455;452
554;378;279;228;208;223
561;499;439;395;360;355
535;620;658;667;644;598
535;490;467;450;431;415
527;466;422;393;374;380
529;621;674;700;696;666
542;554;575;589;590;572
544;457;408;384;378;395
535;583;607;621;621;615
536;611;667;701;710;686
539;458;420;406;410;430
522;522;517;516;518;532
517;623;694;737;751;733
523;485;478;483;495;507
512;460;428;416;419;450
502;605;667;706;720;712
505;523;550;573;588;589
501;423;381;365;370;402
488;545;577;598;608;614
485;564;623;662;680;666
487;409;375;366;375;404
472;477;476;481;487;507
470;576;648;694;712;700
472;434;428;434;449;466
455;408;381;372;379;413
449;554;619;660;677;671
451;467;494;518;536;540
445;369;329;315;322;356
434;495;529;553;564;573
433;510;569;609;626;616
434;357;323;314;324;355
421;429;431;437;444;466
422;527;599;645;665;653
431;389;380;385;399;417
421;374;346;336;342;375
418;522;587;627;641;633
423;435;459;481;497;500
422;344;304;288;292;324
419;479;513;536;545;550
431;500;552;588;603;588
445;360;320;305;311;338
440;444;443;443;445;460
450;548;614;655;669;651
468;416;400;398;406;418
466;414;381;366;364;391
473;570;629;663;671;654
490;490;504;519;527;524
496;410;361;339;336;361
496;551;580;597;600;597
509;569;615;644;653;633
520;431;386;366;368;390
514;518;515;515;513;522
518;615;681;719;730;709
530;477;458;455;461;471
518;471;440;426;426;450
517;619;681;718;726;709
525;526;542;558;569;567
521;442;396;377;377;405
512;576;612;634;641;642
517;581;632;665;678;664
522;437;396;382;388;416
508;522;525;529;533;547
507;609;679;723;738;723
517;466;450;449;460;475
504;463;437;426;429;458
501;607;672;711;723;709
508;509;525;542;556;558
504;428;385;366;369;399
496;564;603;627;637;639
503;564;614;647;662;649
507;423;383;368;375;404
497;511;517;521;526;541
498;598;667;711;726;711
508;453;435;433;443;460
497;458;431;421;423;451
497;601;665;704;716;700
508;503;516;531;544;546
505;427;382;363;364;393
499;567;606;631;640;640
507;563;610;641;655;642
514;426;384;367;373;402
505;521;526;530;534;546
507;605;672;714;729;712
518;461;440;436;444;459
507;470;444;434;436;460
507;612;677;715;726;708
517;510;522;535;548;549
516;439;396;375;377;403
510;581;622;647;656;656
516;571;616;647;661;648
521;435;393;376;382;412
510;531;538;544;548;561
514;611;678;721;736;719
522;463;441;436;444;461
513;478;453;443;445;470
512;616;681;719;732;714
518;508;519;532;545;547
513;439;396;377;378;407
507;581;624;652;662;662
505;560;606;638;653;642
505;422;382;369;375;407
492;518;529;539;545;560
490;589;659;704;722;708
499;439;417;414;425;445
492;458;437;429;433;460
489;595;662;702;715;700
495;484;494;507;521;526
491;419;377;359;362;392
491;567;612;640;650;651
504;550;592;621;634;623
516;426;380;362;366;396
514;536;543;548;550;559
522;613;676;715;727;708
531;465;437;428;432;447
524;492;469;458;457;477
528;630;695;731;740;719
538;520;524;534;544;545
532;459;415;394;393;421
526;606;651;680;688;684
528;575;615;644;657;646
522;439;398;383;388;419
498;533;550;562;569;581
447;563;644;697;720;708
342;329;338;357;384;418
206;253;288;322;360;412
157;321;440;526;582;601
176;190;231;279;333;378
261;178;142;143;170;231
455;461;468;482;491;501
613;562;536;522;507;487
635;492;396;336;301;306
596;609;593;570;536;515
585;673;723;743;727;680
593;521;484;462;447;440
587;558;533;517;503;503
594;694;755;787;787;752
605;579;577;581;584;576
593;522;477;455;451;470
583;668;717;746;753;741
587;627;664;689;700;687
588;502;457;439;443;470
572;607;623;633;638;646
568;661;728;768;784;766
568;500;472;465;473;493
554;534;519;514;518;541
550;657;726;768;782;766
554;532;535;545;559;569
545;478;439;423;426;458
537;625;679;712;726;723
539;577;614;642;658;654
536;453;411;395;402;435
522;561;581;594;602;613
521;612;680;721;739;724
522;453;425;417;427;451
505;491;478;476;481;506
499;610;681;725;741;727
503;482;486;497;512;524
491;430;395;382;386;421
483;576;635;671;686;685
487;524;562;590;608;606
486;405;365;350;358;393
474;517;539;555;564;576
476;566;632;675;693;678
482;410;381;373;383;408
473;459;446;444;449;472
478;583;650;693;709;693
492;462;459;467;480;490
492;424;383;366;368;398
490;579;633;665;676;669
502;529;559;582;594;588
512;423;375;355;357;386
510;546;563;575;577;582
521;601;659;694;705;684
537;454;415;401;403;421
535;515;497;489;487;502
541;640;702;739;748;725
556;519;510;512;518;524
558;489;445;423;420;445
563;650;701;729;734;721
572;594;619;638;645;635
578;489;440;416;414;439
573;614;632;641;642;643
578;659;715;750;759;735
586;505;467;452;455;473
573;562;549;544;543;558
571;676;743;782;794;773
578;544;539;543;553;561
570;509;471;453;455;484
565;661;718;752;763;753
570;593;622;643;657;652
571;487;441;422;424;454
560;607;631;646;651;657
560;642;702;739;754;736
564;485;449;437;444;468
549;543;535;533;537;556
549;654;723;765;780;764
558;521;514;519;531;544
546;488;453;437;440;472
543;640;700;736;748;741
552;570;596;618;632;630
553;468;422;403;405;436
542;592;618;634;639;645
543;623;682;719;733;715
550;470;433;419;427;451
540;537;529;527;531;549
542;646;715;756;771;753
550;510;502;505;516;530
541;485;449;435;437;467
536;636;697;734;744;735
545;561;585;606;619;618
545;462;416;397;399;429
538;591;617;635;641;645
543;619;676;711;725;706
553;469;430;416;420;444
541;539;533;532;534;551
541;644;713;754;768;751
551;508;497;499;509;522
540;485;451;437;438;468
538;638;699;736;747;736
545;558;580;599;613;611
544;461;416;396;399;428
534;590;620;638;645;648
537;611;668;703;718;701
540;457;419;406;412;439
521;527;526;527;531;550
519;625;697;741;758;743
519;479;471;476;489;505
499;454;427;417;423;454
493;601;668;709;725;717
505;517;540;562;579;582
507;426;381;364;368;402
502;560;592;612;621;626
508;579;634;669;684;670
525;436;394;379;384;411
522;523;518;516;518;533
532;630;695;735;747;727
548;496;478;475;482;493
535;484;450;434;433;459
529;633;696;733;742;726
540;545;563;580;592;590
540;457;411;389;390;418
535;593;625;645;651;652
539;606;658;691;704;686
546;459;417;401;405;431
532;541;541;542;544;559
525;631;702;745;761;744
505;468;460;464;477;495
425;409;400;401;415;451
302;467;574;642;679;684
227;295;363;421;471;501
216;176;172;189;229;293
250;322;377;425;465;499
383;411;448;484;510;515
570;400;307;265;255;282
640;578;522;484;453;450
620;691;724;731;710;667
599;541;507;483;462;450
575;532;496;470;450;455
570;677;740;771;768;733
584;581;594;606;610;596
584;501;453;430;425;444
578;641;675;696;700;693
579;641;688;720;731;711
581;493;449;432;436;461
568;583;585;587;589;602
568;668;737;779;793;776
575;520;500;498;506;522
560;519;491;480;482;508
553;661;728;768;779;764
557;556;571;588;602;605
550;473;429;411;413;445
538;609;650;676;687;690
534;598;650;685;701;691
532;448;410;397;406;439
519;539;548;555;562;580
520;622;694;739;757;745
527;472;454;453;464;483
510;474;451;443;446;476
503;615;684;727;741;727
508;506;521;539;555;560
501;428;386;369;373;405
488;565;609;639;651;655
491;552;603;638;656;647
490;406;367;355;365;399
475;500;511;521;528;545
478;580;652;697;717;704
488;431;411;409;420;441
478;442;418;410;414;443
476;584;652;693;707;692
483;475;487;503;517;522
482;405;361;343;345;376
480;553;596;623;633;633
489;540;585;616;630;619
498;408;363;345;350;381
495;515;521;526;528;540
505;599;664;704;718;700
520;454;427;418;423;439
515;476;449;436;434;456
522;625;688;723;731;710
539;522;526;534;543;541
541;461;412;388;385;409
542;614;654;677;683;676
555;601;640;665;675;658
565;472;423;401;402;427
562;582;588;590;590;596
567;659;724;761;773;750
578;510;481;471;474;487
567;533;507;496;493;513
567;673;738;776;783;762
577;560;564;574;584;584
570;495;451;428;428;455
562;641;688;715;724;720
563;611;654;682;696;685
562;475;431;415;419;451
549;578;592;601;605;618
548;645;713;757;773;758
554;489;462;457;464;485
540;512;492;485;488;513
538;647;715;757;770;754
546;529;534;545;559;565
538;466;424;405;407;439
530;613;664;694;706;705
532;578;621;650;666;659
535;448;405;388;395;429
523;557;571;583;588;600
526;622;689;733;749;733
535;467;438;431;439;459
523;498;479;472;475;498
523;631;701;741;754;736
533;512;515;525;538;544
529;457;415;396;397;427
527;610;660;690;701;698
533;574;612;640;653;645
536;448;402;385;389;420
524;559;574;585;589;599
526;619;685;727;743;724
535;463;432;423;431;451
526;502;483;476;479;500
527;634;701;741;753;735
538;513;513;521;533;539
529;460;417;398;399;429
525;612;664;696;706;703
531;570;606;633;646;638
534;446;400;383;387;418
523;560;577;588;593;602
526;617;683;723;739;720
533;460;429;419;426;446
521;501;486;480;482;503
516;626;697;739;752;734
525;500;501;511;523;532
513;448;409;393;396;428
501;595;652;688;702;699
506;545;582;611;627;623
509;424;380;365;371;404
493;536;557;572;580;591
495;587;655;697;715;698
505;430;400;391;400;423
497;480;465;461;465;488
508;612;679;720;733;716
529;493;487;493;502;511
529;457;412;392;389;419
528;616;667;697;705;696
533;563;594;617;627;618
537;448;400;380;381;409
527;568;588;599;602;607
530;617;680;718;731;710
536;458;424;412;418;440
524;509;496;492;493;513
522;629;699;741;755;736
526;496;494;501;514;524
504;446;410;397;400;433
441;560;633;677;698;697
327;413;483;533;570;580
212;201;211;234;274;333
156;259;334;394;443;487
165;283;382;460;517;537
271;179;150;156;189;243
464;374;321;301;301;331
600;618;624;625;611;582
610;530;478;444;418;405
580;501;437;391;358;362
570;660;704;718;701;666
583;601;621;630;622;593
592;498;445;415;401;412
590;630;647;654;647;635
595;672;727;759;764;731
600;515;474;457;457;469
581;572;561;555;553;564
576;684;753;793;804;781
583;545;539;543;552;561
572;511;474;458;459;488
563;663;723;759;770;760
566;588;617;639;654;650
563;478;433;415;419;450
550;602;628;646;653;659
548;632;693;733;749;732
552;473;436;424;432;459
536;534;528;527;532;552
531;641;714;758;774;759
536;500;495;500;514;529
521;467;434;421;427;461
514;618;682;721;735;729
517;538;568;592;610;610
512;431;388;372;378;412
499;556;587;607;616;625
497;580;642;682;700;684
499;420;386;376;386;414
484;485;482;486;492;513
480;589;663;710;729;715
483;446;440;447;463;481
473;420;388;377;383;419
470;573;637;677;693;686
480;495;520;543;559;561
480;396;352;334;338;371
471;528;558;577;586;592
479;555;612;649;664;648
495;408;367;353;358;385
492;489;481;480;482;498
501;601;668;708;721;702
515;467;452;452;460;472
511;455;418;400;399;426
514;613;674;708;716;701
529;536;554;571;581;577
535;447;396;374;371;399
534;588;615;630;632;631
546;614;664;696;705;683
561;470;424;405;406;427
556;554;546;543;540;552
561;661;726;764;775;752
576;524;507;502;508;516
567;513;477;459;456;481
562;664;726;761;769;752
569;575;593;610;621;617
566;482;435;414;414;441
555;615;648;668;675;676
558;628;682;716;730;713
562;476;434;418;424;452
549;557;556;557;560;577
550;654;724;766;781;765
558;508;493;492;502;518
546;498;467;453;455;484
541;647;712;751;762;749
547;553;572;590;603;605
544;463;418;398;401;432
537;600;636;658;667;669
540;608;662;696;711;696
546;460;418;402;409;438
534;545;546;549;552;569
535;639;710;753;768;753
545;493;477;476;485;502
533;489;459;448;449;478
530;638;703;742;754;739
538;540;556;574;588;589
533;453;408;389;391;421
525;593;631;654;663;665
531;594;646;680;695;680
539;450;406;390;397;427
530;542;543;546;549;565
530;633;702;744;759;743
542;486;467;464;473;489
531;487;457;445;446;474
530;636;702;740;751;734
540;536;550;566;578;578
536;456;410;389;389;418
526;596;635;659;668;668
529;592;642;675;689;676
535;447;404;389;394;425
526;542;547;551;554;569
531;631;700;744;758;743
539;482;461;459;466;483
523;484;458;447;449;476
521;630;697;738;749;732
525;522;537;553;568;569
511;438;397;379;382;412
500;576;621;649;661;664
510;570;619;654;670;659
513;426;384;371;378;411
497;520;528;536;542;558
500;602;673;719;736;722
513;453;431;428;438;457
511;470;442;431;434;460
519;621;685;723;733;716
533;520;528;539;549;550
531;450;402;379;377;404
523;596;637;661;668;666
533;586;630;659;671;657
542;450;403;385;388;417
533;553;558;562;564;575
535;633;700;742;755;736
543;481;455;449;456;471
529;494;471;459;461;485
522;633;702;741;753;735
523;516;528;543;557;560
476;417;384;371;378;411
368;491;566;615;642;653
240;367;465;534;580;594
176;155;167;196;244;310
158;223;276;325;373;425
222;323;409;478;527;546
414;290;238;225;240;276
586;456;370;324;304;323
622;666;678;674;649;609
602;565;540;517;492;468
583;500;438;396;365;366
577;652;689;703;688;661
589;632;667;686;683;650
600;503;452;427;419;433
592;614;620;621;616;613
592;685;750;787;795;767
600;530;500;489;491;501
586;554;530;519;517;535
580;688;756;795;803;780
584;567;573;583;593;596
571;499;456;437;438;466
558;643;694;725;736;734
560;608;651;682;698;688
559;473;430;414;421;455
545;579;594;605;611;624
540;639;710;754;772;758
543;478;453;447;456;479
528;504;488;482;487;514
523;635;706;750;765;749
527;510;517;530;546;554
515;448;408;392;396;429
503;593;648;682;697;697
505;552;596;626;645;640
503;419;378;364;373;409
487;525;544;559;567;581
486;583;654;700;720;706
494;425;398;392;403;427
477;457;442;439;444;470
474;586;657;702;718;704
482;462;466;479;493;504
476;408;367;351;354;388
469;559;613;648;662;660
475;515;555;584;601;596
479;392;348;332;339;373
472;508;525;537;544;556
478;570;635;677;693;676
492;418;385;375;381;402
487;464;446;439;440;461
493;598;665;705;715;696
512;482;479;485;494;500
512;438;394;373;370;398
514;599;650;679;687;678
528;559;590;613;623;612
537;444;394;372;372;400
536;569;583;590;590;595
548;632;691;728;737;713
560;479;440;426;427;443
554;532;512;501;498;514
556;660;725;762;771;747
566;534;529;534;542;545
560;490;446;426;424;451
555;645;700;731;740;730
561;591;623;647;659;650
561;473;426;406;409;438
549;591;611;623;627;633
549;638;702;742;756;737
554;478;443;432;439;462
544;529;515;510;512;533
542;650;719;761;774;756
552;520;516;523;535;544
544;479;440;421;423;454
535;632;690;725;736;730
538;570;603;628;643;637
541;455;410;392;397;428
528;575;598;613;620;627
530;619;682;723;738;721
537;459;424;413;420;445
525;514;503;500;504;524
524;632;704;746;761;743
534;500;496;503;515;527
525;462;424;408;410;443
522;619;678;713;725;718
527;552;583;607;621;617
529;442;397;379;382;414
520;566;590;606;612;618
526;609;669;708;723;704
534;452;415;401;408;431
521;512;502;498;501;520
521;628;698;739;754;735
533;495;488;493;504;515
523;462;424;407;409;441
519;618;678;714;724;716
527;549;577;599;613;609
532;445;397;378;381;410
522;572;597;612;618;622
523;607;667;705;720;700
529;448;412;399;406;429
518;513;506;504;508;526
520;626;697;739;754;737
530;491;483;487;498;512
517;460;424;409;411;443
510;613;675;714;725;716
511;533;562;585;601;599
505;425;382;365;371;403
495;551;580;601;609;616
500;582;642;682;699;682
502;421;385;373;383;410
486;487;483;485;490;511
490;596;668;713;730;715
502;461;452;457;469;484
502;443;405;391;393;424
509;607;664;700;710;700
525;535;554;572;584;580
530;441;390;367;366;394
522;574;600;615;618;619
527;602;658;692;704;683
537;449;408;391;394;418
523;523;517;515;516;531
521;628;698;741;755;736
530;488;477;480;489;502
523;468;434;420;420;450
514;619;684;722;734;722
510;527;554;575;591;591
461;398;365;353;362;397
349;454;518;560;585;602
228;375;484;559;607;615
192;164;174;202;247;308
191;224;255;291;333;386
269;365;442;504;545;558
450;341;296;286;298;324
595;454;362;310;288;308
613;663;678;675;651;615
590;580;574;563;544;515
569;483;424;385;361;365
560;618;644;653;641;621
568;636;686;714;715;680
579;488;441;420;416;430
572;573;568;564;560;565
571;672;740;779;788;763
579;528;512;509;515;523
568;517;484;468;467;491
560;666;731;768;777;761
564;571;590;608;621;619
559;479;433;413;415;445
551;614;649;670;679;681
548;619;674;710;724;709
549;465;424;411;417;447
531;545;548;553;557;574
530;636;709;754;772;757
537;489;475;475;488;505
523;479;451;440;443;474
514;624;694;735;748;736
520;524;544;564;580;584
512;435;392;374;378;412
498;567;606;632;644;649
495;566;621;660;676;667
498;413;375;362;372;406
482;498;505;511;518;538
479;586;660;707;726;714
486;436;422;423;436;457
473;431;406;397;402;434
464;576;647;689;704;692
471;473;492;512;529;535
469;391;348;331;335;369
463;532;572;598;610;614
471;534;584;619;636;624
479;391;348;332;340;372
472;487;491;495;500;515
478;579;648;691;707;691
494;435;415;411;419;435
490;445;415;403;403;428
493;599;663;700;710;691
508;500;511;524;535;534
511;428;380;357;355;383
512;578;614;637;642;640
525;580;624;653;665;647
539;444;395;375;377;403
536;548;549;549;548;557
543;638;702;742;753;731
561;495;468;459;462;475
553;509;478;462;459;480
553;658;721;757;764;742
563;553;560;572;581;579
560;479;431;408;405;432
554;626;665;688;696;692
559;614;659;690;701;686
564;473;427;408;413;441
549;570;577;582;584;597
548;648;718;761;776;758
558;497;474;468;476;493
546;509;484;473;476;501
539;649;718;758;770;753
544;535;546;560;574;578
536;461;418;399;401;432
528;606;652;680;692;692
532;587;633;665;682;670
536;448;404;388;395;428
522;549;559;567;572;587
524;624;694;738;755;739
536;473;448;443;451;470
523;490;467;458;460;486
521;631;699;740;752;735
532;517;525;538;551;555
527;451;406;387;388;417
517;597;643;673;684;683
525;575;617;648;663;653
531;440;395;378;383;415
521;548;558;566;569;582
523;620;688;731;746;730
533;467;439;433;439;458
523;491;468;459;461;484
524;632;699;739;750;732
534;516;521;532;544;547
528;453;408;387;388;417
519;602;650;679;691;688
526;573;616;644;659;648
529;441;396;379;384;416
519;550;563;572;576;588
523;619;687;729;745;728
537;467;438;430;436;454
524;496;475;466;468;490
521;631;700;741;752;733
531;512;516;527;539;544
519;449;407;388;390;420
506;595;647;681;692;691
504;553;597;628;645;638
498;415;375;361;370;405
485;523;541;556;563;578
487;584;654;700;720;706
499;429;400;394;404;428
491;465;446;440;444;470
491;599;668;710;724;707
506;482;483;492;504;512
508;433;389;367;368;399
507;591;639;669;679;674
519;556;591;616;628;618
525;434;385;365;367;397
518;551;565;573;575;583
524;615;679;719;731;710
536;461;427;416;420;437
528;504;484;475;475;494
528;635;703;742;753;732
536;510;510;518;527;534
523;456;415;396;397;427
507;602;659;693;705;701
501;546;587;618;634;628
458;390;358;349;362;399
350;435;485;519;543;565
241;399;513;591;638;644
209;187;201;231;276;329
207;215;232;259;297;353
287;383;457;514;552;561
468;375;339;334;344;364
601;449;350;296;271;293
605;650;659;655;630;602
579;599;609;608;590;558
569;478;420;384;363;370
561;599;612;614;601;587
569;653;712;745;747;710
583;500;461;444;441;448
576;554;535;524;519;528
573;679;745;782;790;763
579;548;543;547;555;558
569;504;462;442;441;468
561;657;713;746;755;746
562;594;628;652;666;657
560;474;429;411;415;446
546;592;616;630;636;643
545;635;700;740;757;739
548;472;439;428;437;461
531;521;511;509;514;536
528;639;711;755;770;755
536;504;501;510;524;536
524;463;425;410;414;449
514;613;673;711;725;721
517;546;579;605;622;620
514;430;387;370;376;411
501;550;576;593;602;612
499;587;653;694;711;696
501;424;392;384;392;419
484;479;472;473;478;501
482;593;666;712;730;716
492;458;454;463;477;492
483;423;387;373;377;413
474;575;637;675;689;684
477;504;536;561;578;577
476;393;350;334;340;374
464;517;545;564;572;581
470;555;617;658;675;659
483;401;364;353;361;388
479;470;460;458;462;482
483;588;657;699;713;696
499;458;448;451;462;474
496;434;395;376;377;407
497;594;653;686;696;684
511;527;552;571;581;576
517;428;379;357;356;385
513;562;586;600;602;604
525;599;655;689;700;678
541;451;407;391;393;413
537;527;514;509;507;520
543;643;709;748;757;735
557;510;496;495;502;510
553;491;450;431;428;455
553;650;708;741;747;733
562;575;596;613;623;616
562;475;425;402;401;428
554;607;633;648;652;652
558;634;690;724;736;715
563;477;436;420;426;448
549;549;544;542;544;559
546;654;725;767;781;762
554;512;502;504;515;528
545;491;456;442;444;475
537;641;706;744;756;745
542;557;581;602;616;616
540;458;412;393;396;427
530;589;620;641;648;653
533;609;666;704;718;702
538;454;414;400;408;435
526;530;527;528;532;549
527;633;705;748;764;748
538;490;479;480;491;505
530;476;443;428;431;462
526;630;693;731;742;730
532;541;562;581;595;595
531;447;400;381;383;414
522;583;615;635;642;645
529;600;655;690;704;687
536;448;407;392;397;424
524;529;528;528;531;547
524;629;700;743;758;740
534;485;471;471;481;496
525;475;442;428;430;460
525;630;694;732;743;729
532;538;557;575;589;588
531;448;402;381;383;412
525;587;620;641;649;651
528;597;651;686;700;682
534;447;405;390;396;424
521;530;531;533;536;552
522;627;698;741;757;741
531;481;466;465;475;491
524;476;445;432;433;464
519;626;692;731;741;727
525;530;547;565;578;579
525;442;397;377;379;409
516;581;618;640;649;651
518;585;638;673;688;673
522;435;394;378;385;416
507;521;524;528;533;549
501;608;682;727;745;730
505;455;441;442;454;473
496;454;426;416;420;451
493;601;669;710;724;711
499;501;518;536;551;555
497;417;372;353;357;388
492;560;598;623;632;635
504;565;615;648;663;649
520;427;381;365;369;399
517;528;527;528;529;542
522;621;688;728;741;723
531;474;453;448;454;468
524;479;450;436;435;460
524;630;695;733;742;722
537;531;543;557;568;566
534;453;406;384;384;411
526;596;635;658;666;665
530;590;639;670;684;669
534;445;402;385;391;420
514;535;541;548;551;566
493;604;679;728;746;732
434;405;403;413;432;456
298;320;335;354;380;425
187;369;492;575;625;639
162;210;272;331;389;429
174;123;111;126;167;236
296;340;377;414;444;474
506;477;474;482;488;482
621;448;341;283;256;272
597;578;541;508;473;461
575;664;709;725;706;661
580;515;479;456;437;427
575;533;499;476;458;460
577;681;742;772;770;732
595;578;582;589;590;577
591;509;459;433;425;442
581;654;695;719;722;712
582;636;680;709;719;700
585;495;450;431;433;460
570;594;602;608;610;620
566;667;738;780;795;777
572;510;487;481;489;506
557;524;501;492;494;520
551;661;731;771;784;767
555;544;555;569;582;587
543;470;427;409;412;443
531;614;662;692;705;706
536;588;634;666;683;676
540;451;407;392;399;433
526;554;565;575;581;594
521;622;693;738;756;741
525;463;440;435;445;466
506;479;460;454;459;487
499;612;684;728;744;729
506;493;504;519;535;543
496;425;385;368;372;406
485;570;621;654;669;670
484;538;584;617;636;629
487;402;361;347;356;392
475;507;523;535;543;558
474;574;646;692;711;698
484;418;393;389;399;422
472;445;426;421;425;452
471;581;652;694;709;693
485;467;472;485;498;505
485;410;365;347;348;380
480;563;612;642;653;651
488;531;573;600;614;605
497;406;360;342;346;378
497;524;535;542;545;555
508;598;661;701;714;694
527;450;416;404;407;424
521;490;465;454;452;471
527;630;694;731;739;716
545;517;515;520;527;528
545;467;419;396;392;416
543;625;671;699;705;697
555;592;626;649;659;646
561;468;419;397;398;425
557;587;598;604;605;610
561;652;716;753;764;742
573;497;464;451;454;470
562;537;516;506;504;523
557;666;734;773;783;761
564;540;542;549;560;564
558;487;445;425;425;454
552;641;694;725;736;730
557;594;632;658;672;663
554;468;423;405;410;442
543;581;599;611;617;626
543;636;703;745;761;743
551;477;444;435;443;465
533;514;500;495;498;521
529;639;711;753;767;751
541;514;514;524;537;546
535;465;424;406;409;441
527;618;673;707;719;715
531;567;603;629;645;639
532;446;400;382;388;421
524;564;583;595;601;611
529;619;683;723;738;720
536;460;426;415;422;444
522;505;492;487;489;511
523;632;702;744;757;739
536;506;503;510;522;531
528;461;421;402;404;435
520;615;672;706;718;712
526;558;593;619;632;627
526;440;396;378;382;415
520;562;583;597;602;610
526;613;676;716;730;712
536;457;421;409;415;437
522;508;495;490;492;512
522;630;701;742;756;737
536;502;498;504;515;525
529;462;422;404;405;437
524;619;675;709;720;713
532;559;590;613;626;621
531;444;398;379;382;414
520;566;588;603;608;614
523;609;671;712;726;707
533;452;417;405;411;434
522;510;498;495;498;517
519;627;698;739;754;736
529;494;490;495;507;518
520;458;419;403;404;437
509;609;669;706;718;712
511;540;572;597;612;609
512;428;384;367;371;404
498;550;576;594;601;609
499;587;650;692;709;691
509;429;393;382;391;417
493;488;481;480;485;506
489;599;673;717;733;719
498;464;460;466;480;494
493;434;398;383;386;421
497;594;654;689;702;695
513;531;556;577;590;587
521;431;382;360;361;391
516;561;584;598;602;605
518;598;656;692;704;683
529;444;404;389;393;415
524;515;505;501;501;517
528;631;699;738;751;730
540;497;486;488;496;507
531;471;433;415;415;444
523;624;685;721;731;720
519;541;569;591;605;602
510;431;388;371;375;407
464;532;571;596;608;617
376;496;583;640;670;663
250;239;251;274;311;360
164;230;279;324;368;421
155;303;416;501;560;582
220;186;195;226;270;319
389;277;216;198;209;258
576;581;580;580;571;556
631;577;543;519;496;471
602;493;412;357;321;322
571;621;634;629;605;579
574;647;696;718;708;664
586;496;450;426;415;419
581;576;567;560;550;551
582;683;749;786;792;761
593;545;529;526;531;533
583;526;489;471;468;490
577;679;740;775;784;765
581;590;611;629;641;635
574;491;444;423;425;453
558;618;651;671;678;680
558;633;691;728;742;725
557;474;435;421;429;458
541;548;547;550;554;573
537;645;717;762;779;764
542;498;487;490;503;519
529;480;449;438;443;475
521;629;696;737;752;741
522;534;557;579;596;598
518;438;395;378;383;417
506;570;607;630;640;647
506;581;638;676;693;680
508;425;387;375;383;415
490;503;506;511;517;537
487;596;670;718;736;723
494;449;437;441;454;473
480;435;408;399;405;438
472;582;651;694;710;700
476;484;507;528;547;551
474;394;351;335;341;375
464;530;567;592;604;610
469;538;593;630;647;636
476;390;349;335;344;375
468;479;480;484;488;506
472;575;645;689;706;690
486;432;416;414;424;440
483;433;402;388;390;419
484;588;652;690;700;685
499;497;511;527;538;537
505;420;371;349;347;375
504;567;600;620;625;624
518;578;625;656;665;647
532;438;391;372;372;398
528;536;534;533;532;543
535;633;700;738;749;727
550;491;469;462;466;478
548;499;466;449;446;468
555;657;718;752;758;736
568;560;570;581;589;585
571;486;435;410;406;430
565;630;665;685;690;685
567;628;675;705;716;696
569;480;434;417;420;447
557;573;577;580;582;594
558;658;727;770;784;767
564;506;486;482;490;506
553;511;483;472;473;500
549;657;724;763;773;757
557;551;564;579;591;592
553;474;428;407;408;437
542;615;656;681;691;691
545;604;653;686;700;687
548;460;417;401;407;438
535;556;562;568;573;587
534;637;707;751;769;753
545;486;465;461;470;488
533;495;470;459;462;490
531;640;708;747;759;743
541;533;543;557;570;573
539;461;415;395;396;425
532;606;648;674;684;684
536;593;639;670;685;673
538;450;407;391;397;428
524;549;558;565;569;584
528;628;698;742;759;742
538;476;453;448;457;475
528;492;467;456;459;485
527;635;702;741;753;736
537;525;534;545;558;561
534;456;411;390;390;419
528;604;648;675;684;683
528;582;627;658;673;661
533;444;400;383;389;421
522;547;557;565;569;582
524;622;691;734;751;735
531;468;443;437;445;464
520;488;464;456;458;483
522;630;698;737;749;731
531;517;524;536;548;551
525;451;407;386;387;417
519;599;646;674;685;684
522;573;617;647;662;652
528;440;396;378;384;416
518;546;559;567;571;584
520;618;686;730;745;728
529;463;436;429;437;456
518;488;466;458;461;485
515;625;694;735;747;728
525;508;515;526;539;543
519;446;403;384;385;415
512;594;643;674;686;683
513;560;603;633;649;640
517;429;385;368;375;408
500;533;549;561;567;579
494;594;665;710;728;713
502;436;411;406;415;437
494;467;448;442;446;472
486;597;669;712;726;711
495;476;482;495;509;517
490;419;377;360;362;395
489;573;623;655;667;666
506;545;582;609;623;615
520;426;377;358;360;391
514;544;556;563;565;573
518;610;674;714;726;706
528;456;425;413;417;435
524;496;475;466;465;485
524;631;698;737;746;725
535;510;511;518;528;532
528;458;414;394;393;421
520;608;660;692;702;696
523;564;603;631;644;636
519;434;391;374;380;412
492;536;559;573;581;592
440;555;637;689;714;701
335;315;321;337;365;401
204;256;293;328;367;417
159;324;444;530;586;605
185;187;222;267;319;365
277;191;152;151;176;237
467;479;490;505;512;518
616;561;532;517;501;482
632;491;394;334;298;303
589;613;603;584;553;530
574;662;714;735;722;674
578;502;463;440;428;424
570;549;530;517;505;507
572;678;744;781;784;751
583;551;546;550;555;554
576;507;463;442;439;461
568;660;713;745;753;740
570;603;637;661;673;662
570;483;436;417;421;449
558;600;620;633;638;643
554;645;710;751;766;746
558;483;450;439;447;471
542;528;517;513;517;539
534;646;719;762;777;762
540;511;510;519;533;546
530;467;429;413;416;450
523;618;677;713;727;723
527;558;592;618;634;631
525;440;396;379;384;418
513;559;583;599;607;615
510;600;665;706;724;707
513;437;405;396;405;430
495;487;478;478;483;506
490;602;675;721;738;724
495;465;464;473;488;504
483;423;388;375;380;416
472;574;637;675;691;688
476;507;542;569;587;586
476;394;352;336;342;378
463;514;542;560;569;579
466;553;618;660;678;662
479;399;364;354;362;390
469;460;451;450;453;475
473;579;649;693;708;692
485;448;441;447;459;471
484;420;382;365;366;397
484;580;638;673;684;674
498;517;544;565;577;573
503;413;364;345;345;374
500;546;569;583;586;589
510;588;645;681;692;670
528;440;397;382;384;404
527;513;499;493;491;505
534;634;699;737;746;724
551;506;492;492;498;505
548;483;441;420;417;443
550;644;700;731;737;723
563;576;598;615;623;615
567;476;425;401;399;424
561;609;633;645;647;647
566;643;699;733;743;720
573;488;446;430;433;453
559;556;547;544;545;559
556;663;733;774;787;768
563;522;514;516;526;538
553;497;462;446;448;478
546;650;712;749;760;750
554;570;595;616;630;628
555;470;423;403;405;436
544;600;629;646;652;656
546;625;683;719;734;715
552;468;429;415;421;447
536;537;533;533;537;555
534;641;713;757;773;756
542;499;489;492;505;519
535;480;446;432;434;466
530;633;696;734;746;735
539;550;573;593;607;607
538;454;407;386;388;420
529;586;617;636;642;646
534;608;664;699;713;696
543;457;415;400;405;431
529;532;529;529;531;547
528;634;705;748;763;745
539;493;480;482;492;505
533;480;446;431;433;463
530;634;698;735;745;733
535;546;566;585;598;597
534;451;405;385;386;417
524;585;619;639;646;649
531;603;658;693;707;691
538;451;410;395;400;427
527;533;531;532;535;551
525;631;703;747;761;744
535;487;473;474;484;499
527;477;445;431;434;463
524;629;693;732;743;730
536;540;558;576;589;589
535;450;403;383;384;413
523;586;620;641;648;651
525;595;649;684;698;682
530;444;402;387;393;422
519;528;528;530;534;550
514;620;693;737;753;738
521;472;458;459;469;486
502;458;431;421;425;457
488;601;671;714;728;717
491;499;521;543;560;565
494;414;371;353;358;392
488;554;592;617;628;632
495;562;615;649;666;653
502;415;373;358;365;396
501;511;511;513;516;532
511;610;679;720;734;717
528;470;449;445;451;466
524;475;441;426;424;450
524;628;691;728;735;717
532;530;544;559;569;567
532;449;402;380;379;405
523;591;628;651;657;656
527;589;639;672;686;671
532;443;400;384;389;418
525;537;540;543;546;560
525;627;696;740;754;736
531;476;456;453;462;479
507;469;444;435;438;466
470;592;669;715;732;719
398;431;470;504;531;542
277;261;260;272;301;352
213;339;426;490;536;566
225;314;397;464;514;534
284;195;164;168;200;259
410;381;364;364;374;403
572;593;610;623;620;598
632;513;441;399;374;371
591;530;474;433;401;402
562;670;725;744;730;687
565;559;566;570;565;545
564;484;435;408;396;409
560;632;671;692;693;679
570;624;669;698;704;683
579;486;438;418;418;441
568;586;590;593;592;600
565;665;734;775;788;767
571;509;486;480;487;501
558;520;495;484;484;508
553;662;731;769;781;762
557;548;559;573;586;588
546;470;426;407;409;439
533;612;659;688;699;700
533;590;639;673;689;679
535;448;405;390;399;433
521;546;557;565;572;588
517;620;692;737;757;742
524;463;441;437;449;468
514;480;457;449;453;481
507;619;689;731;745;729
513;503;514;528;543;549
503;430;388;371;374;405
489;573;622;654;667;669
490;546;594;629;647;639
488;404;364;351;360;396
472;504;519;531;540;555
470;574;648;694;716;703
475;414;392;390;403;426
463;435;416;410;416;445
463;574;645;689;705;690
476;462;469;484;498;506
473;398;353;335;337;370
467;549;597;627;639;639
476;524;566;597;612;603
487;395;349;331;336;369
486;510;520;527;530;541
495;587;652;693;707;688
508;436;405;395;399;417
503;469;445;434;433;454
508;614;678;716;725;704
528;504;503;511;519;520
530;450;400;376;373;398
533;611;654;680;686;678
545;584;620;644;653;639
554;460;410;388;387;414
549;576;586;591;590;595
557;648;713;751;761;738
571;495;462;449;451;466
561;531;508;496;494;512
560;668;735;773;781;758
571;548;548;555;564;566
567;492;446;425;423;450
562;647;696;726;734;727
564;606;645;671;684;673
563;475;430;411;415;446
549;584;600;611;616;625
551;646;713;755;771;753
558;486;454;445;453;473
543;520;503;496;498;522
538;649;719;761;775;757
548;525;526;536;549;557
539;469;426;408;410;442
528;620;674;708;721;718
535;574;613;641;656;650
540;451;405;387;392;425
526;564;582;594;600;610
527;621;688;730;746;728
536;462;430;420;428;449
525;505;489;482;485;507
524;633;703;745;759;740
535;508;507;515;528;536
530;460;418;398;400;431
525;617;671;703;715;709
529;565;601;628;642;635
533;444;398;380;385;416
523;563;582;595;599;608
526;617;682;724;738;719
533;457;423;412;420;441
523;506;490;485;488;508
525;633;702;743;757;737
537;506;503;509;521;530
528;460;418;399;401;432
521;615;671;705;717;711
529;561;594;619;633;627
536;446;398;379;382;413
523;566;585;599;604;610
525;615;678;719;733;714
531;453;419;408;414;437
515;502;491;487;490;511
509;620;693;737;752;734
516;487;485;494;508;519
501;441;404;389;393;427
486;589;651;690;704;701
487;522;559;588;606;604
494;408;365;350;356;391
489;534;557;574;581;591
494;581;645;686;701;685
502;422;386;376;383;407
495;483;470;466;470;490
503;608;677;718;731;713
522;483;475;478;488;497
522;454;411;390;389;419
517;613;670;703;711;701
525;548;576;598;609;603
532;442;393;371;372;401
527;571;592;605;608;611
531;613;673;710;722;700
539;455;416;402;407;427
526;517;506;502;504;521
523;631;702;744;758;738
526;492;486;491;503;515
508;451;416;402;405;438
465;581;651;695;712;708
382;445;501;542;571;579
262;242;243;259;290;345
201;308;381;438;482;518
207;322;417;491;542;558
280;195;168;175;208;261
424;364;328;319;326;359
581;604;619;628;621;597
620;526;470;436;412;405
580;504;440;396;364;371
558;657;707;725;710;676
563;580;600;611;606;582
572;481;430;402;392;405
572;619;641;652;649;638
579;653;707;740;745;716
586;496;453;435;435;451
569;565;556;553;551;562
564;671;741;782;795;773
571;528;518;520;529;540
559;502;466;450;452;482
548;653;717;755;766;755
551;567;593;614;630;628
546;463;418;399;403;435
534;591;622;642;651;656
535;614;674;712;728;712
541;456;416;403;411;439
525;528;524;526;530;549
520;630;703;748;765;750
526;485;475;480;492;508
513;461;430;417;423;456
503;612;679;719;734;725
506;522;547;570;587;589
502;422;379;361;367;401
493;554;589;610;620;627
491;570;629;668;686;672
495;412;374;363;371;403
478;486;487;491;497;518
474;584;659;706;725;711
482;439;429;434;448;466
472;421;391;380;386;420
467;574;642;682;698;688
476;485;507;528;545;547
477;394;348;329;333;366
472;532;565;587;595;600
478;550;604;639;655;639
493;402;359;343;349;377
486;491;488;488;490;506
493;595;663;705;718;699
510;457;438;436;443;456
507;453;418;402;400;427
510;612;674;710;718;700
528;527;541;556;566;561
535;446;395;371;367;393
535;592;622;640;642;639
544;608;657;688;698;676
557;464;416;396;397;421
551;556;552;550;548;559
556;656;723;763;773;751
568;513;493;487;493;503
560;510;477;461;459;483
556;662;727;764;772;753
567;566;581;595;607;604
564;481;432;411;410;438
553;619;655;677;684;684
555;621;672;705;718;702
563;472;428;411;416;445
551;563;565;568;570;585
547;651;722;765;781;764
553;499;481;479;488;505
540;496;469;457;459;487
533;644;713;752;764;749
540;539;556;573;587;589
537;457;411;392;394;425
528;597;637;662;672;674
529;593;644;679;695;681
537;448;404;388;395;428
526;543;547;551;556;571
526;630;701;744;760;745
534;479;459;456;465;482
524;483;456;444;446;475
522;632;700;740;751;735
531;527;539;556;569;570
527;448;402;383;384;414
518;591;632;658;669;670
522;583;631;665;680;667
529;439;395;379;385;417
519;539;544;549;553;567
522;622;692;736;752;735
534;473;451;445;453;471
524;483;457;445;446;472
522;630;698;737;748;730
530;521;532;546;559;560
526;447;401;380;381;410
518;593;635;662;672;671
525;581;628;659;673;661
530;440;395;378;383;414
514;538;547;554;557;571
511;614;685;731;747;731
520;460;437;433;442;462
502;470;447;439;442;470
497;610;681;724;738;721
509;498;509;525;539;544
500;426;383;364;368;399
489;570;617;647;660;661
495;551;599;631;648;639
504;414;370;354;361;395
502;524;532;540;544;558
512;608;673;716;731;714
530;461;432;423;429;446
522;485;458;446;445;468
520;628;695;732;741;721
530;515;521;531;541;542
533;453;406;384;382;409
528;605;649;676;684;680
531;580;622;651;664;651
534;444;398;380;384;414
525;552;563;570;574;585
525;623;692;734;750;731
527;463;437;431;439;457
490;469;454;449;455;481
418;558;647;702;725;714
300;346;396;437;476;498
197;194;205;228;267;327
162;295;390;464;518;553
191;262;332;396;448;476
328;208;155;147;170;227
520;463;423;407;401;415
614;631;639;639;623;589
603;500;433;388;358;352
571;533;492;457;428;423
567;672;730;753;741;695
581;556;552;551;545;527
585;505;455;426;413;425
583;663;707;731;731;713
587;627;663;686;692;672
587;495;447;426;425;449
576;608;620;628;628;632
573;667;733;774;788;764
577;506;476;466;472;489
561;536;518;510;513;534
554;665;736;777;791;772
560;539;542;552;566;573
551;481;439;421;423;455
540;630;684;717;730;728
539;583;624;653;669;663
537;451;409;393;400;434
524;562;582;595;602;615
523;619;689;733;751;735
529;458;429;421;431;454
516;496;481;476;481;505
511;623;695;738;753;738
514;493;497;508;522;533
504;438;400;384;388;422
492;587;645;681;695;694
491;534;575;605;623;619
488;406;364;350;358;395
477;520;541;558;567;580
477;572;642;686;705;690
481;409;380;373;384;409
465;450;439;435;442;467
464;576;648;693;710;695
479;450;451;461;476;487
475;406;366;349;352;385
468;561;617;652;665;661
478;511;546;573;588;582
486;396;350;331;336;367
485;522;540;552;556;563
492;579;641;680;694;673
509;427;390;376;381;401
507;485;466;458;458;476
514;617;682;720;730;708
534;497;488;490;498;504
535;463;417;395;391;417
538;627;679;708;713;701
552;577;604;624;632;620
561;468;417;392;391;415
554;594;612;621;622;623
558;643;704;739;750;726
568;485;447;432;435;454
555;541;526;520;519;536
557;664;732;773;783;762
569;533;526;531;540;548
562;495;454;435;434;464
556;652;708;742;752;742
560;585;616;638;652;645
562;473;425;405;408;438
549;596;620;634;639;644
547;634;697;736;752;732
555;474;437;425;431;455
542;532;521;518;522;542
537;647;719;762;777;760
546;510;505;510;523;535
538;476;438;421;423;457
534;633;693;729;740;733
538;561;591;614;628;625
536;450;405;386;389;421
525;577;603;619;627;633
529;613;675;714;730;711
537;455;417;405;411;436
527;520;511;509;512;532
526;635;706;749;763;747
536;497;490;494;506;519
529;469;431;414;416;449
525;626;688;723;734;725
531;551;579;600;615;611
530;444;398;379;381;412
520;573;601;619;624;630
525;606;665;704;718;699
532;448;408;396;401;427
520;516;509;507;510;529
518;626;697;741;756;739
528;487;478;481;494;506
518;461;424;409;412;444
512;616;679;717;729;719
518;535;562;584;598;597
516;431;385;366;369;401
498;557;589;609;617;622
497;579;641;681;698;681
505;421;384;372;381;408
491;493;490;491;496;516
488;599;673;718;735;720
500;457;449;453;465;481
496;440;405;391;395;427
503;604;665;702;713;702
520;528;548;567;579;577
528;437;386;363;362;391
522;576;603;619;623;624
523;598;653;688;700;679
531;444;402;386;390;414
525;525;519;518;520;534
527;632;702;744;757;737
538;490;476;476;485;496
530;475;439;424;424;453
526;631;694;732;742;727
530;540;561;580;594;592
523;441;394;375;377;408
484;556;596;621;632;637
406;514;593;645;672;663
279;261;267;285;318;366
183;257;310;355;399;446
164;316;432;518;577;598
216;181;191;222;267;318
357;263;214;202;218;270
546;561;570;579;575;561
622;557;518;495;475;455
597;485;401;346;311;315
568;624;640;637;614;588
566;634;680;699;691;649
576;485;437;411;400;409
572;575;570;565;556;555
580;679;745;782;788;758
592;535;514;509;511;516
578;528;493;477;473;494
569;677;741;778;786;764
577;579;596;612;623;619
573;489;441;420;421;447
558;624;661;684;692;692
555;624;678;713;729;713
556;469;428;413;421;451
542;555;558;562;567;584
537;644;716;762;779;765
542;490;475;475;486;505
527;484;456;446;450;481
522;632;701;741;754;741
528;529;547;565;581;585
524;443;399;380;383;415
509;580;622;647;658;662
507;574;630;666;684;671
509;424;384;372;380;414
493;512;519;526;533;552
489;597;672;719;738;726
494;442;427;429;441;461
480;442;417;409;415;446
474;587;657;700;716;704
479;480;498;518;535;540
476;399;356;338;343;376
469;542;584;611;623;628
473;536;587;623;640;629
481;393;351;337;344;376
474;490;495;502;506;523
476;578;648;693;709;695
487;428;407;404;413;432
484;441;413;401;402;430
488;593;658;697;707;690
504;494;503;515;527;527
510;425;375;352;350;377
513;579;617;639;644;641
524;576;619;648;658;640
538;443;393;372;373;399
534;549;550;552;550;558
541;637;702;741;751;730
554;489;462;453;458;470
549;508;478;463;460;481
549;655;720;756;763;740
562;549;557;567;576;574
563;481;432;408;405;430
557;630;672;695;702;697
560;614;658;688;699;684
564;474;427;409;412;441
553;576;583;589;591;602
553;653;722;765;779;761
560;497;473;466;473;490
547;513;489;479;480;505
542;652;721;762;774;754
550;538;547;561;573;577
547;469;424;404;405;435
537;617;662;690;701;701
542;594;638;670;684;673
547;457;412;395;400;433
534;560;570;578;583;596
533;632;702;745;763;746
542;477;452;445;453;472
530;498;476;466;469;495
524;634;704;745;758;740
532;519;525;538;552;557
527;453;409;390;392;423
519;602;650;680;692;691
523;573;616;647;662;654
530;441;397;379;385;417
520;549;561;570;574;586
522;620;689;731;748;730
532;464;436;428;436;455
519;491;471;462;464;489
516;626;696;737;750;732
527;509;514;525;538;543
524;449;405;386;387;417
517;602;650;681;692;690
525;569;609;638;652;643
527;438;393;375;381;412
517;548;563;571;576;587
514;611;681;723;740;723
522;453;425;417;425;446
509;484;465;460;462;486
497;611;683;727;741;724
498;483;491;504;520;528
497;426;385;368;372;406
490;578;631;665;678;677
492;536;578;608;624;618
497;409;366;349;355;391
493;526;542;553;558;570
502;594;660;701;716;699
523;445;411;401;406;425
520;492;469;460;458;479
524;628;693;732;741;719
534;508;507;513;521;525
528;456;412;391;389;417
528;614;665;695;704;697
540;575;610;634;645;634
540;450;404;384;387;416
528;565;582;592;596;603
531;623;689;730;744;724
539;464;431;421;428;447
520;502;486;481;484;506
503;618;692;736;752;735
457;453;468;487;507;521
339;322;317;323;345;391
224;384;491;562;608;630
200;285;367;434;488;515
223;158;142;156;195;262
309;329;346;371;397;432
487;507;532;555;565;553
621;462;370;322;300;309
606;547;489;446;413;411
570;670;718;735;716;671
569;538;527;519;508;493
565;496;449;421;405;416
566;655;708;734;732;710
580;606;635;655;659;639
584;492;441;419;415;437
569;610;628;638;638;638
565;655;719;757;769;744
569;492;458;446;451;470
557;543;530;525;526;545
557;664;734;775;788;769
565;533;530;536;548;556
554;488;449;432;433;464
541;638;698;733;745;740
545;575;609;634;650;645
546;460;414;396;402;435
532;578;602;618;624;633
528;618;683;724;740;723
533;456;422;412;421;446
519;510;500;499;504;525
516;625;697;741;758;742
522;490;487;494;509;522
508;448;412;397;401;437
499;600;662;700;714;710
503;531;564;590;607;606
497;416;374;358;364;399
482;535;564;583;591;601
480;570;635;679;698;682
483;407;374;366;378;405
469;465;459;460;467;490
469;579;652;698;716;703
480;446;442;449;463;479
475;415;380;365;368;403
471;571;632;669;683;677
481;502;531;555;569;567
486;399;353;335;337;369
481;528;553;570;576;582
491;569;627;665;679;659
506;419;378;363;368;391
502;492;481;476;476;493
508;611;677;716;728;708
525;480;468;468;477;487
521;457;417;398;396;424
525;620;677;710;717;703
542;553;574;591;601;593
548;457;406;382;379;405
543;591;614;627;629;628
551;625;680;714;723;699
563;474;432;414;416;436
558;551;540;535;533;546
558;662;729;769;779;758
568;524;512;513;520;529
559;501;464;447;445;474
554;656;718;753;763;749
559;574;598;617;631;626
557;474;427;406;409;438
548;603;632;651;657;660
548;625;684;720;735;717
551;468;429;415;422;448
538;540;537;537;541;559
536;643;715;758;774;758
544;500;490;493;504;520
534;480;446;432;436;468
529;633;697;735;748;737
535;547;570;590;605;604
536;452;405;385;387;420
526;584;615;634;642;646
527;602;658;695;709;693
531;446;406;393;399;426
522;526;523;525;528;545
525;630;699;743;758;741
536;488;474;476;486;500
525;474;441;427;429;458
523;628;692;729;741;728
532;540;560;578;592;591
532;449;402;381;384;413
522;583;616;636;644;646
526;598;653;688;702;686
533;447;406;391;396;424
525;532;530;531;534;549
523;629;699;742;759;740
531;483;469;470;480;494
520;472;441;428;432;460
512;621;688;727;740;726
518;524;545;564;579;581
510;431;387;369;373;405
495;562;601;625;636;641
499;570;625;663;679;666
504;418;378;365;373;404
491;503;506;510;517;535
492;597;669;714;731;717
505;453;437;437;449;466
501;452;421;407;410;441
509;611;674;711;721;706
530;524;536;550;561;560
536;448;397;373;370;397
529;591;624;644;647;645
528;594;644;676;687;669
534;446;402;386;390;416
528;539;541;542;544;557
531;632;702;743;758;738
542;487;468;464;473;486
532;487;457;443;445;471
530;637;703;740;751;734
533;533;549;565;578;578
516;442;400;382;384;414
463;550;602;635;649;655
374;481;561;615;646;644
273;248;250;270;305;358
234;295;341;382;420;465
257;377;473;544;592;607
346;274;255;264;292;332
483;382;322;297;295;331
603;636;650;655;642;616
612;568;542;524;505;486
571;485;421;378;351;358
547;621;654;666;655;635
550;610;656;681;682;652
558;468;422;401;398;416
556;570;573;574;571;576
561;658;724;764;774;749
571;508;485;477;481;491
559;519;490;477;476;497
552;662;728;766;775;755
557;550;562;576;588;587
552;475;431;410;411;438
540;615;659;686;697;696
540;599;647;680;696;684
543;456;413;398;406;437
529;553;563;570;575;590
525;628;700;745;763;747
531;473;452;449;459;478
521;486;462;454;458;486
517;626;695;736;750;735
522;513;524;539;554;559
514;440;396;378;381;413
505;584;630;659;672;673
505;561;609;641;659;650
504;418;378;364;372;406
488;517;530;540;547;563
486;588;660;707;726;713
489;430;409;407;418;441
475;446;426;419;425;455
470;582;654;698;713;699
477;467;478;494;510;517
473;400;359;342;346;379
468;549;598;627;640;642
474;526;571;603;619;611
482;393;349;334;341;374
475;502;513;523;527;540
480;576;644;687;703;686
491;425;398;391;399;417
487;454;431;422;423;446
491;597;664;703;715;694
507;487;490;500;511;513
508;431;384;362;361;388
510;587;631;657;666;661
522;563;601;627;638;626
534;439;390;370;370;399
531;555;564;568;569;576
539;629;692;730;741;719
553;480;447;434;438;452
548;515;490;477;475;493
551;655;720;755;763;739
563;539;540;546;554;554
561;485;438;415;412;437
556;638;686;712;719;712
559;601;639;665;677;665
559;471;425;407;410;439
550;583;597;606;609;617
551;645;712;753;767;748
554;485;456;447;454;473
542;518;501;493;496;518
538;648;718;759;773;754
544;523;527;537;551;557
535;467;425;407;411;442
528;616;669;701;714;712
533;574;613;642;657;651
537;449;404;387;392;426
527;563;580;591;597;607
526;619;686;729;745;728
533;461;430;422;430;451
520;499;483;477;480;503
517;626;696;738;752;736
525;501;503;512;525;534
519;450;409;391;393;426
515;605;658;691;702;698
522;559;594;622;636;630
527;438;392;374;378;410
518;556;573;585;589;598
519;610;675;716;731;713
528;453;420;410;417;438
519;499;483;477;480;500
518;626;695;736;749;730
527;500;499;507;519;527
523;456;414;395;397;428
517;609;664;697;708;702
518;554;590;616;630;624
516;432;388;372;376;409
501;546;569;583;590;599
497;590;659;702;720;703
504;431;401;392;403;427
493;479;468;465;470;493
492;602;673;717;732;716
499;471;470;479;493;505
495;429;390;375;378;411
496;588;643;677;690;685
509;536;567;591;604;599
522;430;380;360;361;391
522;559;576;586;589;593
527;610;669;705;717;695
537;455;417;403;407;426
528;512;497;490;490;507
531;635;703;742;753;732
541;506;500;504;512;521
536;470;430;411;410;439
530;625;682;715;725;715
536;563;594;616;629;622
537;451;405;385;388;418
521;570;595;610;616;621
490;588;659;703;721;706
416;373;361;366;385;417
286;340;373;403;432;471
226;390;507;589;639;651
232;231;262;303;352;396
281;221;197;202;231;292
412;464;502;533;553;560
569;516;495;490;487;480
607;467;375;321;295;309
569;600;599;587;564;547
554;633;682;703;694;652
564;479;434;411;400;404
562;549;533;524;513;514
569;669;733;769;773;741
585;540;526;525;529;529
578;513;472;450;447;468
568;666;723;756;762;746
569;590;616;636;647;639
564;480;434;414;416;444
555;607;633;650;655;658
555;636;696;734;748;728
562;479;441;428;434;458
546;543;537;536;539;557
542;651;722;765;780;764
548;510;502;506;519;533
534;480;447;432;436;469
524;629;693;732;746;737
527;547;575;599;615;615
521;440;397;381;386;420
512;568;599;619;629;636
510;591;653;692;709;694
516;434;398;387;396;424
500;502;499;501;507;527
496;605;677;723;741;728
503;463;455;460;475;491
492;439;408;395;399;434
484;590;655;694;709;701
486;503;530;553;570;572
480;401;358;342;348;382
471;531;563;585;596;603
475;552;611;649;667;653
484;400;362;349;358;387
479;480;476;477;481;500
484;587;656;699;714;699
496;450;438;439;449;463
491;437;403;388;390;419
492;593;655;692;703;689
505;512;532;550;562;560
510;424;375;355;354;383
512;566;594;611;615;616
522;590;641;673;683;663
531;443;399;381;384;407
527;528;523;520;520;532
533;633;701;740;751;730
551;498;480;477;483;493
548;493;456;439;436;462
550;648;709;743;750;732
560;562;577;592;602;596
558;473;424;401;400;425
550;609;641;659;665;664
553;621;673;706;718;699
560;472;430;412;417;442
549;556;555;555;557;571
550;652;721;763;778;759
559;508;492;491;499;513
547;499;469;456;456;484
541;647;712;751;761;747
547;551;569;587;600;601
544;464;418;399;401;431
534;600;636;659;668;670
537;604;657;692;708;693
538;453;412;398;406;436
524;537;540;544;549;566
525;629;700;745;761;746
533;482;466;465;477;494
522;478;450;439;441;471
519;626;692;732;744;730
527;528;545;562;576;578
526;446;400;381;384;413
517;585;623;647;657;658
525;587;637;670;685;671
532;444;401;384;390;420
521;535;538;541;544;559
521;623;692;736;751;735
532;476;457;455;464;480
521;478;450;438;440;468
520;626;691;730;741;725
527;524;538;554;567;568
524;445;400;380;381;410
516;586;625;650;660;660
518;579;629;662;678;664
520;435;393;377;385;416
509;528;534;540;544;560
506;610;681;726;743;728
508;455;438;437;448;467
493;458;435;427;431;460
496;604;673;714;727;713
503;499;513;529;545;548
498;422;379;361;364;395
494;567;609;635;646;648
501;559;606;639;655;643
512;423;378;363;368;400
512;527;531;536;538;551
523;618;683;723;736;718
537;472;445;438;444;459
524;485;457;444;443;467
524;630;694;731;741;721
538;526;534;545;556;556
537;457;410;387;386;413
529;603;644;670;677;674
534;587;632;661;674;662
538;450;405;388;392;422
521;546;555;562;565;577
516;617;689;733;750;734
501;449;432;432;444;464
414;412;411;415;429;463
283;455;567;639;676;680
202;260;323;379;430;464
178;150;151;174;216;282
210;301;369;428;473;508
360;370;399;434;463;475
545;373;278;235;226;258
602;559;514;482;455;451
578;649;684;694;676;635
572;499;456;428;407;399
566;528;494;469;449;449
572;673;732;760;755;716
589;567;567;570;569;555
589;507;456;431;421;436
583;657;699;722;725;712
583;629;668;693;702;684
582;494;448;428;430;456
567;595;607;614;617;624
565;661;729;771;785;767
569;503;478;470;478;495
556;528;507;500;502;526
551;659;728;769;782;764
555;539;545;558;571;577
547;476;433;415;417;449
538;622;672;703;715;715
536;585;628;658;674;667
538;453;411;395;403;437
522;556;573;584;591;604
519;617;687;732;750;735
523;458;433;428;438;460
510;487;470;465;471;497
506;617;687;730;745;730
512;495;501;513;528;537
504;435;395;379;383;415
493;582;636;669;683;683
491;538;581;612;630;625
490;407;367;353;363;397
478;515;533;547;556;570
480;575;644;689;708;694
487;418;390;384;394;418
476;454;438;433;438;463
478;585;654;697;711;696
491;467;469;479;492;500
486;415;373;355;357;388
483;570;622;653;665;661
492;529;567;593;607;599
501;411;365;347;350;381
499;531;546;555;558;566
510;597;659;697;710;689
527;449;413;401;403;421
522;497;476;467;464;482
526;629;694;732;740;718
543;512;508;513;521;524
543;469;424;402;399;425
542;628;678;706;714;704
553;584;616;638;648;636
562;471;421;399;399;426
554;590;605;613;614;618
559;646;708;745;756;733
566;489;454;441;445;462
554;536;519;512;512;530
551;658;726;766;778;757
557;528;528;534;545;553
548;482;442;423;425;456
542;634;690;723;734;728
547;579;613;638;652;646
549;462;417;399;402;434
540;580;600;614;618;626
541;629;693;733;747;728
545;469;435;425;432;455
531;518;505;501;504;525
528;637;707;749;763;746
537;506;504;512;525;536
528;465;426;410;413;445
525;620;677;712;724;717
531;561;592;617;632;627
533;448;403;385;389;420
523;568;590;605;610;618
526;613;675;715;730;711
535;457;421;409;416;439
522;512;500;497;500;519
523;630;701;742;755;738
533;499;495;501;513;524
526;464;425;409;410;442
522;618;676;711;722;715
527;552;582;606;619;616
525;440;396;378;381;413
517;564;588;603;609;616
521;604;666;704;719;700
529;449;412;401;408;430
517;508;498;496;499;518
516;622;691;733;748;731
519;485;481;487;499;512
508;450;414;400;403;436
501;602;663;700;713;707
503;528;559;583;599;598
502;420;376;360;365;398
496;546;573;591;598;605
495;579;640;681;697;680
503;424;388;377;385;411
495;490;482;481;485;505
498;603;672;715;730;714
512;473;465;469;479;492
512;451;413;397;397;427
516;611;669;702;712;701
528;543;566;585;596;591
531;444;396;375;375;403
526;575;600;614;618;620
531;608;665;700;711;690
542;456;416;400;404;426
530;526;518;515;516;531
526;631;701;743;756;738
536;495;485;489;499;511
526;471;435;420;422;452
515;619;682;719;731;721
487;515;548;575;593;594
396;352;334;332;349;389
255;379;458;510;547;573
181;325;437;518;573;588
171;133;139;168;217;280
215;223;239;266;303;356
380;432;479;521;546;549
571;437;369;339;332;342
610;491;403;347;315;326
579;658;688;692;668;630
568;574;580;578;563;535
567;481;426;393;373;380
565;618;641;651;642;625
577;645;694;722;724;690
591;499;453;433;429;441
581;579;571;567;562;569
582;683;748;786;795;770
587;540;525;524;529;537
574;522;488;473;472;495
565;669;733;769;779;764
564;575;596;617;630;628
559;480;435;416;419;449
547;608;642;663;672;676
546;619;675;712;727;713
550;467;427;414;421;450
534;543;543;546;551;569
531;636;707;752;770;755
539;493;480;482;494;511
524;477;448;436;441;473
513;622;689;729;743;733
516;526;548;570;587;589
511;434;392;375;380;413
499;565;602;626;637;643
499;571;627;666;683;671
502;420;381;370;379;411
488;501;504;510;516;535
485;592;664;711;729;717
492;445;433;435;449;467
478;435;409;399;405;436
474;582;650;691;707;695
480;485;505;525;543;546
478;400;357;339;344;377
471;536;573;598;609;613
478;544;595;631;646;633
489;400;358;344;351;381
481;492;493;496;500;515
490;589;656;697;713;696
510;452;431;427;436;450
505;456;424;408;408;434
508;610;671;706;715;697
523;517;529;542;552;549
527;443;394;370;368;393
524;587;621;642;646;643
534;592;638;667;678;662
546;455;408;388;390;416
542;552;552;552;552;561
548;645;710;749;761;739
563;504;481;474;479;491
558;511;480;465;463;486
555;660;723;758;765;745
563;558;570;583;593;590
559;481;433;412;411;437
548;618;658;681;689;687
551;612;660;692;706;691
556;468;426;409;415;444
543;561;567;572;576;590
544;643;714;756;772;756
553;495;475;471;480;497
542;501;475;464;467;493
539;646;713;751;763;746
546;540;552;566;579;581
541;464;419;400;400;430
531;604;646;672;682;682
532;590;639;671;686;675
533;447;405;391;398;430
523;545;553;560;564;579
524;623;693;736;753;738
533;474;452;448;457;476
526;489;463;453;455;482
525;632;699;737;749;732
531;523;533;547;560;563
525;450;408;388;389;419
518;594;638;665;675;675
525;579;624;656;671;660
531;442;399;382;388;420
521;544;553;559;563;577
526;622;690;732;748;732
534;472;448;442;450;467
521;488;465;455;457;483
521;628;695;735;746;728
532;518;526;539;551;554
527;452;407;387;389;417
519;596;641;669;680;679
524;575;619;648;663;653
526;439;395;379;385;417
517;543;553;561;566;579
521;617;684;726;743;727
527;464;438;432;439;459
513;483;462;453;455;481
511;619;688;729;741;724
515;502;510;524;538;543
503;433;393;376;379;410
498;580;629;660;673;673
502;552;596;627;644;636
502;417;375;361;368;402
493;523;537;547;554;567
496;593;661;705;722;707
508;441;415;409;417;437
504;473;451;443;445;469
513;616;681;719;731;711
532;508;509;517;527;530
530;453;406;384;382;409
523;604;650;677;685;680
529;573;612;639;650;638
535;445;399;381;384;414
525;555;568;576;579;587
527;621;686;728;742;722
533;465;436;427;435;453
523;496;476;469;471;493
518;626;695;736;749;730
511;496;504;516;531;537
447;399;373;364;373;409
323;463;551;608;641;653
214;329;422;491;541;561
186;151;155;181;227;294
193;251;297;342;385;432
293;368;434;490;528;538
488;343;273;247;249;277
605;497;419;373;348;356
602;667;691;693;670;627
582;547;525;506;487;467
566;494;441;405;380;386
567;650;694;715;706;680
576;611;642;661;661;635
586;493;442;418;413;430
579;611;623;629;626;623
580;668;730;767;776;749
583;509;476;464;467;481
568;547;531;523;523;540
564;672;740;780;792;770
569;543;543;551;563;570
558;490;451;433;434;465
551;641;695;729;740;735
553;589;625;653;668;661
554;467;422;405;411;443
541;581;601;613;620;629
539;630;696;737;753;736
544;470;439;429;437;460
529;513;500;496;500;523
522;633;704;747;762;746
527;502;503;513;527;538
517;454;417;402;406;439
508;604;661;697;711;708
509;545;582;610;627;624
507;424;382;367;375;409
492;538;564;580;588;599
489;581;649;692;711;696
493;421;391;384;395;420
478;468;459;458;464;489
475;586;659;704;721;708
486;457;456;467;481;495
481;417;379;365;369;404
477;571;629;664;677;674
483;513;545;571;586;583
493;405;359;340;345;376
488;530;552;565;570;577
494;577;638;676;690;671
505;424;387;375;381;402
500;485;471;466;467;485
504;608;674;715;726;706
519;482;474;478;487;496
517;451;409;390;389;417
520;611;665;697;705;696
535;554;579;600;610;602
542;451;402;379;378;405
534;578;598;610;612;614
540;620;679;715;725;703
552;469;429;415;418;437
546;533;520;514;513;529
549;653;719;758;768;747
560;521;512;514;522;531
553;491;452;433;432;460
548;645;705;737;746;735
552;575;602;623;636;630
555;468;422;402;404;433
543;593;618;635;640;644
545;625;685;723;737;718
551;470;432;420;427;450
538;532;524;522;525;544
537;643;713;755;770;752
544;505;498;502;515;527
533;476;440;425;428;460
526;627;689;725;738;730
532;551;579;601;615;614
534;449;404;384;388;420
526;578;604;621;628;633
527;606;665;703;717;699
533;451;413;400;407;432
522;520;514;513;516;535
521;628;698;741;756;739
531;490;482;486;496;510
524;468;433;419;421;452
522;622;683;720;732;722
530;545;569;589;603;601
532;448;401;381;383;414
524;579;606;624;629;633
527;603;660;697;710;692
535;451;411;397;403;428
525;525;520;519;521;538
524;629;699;741;756;738
530;487;478;480;491;505
523;468;434;421;424;454
520;621;683;720;733;722
525;537;560;580;594;594
524;442;395;376;379;410
521;576;605;624;630;634
525;597;653;687;701;684
531;446;406;391;397;422
521;523;519;519;522;538
522;626;696;738;753;735
530;485;472;473;484;498
523;471;438;423;425;455
516;621;685;723;734;721
517;530;553;573;587;587
514;435;391;373;376;407
504;566;600;623;631;636
501;576;633;671;688;673
506;423;385;373;382;411
495;504;504;508;513;531
494;600;672;718;735;720
499;454;443;446;458;476
492;445;415;404;408;439
492;597;661;700;714;703
509;512;529;548;561;563
518;431;382;360;361;391
520;576;605;623;629;629
525;589;639;670;681;663
531;443;399;382;384;410
524;530;528;529;529;542
528;628;696;736;749;730
538;485;467;465;473;486
526;479;448;434;435;462
520;626;691;729;740;724
527;530;548;565;578;578
520;441;396;378;380;409
501;571;610;635;645;647
461;545;609;651;672;661
376;332;320;325;347;388
246;325;377;415;449;488
196;355;473;557;611;627
208;189;207;241;288;339
261;216;199;208;237;294
418;468;506;537;554;553
585;499;458;442;433;428
614;479;383;325;293;300
575;625;635;629;605;580
560;620;658;672;661;622
569;479;428;401;387;396
565;575;572;568;557;555
571;667;731;768;772;742
586;524;500;493;492;498
579;531;499;483;478;495
574;678;740;775;781;756
578;573;585;598;609;603
571;492;446;424;424;449
560;631;671;695;703;701
561;621;669;702;716;702
563;476;433;417;424;455
548;567;573;578;583;599
544;647;717;761;777;762
548;494;475;472;483;501
535;499;474;465;468;496
528;638;708;748;762;745
533;529;545;561;576;580
523;449;407;390;395;426
512;588;633;661;674;677
515;575;624;658;675;667
516;431;391;377;386;420
502;526;535;545;550;567
500;603;675;720;739;725
506;449;431;428;439;460
490;458;436;429;434;463
483;594;665;707;723;709
487;481;496;513;529;536
481;407;367;351;355;388
473;550;597;627;640;644
478;534;581;615;632;624
483;397;354;340;349;383
476;499;508;516;522;537
481;578;646;690;707;692
495;431;406;401;410;428
488;452;428;417;418;443
493;597;663;700;711;692
507;491;497;509;519;521
507;430;383;361;360;387
506;581;623;649;656;652
517;566;606;634;645;631
528;436;389;370;372;400
522;544;552;557;557;565
530;623;688;728;740;719
547;477;448;438;442;456
539;504;478;466;464;485
542;646;711;747;755;733
554;536;540;548;558;558
551;475;428;405;403;429
549;626;670;697;704;697
555;599;640;667;678;665
557;467;422;403;406;435
547;574;585;592;595;604
547;642;710;751;765;747
556;488;460;452;459;476
543;514;493;484;485;508
543;650;717;756;768;750
552;533;537;548;559;564
545;471;428;408;409;438
534;618;667;698;709;706
537;583;625;654;669;660
539;452;408;392;398;430
529;561;576;586;592;602
528;624;692;735;752;735
537;469;442;434;442;461
526;500;482;475;478;501
524;632;701;742;755;737
530;511;516;526;539;545
525;455;413;395;397;427
519;605;656;688;700;697
529;569;608;636;651;642
530;443;399;381;386;419
521;554;571;580;586;595
523;617;683;725;740;722
532;461;431;421;429;449
523;499;480;473;475;497
523;629;697;737;750;731
534;509;510;519;530;537
528;457;414;396;396;426
525;611;662;694;704;700
530;567;604;630;644;636
530;443;399;381;385;417
523;558;575;586;590;600
524;615;681;722;736;718
531;458;427;418;424;445
521;500;484;478;479;501
522;628;697;738;750;731
533;506;506;514;526;533
527;458;416;398;399;429
522;612;667;698;709;703
526;562;598;624;638;630
529;443;399;381;385;416
519;558;578;590;595;604
521;611;676;717;732;714
529;454;422;412;420;441
518;502;487;482;485;505
519;625;695;736;750;732
526;498;498;505;518;527
517;451;412;395;397;429
509;602;659;694;706;702
510;545;580;607;622;618
507;423;381;365;371;404
492;537;560;577;585;595
495;585;651;693;710;694
501;427;394;386;395;419
490;477;465;463;467;490
491;598;667;711;726;710
503;472;469;476;490;501
502;435;395;378;379;411
505;595;649;683;693;686
515;542;571;593;606;599
521;433;386;365;367;397
512;556;576;587;591;596
520;604;665;702;714;693
530;449;413;400;405;425
521;508;495;490;490;508
522;627;696;736;748;728
534;499;493;498;508;518
525;462;423;406;406;436
511;610;670;705;716;709
505;537;572;597;612;609
474;404;369;358;366;401
383;466;515;548;569;585
259;409;518;590;634;637
191;177;194;225;271;326
170;202;234;271;315;371
216;329;418;487;535;552
384;299;272;276;299;330
555;405;312;264;249;278
603;636;640;634;611;584
586;583;577;566;544;515
577;482;417;375;348;351
569;611;625;625;607;587
575;651;703;730;727;687
586;500;456;436;430;436
579;568;555;547;541;544
576;680;746;784;791;763
584;544;535;536;542;547
575;515;477;459;457;483
572;670;728;762;770;757
574;593;619;639;650;645
571;487;441;422;423;452
556;609;637;655;661;664
555;636;697;735;750;731
557;477;440;428;436;462
539;540;535;536;541;560
535;643;716;760;777;763
545;504;497;502;515;531
535;479;445;431;434;468
527;629;692;730;744;736
527;546;572;594;611;611
524;443;400;382;387;420
511;567;598;619;628;635
507;588;649;688;705;691
508;429;393;383;392;422
493;497;496;499;505;526
489;597;671;718;736;723
496;456;449;455;469;487
486;435;403;391;397;432
481;586;651;690;705;697
484;501;526;548;565;567
486;405;362;344;349;382
481;537;569;589;598;604
485;560;617;654;670;654
490;407;369;356;363;392
482;486;483;484;488;506
486;590;660;703;719;703
502;455;441;443;453;467
500;445;410;394;395;424
503;603;663;698;709;695
515;520;539;556;567;564
520;434;385;363;362;390
517;572;600;618;623;623
526;593;644;677;688;669
538;448;404;386;389;413
532;534;528;526;525;538
538;637;703;742;753;733
552;500;482;479;485;496
548;493;458;441;439;465
548;649;709;743;751;734
559;561;577;592;602;598
558;474;425;402;401;427
549;610;642;660;666;665
553;621;673;706;719;700
560;473;430;413;418;444
546;556;555;557;558;572
544;648;718;760;775;757
551;502;488;488;498;512
542;495;465;452;455;483
539;644;710;748;759;745
548;550;568;585;598;598
542;462;417;398;399;430
532;598;634;656;665;668
534;603;655;690;705;691
538;452;411;397;404;433
526;539;541;545;550;566
526;629;699;743;759;744
535;483;466;466;476;493
528;482;452;440;442;472
525;630;696;735;746;731
532;531;547;564;578;579
528;449;403;384;385;416
521;588;625;648;657;659
525;588;638;672;686;673
533;445;401;386;392;422
523;537;539;542;546;561
524;626;696;737;752;736
532;479;461;459;467;483
524;482;453;441;443;471
520;628;694;733;744;728
528;525;540;556;569;570
527;448;403;384;385;414
523;591;629;653;662;662
526;586;635;668;682;667
531;443;400;385;390;421
522;539;544;548;551;566
523;624;692;735;751;734
532;476;455;452;461;478
521;481;454;444;445;473
516;624;691;731;742;726
524;519;532;548;560;562
522;445;399;380;382;411
518;588;628;654;664;663
522;579;626;658;672;660
530;441;397;380;386;417
524;541;546;550;554;567
522;622;689;732;747;730
530;471;449;444;453;470
520;483;457;446;448;474
514;623;690;730;742;725
523;515;527;541;555;557
521;445;400;381;383;412
515;589;632;658;668;668
519;575;622;652;667;655
520;434;392;376;383;414
505;531;542;549;554;568
504;605;676;721;738;723
505;448;428;427;437;456
489;459;438;432;437;465
488;598;668;710;725;711
493;485;497;513;528;534
488;415;373;356;361;393
487;562;607;636;649;650
492;544;588;620;636;627
503;413;368;351;358;390
502;523;530;536;539;552
513;605;669;709;722;705
527;459;430;421;426;442
518;482;456;445;443;465
517;623;688;726;735;714
529;512;517;528;538;539
528;451;406;384;383;409
523;600;644;671;680;676
527;575;617;645;658;646
529;442;398;380;384;415
513;544;556;565;569;580
504;605;676;721;738;722
483;431;414;413;425;447
392;399;402;410;426;460
259;434;550;623;664;668
185;237;298;353;406;442
165;138;140;162;206;273
206;297;366;425;471;504
374;371;392;421;447;458
568;387;285;237;224;252
620;580;534;500;469;459
597;663;694;700;679;633
587;510;463;430;407;397
574;542;512;488;466;464
575;678;741;770;764;724
589;563;562;564;564;552
588;510;462;437;429;445
580;661;707;733;737;724
582;623;660;685;694;678
582;493;447;427;429;456
571;603;616;625;627;633
572;664;729;770;783;763
578;507;477;467;473;491
557;536;519;512;514;535
547;660;731;773;786;768
551;533;538;549;563;570
542;475;436;419;423;455
535;623;677;710;724;722
538;580;619;647;664;658
537;451;409;393;400;433
523;561;579;592;600;612
519;615;683;727;744;729
522;454;427;420;430;453
505;488;475;471;478;502
501;612;685;728;744;730
506;484;488;499;515;527
496;430;392;378;382;416
487;578;635;670;685;684
490;530;569;598;615;612
488;405;363;348;356;391
478;519;539;553;562;574
478;571;638;681;700;684
488;415;384;377;386;410
479;460;446;441;445;469
479;586;656;697;712;696
490;463;462;471;483;493
486;419;378;361;363;394
484;575;629;662;673;668
493;526;560;585;598;592
499;412;366;347;350;382
497;535;553;564;568;575
508;592;654;691;704;683
523;443;406;393;397;416
517;497;480;472;471;489
521;625;690;730;739;718
537;502;496;501;509;515
537;466;423;402;400;427
537;626;678;708;715;705
548;574;603;624;633;623
552;462;413;392;393;419
548;587;604;614;616;620
553;636;695;731;743;720
561;481;444;430;433;452
551;535;520;514;514;531
553;657;723;764;773;754
562;527;521;526;535;543
550;487;447;429;430;459
540;636;694;728;739;731
547;574;605;629;643;638
548;463;417;398;401;432
539;584;607;622;628;634
539;624;686;725;740;722
544;466;432;420;428;451
532;523;513;510;513;533
530;638;708;751;765;748
538;505;500;506;519;530
531;471;434;417;420;452
528;625;684;719;730;723
533;558;587;611;624;621
532;449;404;386;389;421
523;572;597;613;620;626
525;608;670;709;724;705
533;454;417;405;412;437
526;517;506;504;507;526
526;630;700;742;756;738
533;495;488;493;505;517
526;466;428;413;415;446
526;623;682;717;727;719
534;553;579;600;614;611
532;447;401;381;384;414
520;572;598;614;621;625
522;603;662;701;715;697
529;448;411;398;405;430
519;514;506;505;508;527
523;627;696;738;752;735
534;493;484;487;498;511
524;467;431;416;417;448
520;620;681;717;728;718
527;545;571;592;605;603
528;445;399;380;381;412
517;572;600;618;624;628
521;599;658;695;710;692
527;445;407;395;401;427
517;515;510;509;513;530
518;623;694;736;751;734
529;487;477;480;491;504
521;466;430;415;417;449
517;618;679;715;728;717
522;537;561;582;595;594
522;439;394;374;377;407
514;569;599;618;625;629
516;591;649;685;701;683
523;439;400;387;393;420
513;513;509;509;513;530
515;618;687;730;745;729
522;478;467;469;480;494
510;458;425;412;414;446
506;608;672;710;723;712
511;523;546;567;582;582
502;424;381;363;368;400
487;550;585;607;617;622
492;568;626;664;681;666
499;416;378;366;375;404
486;492;491;494;499;518
486;592;663;709;726;711
497;452;440;444;456;472
496;444;411;397;400;431
507;605;664;700;711;698
522;525;541;557;569;566
525;439;390;367;366;393
517;575;605;623;628;627
524;591;642;675;687;668
533;445;402;385;388;413
524;529;526;525;526;540
523;625;694;735;749;730
530;481;467;467;476;488
519;472;440;427;429;458
509;616;683;721;733;719
505;515;538;560;575;576
470;404;369;356;364;397
378;479;539;578;602;615
253;388;490;558;602;609
190;168;179;207;252;313
177;225;264;305;349;402
230;337;424;492;538;555
395;296;258;254;272;305
568;431;344;299;281;305
622;659;667;663;638;602
599;577;560;544;521;493
577;491;429;387;359;360
567;630;658;666;652;628
573;635;681;705;703;667
583;492;445;424;419;432
575;584;581;581;576;579
574;674;740;780;789;764
582;526;506;502;507;517
571;526;495;481;480;503
568;672;735;771;782;763
573;571;585;600;612;610
564;485;440;419;421;449
549;619;659;683;692;693
550;614;665;699;715;702
552;466;425;411;418;449
535;553;559;565;570;586
532;636;707;752;770;756
537;484;467;466;477;496
525;486;460;451;455;485
519;628;696;736;751;737
522;522;538;555;571;575
514;440;398;380;384;416
501;576;620;647;660;663
501;565;617;653;670;661
505;421;381;368;378;412
494;514;522;529;536;554
493;595;667;712;731;718
496;443;425;424;435;455
483;448;425;417;423;452
478;588;658;700;715;702
484;481;495;513;529;535
482;405;362;346;349;382
478;551;592;621;632;634
482;539;586;619;635;625
489;401;358;343;350;383
480;500;507;514;519;533
486;584;651;695;710;694
498;437;414;409;416;433
494;455;429;417;419;443
499;602;666;704;714;696
513;500;508;519;529;530
515;435;387;365;363;390
516;587;626;651;656;653
526;576;617;645;655;640
539;446;398;379;380;408
531;552;556;560;560;568
538;632;698;737;749;728
552;486;459;449;454;467
547;509;482;469;468;488
550;653;716;752;760;738
559;544;550;559;568;568
557;480;432;411;408;434
553;629;671;697;704;699
561;609;650;677;689;675
565;476;430;410;414;443
551;576;586;592;595;606
550;647;716;756;771;753
557;492;467;460;467;485
545;514;492;483;485;509
541;649;717;757;768;750
548;534;540;552;565;568
541;469;425;406;407;437
534;615;662;691;702;701
534;584;627;657;673;664
538;451;408;392;398;431
528;557;570;579;584;596
528;624;692;735;752;736
536;470;444;437;446;465
527;499;478;470;473;496
525;633;701;741;754;736
532;516;522;533;545;550
528;456;413;395;396;425
522;605;654;685;696;694
529;574;615;643;657;647
537;448;403;386;391;422
526;557;570;579;583;594
528;622;689;730;745;728
534;467;438;431;437;456
525;499;480;473;475;497
523;630;699;739;752;733
529;509;513;524;536;542
527;455;413;393;395;425
525;608;659;688;699;696
530;570;608;636;650;641
534;446;400;383;387;420
525;558;572;582;586;596
527;619;685;726;740;723
533;462;432;424;430;449
521;499;481;475;477;498
519;627;695;736;750;731
528;505;507;517;529;536
523;454;413;394;396;426
516;605;657;689;701;697
523;561;599;626;640;633
529;441;397;379;383;415
518;555;571;583;588;596
518;610;676;718;733;715
526;454;423;414;421;442
515;496;480;475;478;498
514;622;691;732;745;727
522;497;498;507;520;528
515;448;408;390;393;424
506;598;654;687;699;695
510;547;584;611;627;622
511;426;383;366;372;406
496;537;559;573;580;590
494;587;654;697;714;698
503;430;399;391;400;424
489;474;461;458;462;486
487;595;666;709;725;709
496;469;469;479;493;503
495;428;388;371;374;406
500;588;641;674;685;681
514;542;572;595;607;602
524;433;384;363;364;395
519;557;573;583;585;590
523;609;669;706;717;696
533;455;419;406;410;429
522;507;492;486;486;503
521;628;696;736;748;728
530;500;497;502;513;521
522;458;419;401;403;433
514;610;667;702;713;706
514;546;580;606;621;616
497;420;381;366;372;406
443;508;544;568;581;594
349;481;576;638;671;667
250;236;250;274;313;360
204;241;273;309;349;401
219;348;445;518;567;582
317;268;264;284;316;353
485;353;276;244;241;280
608;622;621;618;601;582
617;598;584;570;548;520
580;485;418;374;347;351
558;603;617;616;598;580
559;642;699;727;726;686
573;489;449;431;426;433
566;553;539;531;526;532
571;673;738;775;782;755
578;540;532;534;540;544
568;506;467;449;448;473
561;659;717;751;759;748
563;586;614;636;649;643
560;477;432;414;416;445
549;599;625;640;647;653
546;630;691;730;746;728
552;472;437;425;433;457
537;533;527;525;529;550
535;642;713;756;771;756
540;504;498;504;517;531
528;471;436;423;427;461
521;622;683;721;735;728
522;544;572;596;612;612
520;438;395;377;383;416
510;563;591;609;618;625
509;591;651;690;707;691
512;433;397;386;395;422
497;497;492;493;499;520
494;602;674;719;736;722
500;463;457;463;477;493
488;434;402;390;395;429
479;583;648;687;703;696
484;504;531;555;573;574
483;403;361;344;349;383
476;531;562;582;591;598
480;558;617;656;672;657
487;406;368;357;365;392
479;479;474;476;480;499
484;587;657;700;715;699
498;454;443;445;456;470
495;439;403;388;388;418
497;596;656;691;702;689
508;518;540;558;570;567
511;426;379;357;358;387
511;562;589;605;611;612
522;591;642;675;686;666
534;445;401;384;387;410
529;527;519;516;515;528
536;635;700;739;750;728
551;501;486;483;490;499
547;490;453;435;433;459
548;646;705;739;746;730
559;564;582;597;607;602
562;475;426;403;401;428
555;610;638;655;660;660
556;627;679;713;723;705
561;477;434;419;422;447
551;556;552;553;554;568
547;652;721;763;778;759
556;509;496;496;506;520
546;496;466;452;454;483
541;645;710;747;759;746
543;551;572;592;606;606
540;461;416;398;400;432
531;593;627;649;658;662
534;604;658;694;709;694
538;453;413;399;406;435
525;535;536;539;542;560
526;629;700;743;759;744
537;487;473;472;483;499
528;480;449;436;439;469
525;629;694;731;743;730
533;537;553;572;584;586
530;450;404;385;386;416
519;584;619;641;650;653
521;589;642;676;691;677
528;442;401;386;394;422
521;531;532;534;538;554
526;626;695;736;752;735
539;485;467;464;472;488
527;482;452;439;440;467
523;629;695;733;743;728
531;532;548;565;578;578
529;450;405;386;387;416
522;588;625;649;657;658
528;592;642;675;689;674
533;446;405;389;394;424
525;538;541;543;546;561
525;626;696;738;753;737
533;480;463;461;469;486
525;481;454;442;443;470
523;629;695;734;744;728
532;529;543;559;573;573
531;451;405;385;387;415
522;590;628;652;661;662
525;586;635;668;683;670
528;442;400;384;391;421
514;532;538;542;547;562
515;616;686;730;746;731
524;469;450;447;457;475
514;474;447;436;439;467
511;618;684;723;736;721
518;514;528;543;557;559
513;437;393;374;376;406
503;576;618;644;655;656
500;563;614;648;664;653
498;416;378;364;372;406
491;512;521;529;535;552
493;593;665;709;727;713
500;444;425;423;432;452
489;453;429;420;424;451
491;599;665;705;718;703
508;498;508;522;535;538
514;433;386;365;365;393
516;584;622;646;653;651
526;577;620;648;659;644
529;439;394;376;378;406
522;541;547;552;553;564
527;623;689;730;743;725
536;474;449;443;449;465
524;488;462;452;452;476
525;630;695;734;744;726
530;520;529;541;554;555
518;445;402;383;385;414
501;582;629;659;670;670
472;539;594;631;652;644
397;346;328;329;348;390
263;352;408;449;481;516
189;351;471;557;611;627
185;166;184;218;266;321
220;197;195;213;248;306
378;435;482;521;543;545
574;469;419;400;395;394
628;484;383;322;288;296
594;646;656;650;624;594
579;622;648;656;639;600
581;490;436;405;388;394
576;598;603;601;587;579
585;675;737;772;775;740
596;526;495;483;481;486
585;549;524;511;506;520
578;684;750;786;793;768
584;566;572;581;591;589
576;502;458;437;436;462
566;647;694;723;732;727
566;614;656;686;699;688
568;480;437;421;426;457
553;584;597;606;612;623
550;646;715;758;775;759
552;488;462;456;466;486
538;512;493;487;492;517
534;644;713;754;768;753
539;524;530;542;557;564
531;462;421;404;406;439
523;608;659;691;704;703
523;571;613;644;660;653
526;440;398;382;391;425
510;545;562;574;581;595
505;603;673;718;736;722
506;443;418;413;425;448
492;471;456;452;458;484
486;598;670;714;730;716
493;476;483;496;511;521
487;419;380;365;369;403
481;568;620;655;668;668
483;526;567;597;614;609
487;401;359;343;351;385
482;516;531;543;549;561
485;576;642;684;701;684
494;423;393;384;393;414
487;463;445;439;441;464
490;595;663;703;715;697
503;477;478;486;497;504
500;429;386;367;367;397
505;588;637;667;676;671
517;551;584;608;620;610
530;437;388;368;369;397
525;558;571;578;579;585
533;620;681;718;729;706
544;468;434;420;423;440
538;514;495;486;485;502
543;646;711;749;758;736
558;528;523;528;536;540
559;486;440;419;416;443
559;643;693;721;728;719
563;596;628;651;661;650
568;479;432;411;413;439
556;594;611;622;624;630
557;645;708;747;760;739
564;488;454;443;449;468
552;534;518;513;514;534
549;656;725;766;778;760
557;528;526;533;545;554
546;481;441;424;426;458
538;631;687;721;732;727
542;575;610;635;651;645
545;459;414;396;401;433
533;576;597;610;616;624
534;622;686;726;741;724
540;465;431;422;429;453
528;515;502;498;501;523
530;636;706;747;760;744
540;509;506;512;525;535
532;468;430;412;414;445
526;620;677;711;723;716
531;561;593;618;633;627
534;449;404;386;390;421
526;570;592;606;612;618
527;613;675;715;730;712
534;457;422;412;419;441
525;513;500;497;500;520
527;633;701;742;756;738
539;504;498;503;515;526
533;469;429;411;413;444
528;623;679;713;723;716
533;558;588;611;624;619
533;448;403;385;387;418
527;572;595;610;615;621
531;613;673;712;725;706
537;457;421;409;416;438
525;516;506;502;505;524
524;630;700;742;755;738
534;497;492;497;508;520
527;466;428;412;413;445
522;620;678;714;725;718
530;553;581;604;617;613
530;446;400;382;384;415
522;572;596;612;617;623
526;608;667;705;718;701
532;452;415;403;410;433
516;512;504;503;507;526
512;621;692;736;751;735
518;483;478;484;497;511
502;449;416;403;408;441
493;597;660;699;714;708
502;524;553;577;593;593
501;418;375;358;364;397
490;543;572;590;599;607
493;573;633;672;688;672
502;420;383;371;379;406
493;489;483;482;486;505
503;604;672;714;728;712
521;476;464;466;476;488
520;458;419;402;401;431
516;613;671;705;714;702
526;540;562;581;592;588
528;443;395;373;373;402
522;574;600;616;619;622
524;601;658;693;705;685
532;449;410;396;401;423
520;520;514;513;516;531
514;621;693;735;750;733
510;474;468;473;487;500
475;433;409;401;408;442
403;536;619;671;696;694
286;362;429;480;520;539
197;183;191;213;253;314
171;271;345;404;452;493
206;296;378;444;493;510
357;235;182;173;193;240
542;453;394;366;355;371
623;651;661;660;641;605
609;532;483;448;422;409
574;514;462;424;395;397
564;664;717;740;727;690
574;580;596;606;603;582
580;493;442;415;405;418
577;629;656;670;668;658
577;646;698;728;736;710
582;495;453;435;436;456
568;572;569;568;567;578
566;669;738;779;792;771
571;525;512;512;521;532
559;510;479;465;467;494
549;655;720;759;771;756
549;560;582;602;618;617
543;465;422;405;409;440
534;597;633;655;665;669
536;607;663;699;716;701
539;455;416;402;411;442
524;535;536;539;544;563
522;628;700;744;762;748
528;482;469;470;483;501
513;469;441;430;435;467
505;612;680;721;735;724
507;514;536;557;574;578
503;425;382;365;372;404
487;555;593;618;630;636
489;559;615;651;669;658
492;409;371;359;369;402
479;492;496;501;508;527
476;581;654;700;719;706
483;434;421;423;437;456
473;429;402;393;398;430
472;578;644;684;698;687
481;483;501;519;534;537
481;402;357;339;341;372
477;543;579;602;611;614
486;549;599;632;647;632
494;407;365;350;355;384
490;501;501;504;507;521
496;595;663;704;718;700
511;456;435;432;439;452
508;461;431;417;417;441
511;613;676;711;721;702
524;519;531;544;554;553
527;444;397;374;372;398
527;590;625;646;651;648
538;594;639;669;679;661
548;456;409;390;393;418
544;554;553;554;553;564
549;645;710;749;760;740
562;502;478;472;477;489
556;511;481;465;464;486
557;659;721;756;763;743
563;557;569;580;590;588
554;477;431;410;409;435
544;615;655;680;688;686
548;607;655;687;700;686
547;461;420;404;411;441
535;555;562;568;572;586
537;638;707;751;767;750
547;489;469;465;474;491
535;498;472;461;464;491
533;640;707;745;757;741
539;534;546;561;574;577
534;459;415;396;397;426
525;599;642;669;679;679
528;585;633;666;681;670
529;444;403;388;395;427
520;542;550;557;562;576
524;622;691;734;751;736
534;473;450;445;454;473
524;487;462;452;454;480
524;629;695;734;745;729
531;521;530;544;556;559
527;451;406;387;387;416
522;596;639;666;676;675
527;579;624;654;668;657
528;442;399;383;388;420
520;543;552;559;563;576
524;620;688;730;746;730
534;471;446;440;448;466
523;489;465;455;457;482
523;630;696;735;746;728
533;521;529;541;553;555
529;455;410;390;390;418
521;599;644;673;683;681
521;574;619;650;665;654
527;441;399;381;388;420
519;545;556;564;569;581
521;618;685;728;744;728
526;464;439;433;442;461
516;486;464;456;459;484
511;620;689;729;741;725
516;503;512;526;539;544
503;433;393;376;380;411
487;573;623;656;670;671
486;539;586;619;638;631
489;405;365;352;362;398
484;512;526;537;545;560
492;586;653;696;713;699
501;434;408;401;409;430
492;463;442;434;436;461
500;604;669;708;720;703
518;496;498;506;517;521
520;442;396;373;372;400
517;595;641;667;674;670
521;564;604;630;641;629
527;438;393;374;377;406
522;551;562;569;571;579
525;617;684;724;737;717
532;464;435;427;432;449
522;496;476;468;469;491
520;628;695;735;747;728
525;507;512;522;534;539
512;444;405;387;389;419
477;573;632;669;683;683
409;485;546;589;615;616
292;268;268;281;312;363
212;305;369;419;459;499
212;340;443;520;573;589
265;202;190;204;240;290
385;320;285;279;290;330
557;581;596;608;604;584
630;541;489;459;439;426
597;502;428;377;345;349
563;646;684;695;679;649
560;599;631;645;641;612
566;478;429;405;396;410
562;594;606;612;607;603
568;655;716;753;761;732
575;501;467;454;456;469
563;541;522;513;512;528
558;665;733;772;782;759
565;541;541;548;559;563
556;489;448;429;430;459
550;639;693;725;735;730
551;589;626;653;666;659
548;465;422;405;410;442
533;574;595;608;615;624
532;625;693;735;752;735
535;464;434;427;437;459
523;506;493;490;495;518
520;627;697;740;756;740
526;500;500;510;524;535
514;449;412;396;400;433
505;598;655;691;704;703
503;540;577;606;623;620
505;422;380;365;371;406
492;535;557;573;581;592
490;581;648;691;709;694
492;420;390;383;394;419
479;467;456;454;460;484
475;585;656;700;717;703
482;455;456;466;481;495
475;412;376;361;366;400
470;565;623;659;673;670
479;509;543;569;585;582
483;398;354;337;342;375
475;518;539;554;560;568
482;567;630;670;685;667
493;415;381;370;376;399
489;474;461;456;457;476
494;597;664;705;717;698
507;473;466;472;482;491
504;438;397;380;379;408
503;595;650;682;691;682
514;537;566;588;600;593
522;433;386;364;365;393
519;559;579;590;593;596
531;609;667;702;712;690
544;460;420;405;408;426
539;523;508;501;499;515
545;645;709;747;756;734
558;519;510;511;518;526
554;488;446;426;423;450
552;645;700;731;738;726
556;578;605;626;637;628
557;471;423;404;404;432
549;595;619;632;636;639
550;632;692;729;743;722
555;476;439;426;432;455
544;537;527;525;527;544
543;649;718;760;773;755
551;515;509;513;525;536
538;481;445;430;432;463
529;629;691;727;740;732
535;558;587;609;625;622
535;452;409;390;394;426
525;576;602;620;627;633
529;610;669;708;723;706
536;454;417;405;413;438
524;519;511;510;513;533
522;628;697;740;755;739
531;492;484;489;501;514
524;466;431;415;418;449
521;620;680;716;728;719
530;546;571;592;606;604
531;447;400;380;383;413
523;574;602;617;623;627
524;602;661;697;711;693
533;450;412;398;404;429
525;521;514;513;515;532
525;629;698;740;754;736
532;492;483;486;497;509
523;468;434;419;422;452
523;622;683;720;732;721
529;544;567;587;601;600
530;447;401;382;384;414
524;578;605;624;629;633
530;605;661;696;710;691
539;454;414;400;405;430
526;527;522;521;523;539
519;626;697;740;755;737
524;484;476;479;491;504
510;460;429;417;423;453
501;607;671;711;726;717
498;515;542;565;583;585
489;414;373;358;365;399
486;544;577;600;610;617
493;567;622;660;677;664
503;418;378;365;373;402
492;495;491;493;497;515
491;595;665;708;724;709
508;461;448;448;459;474
508;453;419;402;403;432
511;610;669;704;714;700
525;530;547;564;574;571
526;442;394;372;371;398
523;579;608;625;629;629
528;597;649;682;693;675
538;451;408;392;395;419
527;531;529;529;529;543
527;629;698;740;753;734
533;487;473;473;482;496
522;474;444;431;432;460
509;617;684;724;736;723
491;509;536;560;577;579
428;377;350;344;358;394
310;426;498;547;578;599
229;359;460;532;581;593
223;178;177;198;241;301
244;265;286;314;349;396
362;431;490;536;565;569
541;415;354;330;327;344
613;496;412;362;334;347
586;662;694;699;678;640
567;565;567;564;550;525
561;479;426;393;375;383
558;618;648;661;655;639
566;627;675;702;706;676
581;489;443;422;420;436
572;578;576;574;571;576
570;670;736;776;786;762
577;525;506;503;508;519
566;520;490;477;476;500
559;665;730;767;777;759
561;563;580;596;610;608
555;478;434;415;417;445
547;614;652;675;684;685
548;613;664;698;713;699
546;462;423;409;417;447
533;549;554;560;565;582
530;632;704;748;766;752
534;482;467;467;479;497
522;481;455;445;449;479
516;623;692;732;746;733
518;518;536;553;570;574
511;436;394;376;381;413
504;573;614;640;652;655
503;566;618;652;669;659
501;419;380;367;376;409
490;509;517;524;530;549
486;590;662;708;726;714
493;440;423;423;435;455
483;445;421;413;418;447
483;590;658;699;712;698
491;487;502;519;533;537
487;411;368;350;353;384
478;550;592;619;630;632
483;542;591;626;641;631
492;405;363;349;355;387
489;506;511;516;520;535
495;592;659;701;717;700
509;449;426;421;428;445
504;464;436;423;423;449
507;611;675;712;722;702
520;509;518;530;541;540
521;441;394;372;371;397
516;586;626;650;657;654
525;578;621;650;662;647
534;443;397;379;382;411
531;548;552;555;556;567
540;633;697;735;748;729
557;490;464;454;458;472
550;509;480;466;464;485
550;653;716;751;758;737
555;544;552;562;571;570
548;473;428;407;406;432
543;618;661;687;694;692
550;602;645;675;687;674
552;465;421;404;409;439
542;566;574;581;584;596
543;640;708;750;765;748
549;487;464;458;467;483
533;502;481;471;474;499
532;640;708;748;760;743
540;528;537;550;563;567
536;463;419;401;402;432
532;609;654;682;692;691
535;585;628;658;673;663
531;447;405;389;396;428
521;549;561;570;576;589
523;618;687;730;748;733
534;468;443;436;445;465
520;490;468;460;463;488
521;627;694;734;746;729
530;514;520;532;544;549
528;453;410;391;391;420
525;603;647;676;686;683
529;576;616;645;659;648
531;444;400;383;388;418
521;550;561;571;575;586
522;618;685;727;744;726
532;466;439;432;439;458
523;495;474;465;467;490
525;631;698;738;748;731
537;517;521;531;542;546
530;458;414;395;395;424
524;606;654;684;695;691
528;574;614;642;656;647
529;443;400;384;389;420
521;552;567;576;580;591
521;616;683;725;741;724
525;459;432;425;433;453
510;486;469;464;467;491
508;617;686;728;742;726
509;492;498;511;526;534
496;430;391;376;380;413
491;578;631;664;677;678
496;540;581;610;627;622
498;412;370;355;362;396
489;523;540;551;558;571
495;586;653;695;712;696
513;439;407;398;405;425
512;483;461;453;453;475
519;621;684;721;731;711
535;508;505;511;519;522
530;459;414;392;390;417
527;612;661;690;698;690
536;573;609;633;644;633
540;452;406;387;389;417
529;565;581;590;594;600
532;622;688;728;741;721
541;468;437;427;433;452
527;507;490;484;486;507
515;627;697;740;753;735
500;486;493;506;523;532
429;391;369;365;378;416
304;451;545;607;642;656
216;319;407;474;524;547
194;155;156;179;223;289
212;268;312;355;395;439
348;402;455;501;532;537
539;383;302;266;262;285
608;518;447;402;374;379
584;661;694;701;681;639
573;537;518;502;485;468
567;496;445;412;391;398
567;653;701;722;716;691
578;605;634;651;652;630
587;495;445;421;414;432
575;613;629;638;636;633
574;661;722;759;769;743
581;504;469;457;460;476
568;552;537;530;531;547
562;670;739;779;791;770
569;540;538;544;556;564
560;496;457;440;442;472
551;646;702;736;748;741
548;582;616;643;658;654
543;462;420;404;410;443
530;577;601;616;624;633
531;619;684;725;743;728
536;460;428;419;428;454
524;511;500;498;502;525
520;627;699;741;757;742
523;493;492;500;514;528
511;451;415;402;405;439
504;601;660;697;711;707
508;538;571;597;612;611
508;425;382;366;371;405
494;542;567;584;592;601
490;578;643;685;703;687
494;419;387;379;389;415
482;475;467;466;473;495
478;588;660;705;722;708
485;454;452;461;476;491
481;421;386;371;376;411
481;577;635;671;684;679
487;513;542;566;580;578
490;406;361;343;347;378
486;533;557;572;578;584
496;576;636;672;687;668
510;427;389;375;380;402
505;493;481;476;477;494
509;612;679;719;730;711
522;482;473;476;485;495
520;457;417;398;398;427
522;615;671;704;712;701
534;550;575;594;604;598
539;450;401;379;379;406
536;581;603;616;618;620
546;620;675;709;720;697
558;472;430;413;416;436
549;540;528;522;521;535
551;653;720;759;769;747
560;519;509;510;519;528
550;491;454;436;436;465
547;645;704;739;748;736
554;571;597;617;629;624
553;469;423;403;405;433
545;597;623;640;645;647
546;625;683;720;734;714
553;471;432;419;425;450
537;536;530;530;533;551
535;642;712;756;771;755
543;503;495;499;510;525
535;480;445;431;433;465
530;632;693;730;742;733
536;553;578;599;614;612
534;451;407;387;391;422
527;581;609;628;635;640
530;606;663;699;715;698
539;455;415;400;408;434
526;526;521;521;523;542
526;630;701;743;757;741
534;491;480;484;494;508
524;471;437;423;425;456
519;621;684;721;734;723
527;539;563;583;598;597
529;445;399;379;382;413
523;578;607;625;632;636
524;600;655;691;704;687
532;448;409;395;400;426
522;524;521;522;524;540
523;627;697;739;754;737
532;488;476;477;488;501
525;472;439;425;427;457
523;625;688;724;736;723
532;541;562;580;594;593
529;448;402;382;384;414
521;580;612;631;639;641
519;593;649;685;700;684
519;439;401;388;395;423
505;513;513;516;521;540
500;607;680;725;743;728
504;460;451;454;468;485
496;448;418;407;413;445
493;597;662;702;716;705
495;505;527;548;564;567
493;414;370;353;357;389
488;549;583;605;614;620
500;567;619;654;669;654
517;427;383;367;371;399
516;518;512;511;512;526
522;620;686;725;737;718
532;481;463;460;466;478
523;474;442;426;425;452
524;626;689;725;733;717
536;538;554;570;581;578
534;452;405;384;383;411
529;591;623;644;650;649
531;599;649;683;696;679
536;451;409;393;398;425
518;531;533;536;540;554
500;611;686;732;751;735
452;426;426;437;455;476
327;338;345;360;383;427
216;391;508;586;634;646
189;243;308;368;422;458
198;145;133;148;187;253
300;342;377;413;444;473
491;479;487;501;510;502
616;447;346;291;269;284
601;571;531;496;464;455
575;664;711;727;710;667
577;519;490;470;454;445
570;522;486;463;446;452
571;673;733;764;760;727
585;578;588;599;601;588
584;500;450;426;420;438
576;641;675;695;699;690
577;638;686;716;727;706
581;493;449;431;436;460
568;583;586;589;590;603
565;667;736;778;792;775
568;515;497;494;503;518
552;514;488;477;480;506
545;654;722;762;774;760
549;549;564;581;596;598
542;466;423;405;408;439
535;606;647;673;684;687
536;596;647;680;696;685
534;449;409;394;403;435
521;541;548;555;560;577
516;619;692;737;755;742
521;467;449;449;459;480
507;471;447;440;444;474
503;612;680;722;737;723
506;503;518;535;552;557
497;423;381;364;369;401
485;561;606;635;648;651
488;548;599;633;651;642
490;405;365;352;361;395
479;502;511;519;526;543
481;583;654;699;717;705
495;436;415;412;421;441
487;450;425;415;418;445
485;593;659;700;712;696
495;487;498;512;526;528
495;417;373;352;354;383
492;565;608;633;643;642
502;555;599;630;643;631
509;420;375;358;362;393
507;525;531;536;538;551
513;608;675;716;729;711
526;461;435;428;433;448
518;481;453;441;441;464
521;625;689;726;735;715
535;520;526;537;547;546
540;458;409;386;385;410
540;611;651;675;681;676
551;597;637;664;674;659
558;466;418;397;399;426
553;573;578;581;581;590
555;649;715;754;765;745
565;499;471;463;467;481
554;519;494;483;482;504
552;659;724;762;772;752
558;545;552;562;574;575
556;481;436;415;415;442
546;625;672;699;709;707
545;597;641;671;686;676
544;460;417;402;408;441
532;561;575;583;589;602
533;631;701;744;761;746
543;477;452;446;455;475
531;501;480;472;475;500
529;637;706;746;758;741
537;522;529;541;554;559
528;456;414;395;397;428
523;605;653;683;694;694
528;576;617;647;661;653
532;444;399;384;389;421
521;550;562;572;577;589
521;617;686;728;744;728
529;462;436;428;437;456
521;492;471;463;466;490
520;627;695;734;747;729
531;512;516;525;537;544
530;456;411;391;391;421
525;607;654;684;693;690
530;574;613;641;654;645
533;446;402;383;388;419
522;554;569;578;582;592
521;617;686;728;743;725
530;461;434;427;434;454
519;494;476;469;471;495
517;625;694;735;748;731
523;505;509;520;533;540
515;446;405;388;390;421
506;594;646;679;691;689
503;549;592;622;639;632
501;419;378;364;373;407
491;527;545;558;567;580
495;589;656;700;718;704
501;431;403;396;406;429
494;470;453;447;450;475
497;603;671;713;726;708
514;488;487;497;508;515
518;443;397;377;376;406
521;603;649;679;686;680
529;564;597;621;633;622
534;444;396;376;377;406
528;561;575;583;584;591
531;620;684;723;735;715
537;464;432;421;426;444
525;505;488;481;482;502
528;634;701;743;753;733
538;512;511;519;530;536
531;463;421;402;402;432
522;612;667;699;711;705
498;545;588;619;636;631
425;372;349;346;361;400
288;391;454;497;528;556
211;367;483;565;617;629
202;172;183;213;260;316
235;228;234;256;292;346
374;439;490;533;560;562
558;447;394;374;372;381
612;479;385;329;299;314
578;646;669;670;648;618
564;591;611;615;602;571
565;475;422;391;375;385
563;598;611;614;604;594
573;656;714;747;749;715
589;505;466;449;446;456
575;555;537;527;522;533
571;676;742;780;788;762
575;546;542;547;557;560
567;501;461;442;442;469
560;653;709;741;752;743
561;593;627;651;665;658
561;476;432;413;417;449
551;594;615;629;635;642
549;637;702;742;756;739
550;475;443;433;441;464
532;523;513;511;515;537
526;637;709;753;769;754
532;503;503;512;527;540
523;461;425;410;415;449
513;611;671;707;721;718
516;546;580;607;624;621
514;431;388;373;379;413
503;550;574;590;599;608
500;589;654;695;712;697
501;426;395;387;397;423
485;479;471;471;477;500
483;592;664;709;727;713
491;460;458;466;481;496
481;421;386;372;377;412
475;573;633;671;685;682
483;509;541;567;582;581
485;401;356;340;344;378
480;527;551;567;574;581
488;570;630;669;684;666
501;419;382;369;375;399
494;483;473;469;470;489
497;601;669;709;722;704
513;474;466;469;478;488
512;448;408;389;389;418
509;604;662;696;703;693
521;541;566;588;598;591
529;440;392;371;371;399
525;570;591;605;608;610
533;610;667;702;713;691
548;461;420;404;408;427
543;531;518;512;511;526
546;647;713;750;761;740
559;517;506;506;513;522
557;493;453;433;431;459
553;649;706;738;746;733
558;575;600;619;630;624
557;472;425;404;406;433
550;599;624;640;644;647
553;631;690;725;737;718
559;476;438;423;428;451
545;542;535;533;535;552
543;649;719;762;776;758
550;512;504;508;519;532
537;483;448;435;437;469
529;633;695;733;746;737
533;552;579;602;617;616
532;450;406;388;393;425
525;579;607;626;635;640
529;607;665;702;718;700
538;454;416;402;409;435
527;526;521;520;523;541
527;632;701;744;759;743
535;494;483;487;497;511
527;472;437;423;426;456
523;624;686;723;735;724
528;543;566;586;601;600
530;446;401;381;383;415
522;577;606;624;631;635
525;600;656;692;706;689
531;448;408;395;400;426
523;523;519;520;521;538
523;627;696;739;754;736
534;489;477;479;489;502
525;471;437;423;425;454
521;623;685;723;734;722
528;539;561;581;595;593
526;444;400;380;383;413
512;572;604;624;633;637
509;587;644;681;697;682
511;431;394;381;390;419
496;504;505;508;513;532
492;600;673;719;737;723
504;460;450;453;466;484
496;446;415;403;408;440
488;594;660;699;714;703
498;507;529;550;565;566
502;419;375;356;359;389
501;558;588;608;615;619
515;580;630;664;677;659
526;436;392;375;379;404
522;524;518;517;516;530
523;623;690;731;742;723
537;486;469;467;474;485
531;479;445;429;428;453
528;630;692;728;737;721
534;539;557;574;586;584
533;451;404;384;384;412
526;587;620;641;647;648
529;597;649;684;697;680
533;448;407;392;397;425
500;517;522;527;532;549
430;563;651;707;732;722
317;328;355;384;416;449
227;244;264;291;327;383
211;356;462;538;587;606
259;273;311;355;401;432
381;266;208;192;206;256
542;528;514;510;507;509
612;614;613;611;596;565
589;480;407;362;337;343
557;564;551;534;511;503
552;653;716;746;743;705
568;512;491;482;477;475
562;513;479;461;453;468
567;667;727;760;764;738
576;572;583;596;604;595
573;491;441;419;415;438
564;628;662;684;688;685
564;627;676;708;720;702
565;479;436;420;425;452
550;565;569;572;576;589
547;650;721;763;780;763
552;500;484;482;492;509
539;498;472;461;464;493
530;640;708;749;761;748
534;535;552;571;586;589
531;454;411;393;396;428
519;590;630;657;667;670
520;585;636;671;688;676
522;438;397;384;393;425
507;527;534;540;546;564
502;607;680;726;744;731
509;457;441;441;453;472
497;459;435;427;431;461
492;602;670;712;726;713
497;495;511;529;545;550
491;416;373;356;360;393
479;552;595;623;636;639
481;542;593;629;646;637
485;399;359;346;355;389
475;494;501;509;516;532
477;577;647;692;710;696
490;431;411;409;418;436
485;445;418;408;410;436
489;593;657;696;707;689
502;492;502;515;527;528
503;423;376;355;355;382
501;571;610;634;642;639
509;563;608;637;650;635
519;428;383;365;369;397
514;532;536;539;541;552
522;617;683;723;735;717
536;473;448;440;446;459
532;491;463;450;448;470
532;636;700;736;745;724
548;534;541;551;561;559
552;471;422;398;396;420
549;619;659;681;687;682
554;605;648;675;686;671
560;469;423;404;407;434
547;569;576;580;582;593
549;645;713;753;767;749
557;494;470;464;470;487
547;511;486;476;477;500
541;648;715;755;766;747
548;536;545;558;570;573
544;468;423;404;405;434
538;614;658;685;695;694
539;591;636;666;681;670
541;454;411;395;400;432
527;555;565;574;578;592
525;625;694;738;755;740
533;472;448;443;453;472
524;492;470;462;465;491
519;628;697;737;751;734
529;516;525;536;550;554
526;452;409;390;391;421
522;600;646;674;685;684
526;575;619;648;663;653
530;443;399;382;388;419
518;546;558;567;571;583
521;617;685;728;744;727
529;464;439;432;440;459
519;489;468;459;461;485
517;624;693;732;745;727
527;510;516;528;541;545
525;450;406;387;388;418
522;601;647;676;685;684
527;573;613;641;655;645
533;443;399;381;385;416
521;551;563;572;576;586
523;617;684;726;741;724
530;463;436;428;435;454
517;490;470;463;465;487
512;621;690;731;744;727
519;503;509;521;534;539
513;443;402;384;386;417
502;588;639;671;684;683
499;549;592;623;639;632
504;419;378;364;371;404
496;529;545;556;563;575
494;590;659;703;721;705
500;434;408;402;411;433
492;467;449;443;447;472
497;604;671;712;725;708
518;492;493;502;513;519
526;448;401;380;378;406
528;606;651;678;685;679
531;570;605;629;639;628
533;445;399;379;380;409
524;557;571;580;582;589
529;620;684;725;738;717
542;468;436;426;431;449
532;507;487;479;479;499
529;636;703;744;754;734
542;517;517;525;536;541
530;462;420;401;402;431
505;599;655;689;701;699
448;513;567;605;628;626
334;304;299;308;334;381
216;323;394;446;486;523
184;328;441;525;582;599
208;162;164;189;234;290
303;261;245;252;277;325
489;520;545;568;576;566
616;509;450;420;404;399
608;498;414;359;324;331
578;654;684;689;667;635
573;606;631;639;628;596
579;489;437;407;393;403
578;610;623;626;617;607
585;668;727;761;765;732
594;514;478;462;462;471
580;559;539;531;527;539
574;680;748;786;795;770
578;551;549;556;566;570
568;501;461;443;444;472
561;652;706;738;750;743
562;597;632;657;672;665
559;474;431;413;418;450
545;587;608;622;629;638
543;634;699;740;757;739
548;475;442;434;442;465
533;520;507;503;507;530
529;640;710;753;768;752
535;508;509;517;531;542
524;462;424;409;414;446
514;610;668;704;719;715
514;549;586;613;630;628
511;429;389;373;380;414
499;545;569;586;595;605
497;588;654;697;715;700
501;428;397;390;400;426
485;476;466;466;471;495
482;592;665;710;726;713
487;459;459;469;485;499
480;418;382;368;374;408
475;570;629;665;680;676
481;510;544;570;586;584
487;400;356;339;344;377
484;526;547;562;568;576
488;572;633;672;686;668
500;420;383;371;377;400
493;479;466;462;463;482
497;601;668;708;722;702
512;475;469;472;482;492
512;446;404;385;384;414
513;606;660;692;700;691
527;549;575;595;605;598
534;445;396;374;373;401
533;575;594;605;606;608
539;619;676;712;722;699
552;468;429;414;416;435
547;534;520;513;512;526
550;653;719;757;768;746
562;522;514;516;524;531
558;494;453;434;433;461
556;650;706;738;746;735
560;582;610;630;640;634
561;475;428;408;408;436
555;602;625;639;643;646
557;637;695;732;745;724
561;480;442;429;435;457
546;540;531;529;531;548
545;651;721;763;777;759
550;514;508;512;524;537
541;482;447;432;434;467
534;634;694;731;743;735
540;561;589;612;626;624
540;455;410;392;396;427
531;581;608;625;631;637
535;615;674;712;727;709
546;463;425;412;418;442
535;529;521;519;522;540
531;638;707;751;764;747
536;498;492;497;508;521
526;471;436;422;424;456
523;624;685;722;734;726
530;549;575;597;611;609
532;448;402;384;386;417
526;578;605;622;628;633
528;606;664;702;715;698
533;451;414;400;406;431
524;521;515;513;517;535
528;631;700;742;756;739
538;495;485;488;497;510
530;474;437;423;423;455
527;627;687;723;735;724
534;548;571;591;605;603
533;449;403;383;385;414
528;581;609;626;632;635
531;606;663;698;712;694
536;452;414;399;405;429
525;525;520;520;522;539
520;627;698;741;756;739
530;489;478;481;493;506
518;467;434;421;424;455
505;612;677;716;730;721
508;525;551;573;590;591
509;428;385;367;372;404
496;556;590;610;620;627
497;574;633;671;688;674
506;423;385;373;381;409
500;501;499;500;504;522
511;612;680;722;737;720
533;482;465;464;473;486
532;474;436;419;418;445
531;629;688;722;731;716
537;544;563;579;591;586
538;453;405;383;383;410
535;591;620;637;641;641
539;609;662;695;707;689
545;459;417;401;405;430
536;539;535;535;536;551
537;640;709;750;764;745
542;496;483;483;492;505
522;476;446;433;437;466
485;603;676;720;736;726
408;453;498;534;562;572
276;263;266;280;310;362
186;315;403;468;516;551
175;290;388;464;522;544
230;156;137;150;190;253
372;333;313;315;330;368
565;577;589;600;598;579
642;520;447;404;378;373
610;532;464;414;379;380
583;681;727;740;720;678
585;588;598;600;591;565
589;503;451;421;406;415
586;644;673;688;683;668
592;654;703;732;737;708
596;506;461;441;441;460
582;589;587;587;586;594
578;681;750;790;803;780
584;533;516;515;523;534
571;524;494;481;482;508
563;670;735;773;785;770
566;569;588;606;620;621
560;480;435;416;419;450
547;614;651;676;685;688
545;614;667;703;718;706
545;462;422;408;417;448
531;547;551;556;561;579
529;634;707;752;769;755
536;486;471;471;483;501
524;482;455;444;449;479
515;625;694;734;748;735
516;521;540;560;576;580
509;433;391;375;380;413
494;566;608;635;647;653
493;563;617;655;672;662
495;412;374;362;373;407
481;499;506;514;522;541
480;585;659;705;725;713
488;435;419;420;434;454
477;436;410;402;406;438
476;583;650;691;705;692
485;483;499;517;532;536
485;406;360;341;344;376
481;550;588;612;622;623
491;550;598;630;644;631
502;411;367;350;355;386
495;509;511;514;517;529
502;599;667;708;722;704
515;456;433;429;435;450
513;468;437;423;422;448
517;620;683;719;727;707
530;522;531;544;553;552
535;452;403;380;376;402
534;600;637;658;663;659
542;597;641;670;681;663
550;459;413;394;396;422
546;561;563;564;564;574
551;649;715;754;766;746
563;501;477;471;475;489
553;512;484;470;469;492
553;659;723;760;768;748
562;554;564;576;587;586
558;479;432;411;410;436
548;621;662;688;697;694
550;606;653;684;698;686
552;464;421;404;410;442
540;561;568;574;578;592
541;640;710;752;768;754
545;487;465;461;469;487
533;497;473;464;466;492
529;638;706;746;758;741
536;528;539;554;568;571
529;454;411;392;395;424
522;598;643;670;681;682
524;580;627;659;675;665
528;441;399;384;390;422
516;541;550;558;563;577
517;618;687;731;748;732
525;464;441;437;447;466
515;481;458;449;452;479
514;622;689;729;742;726
524;513;522;535;548;552
522;446;401;381;382;412
517;593;638;665;675;673
523;575;619;649;662;652
529;441;396;379;384;415
516;541;550;558;561;574
515;614;683;727;742;726
523;460;436;431;439;458
515;482;459;450;452;478
514;621;688;728;740;722
524;510;518;529;542;545
522;445;400;380;381;411
517;594;639;667;677;676
523;571;614;643;657;646
528;439;394;376;381;412
515;542;553;561;565;576
513;612;680;723;740;723
517;455;431;425;434;453
504;476;457;450;453;478
495;607;679;721;736;719
498;488;498;513;528;535
494;423;383;366;369;402
488;571;620;652;665;666
491;540;585;616;633;626
496;409;367;352;359;393
487;517;530;540;547;560
497;591;658;701;717;702
516;445;415;405;412;431
514;481;457;445;445;468
518;620;685;722;731;711
526;506;508;517;526;529
524;449;403;381;379;406
523;603;648;676;684;679
529;572;610;637;649;637
532;444;397;379;381;411
523;553;565;573;576;585
525;620;687;727;741;723
532;463;435;426;433;451
515;491;473;465;467;490
492;608;682;727;741;725
434;443;466;488;511;524
305;295;293;303;328;375
197;353;457;530;578;605
174;268;355;426;483;511
204;139;124;139;181;249
307;313;324;344;369;406
500;514;534;553;561;549
619;468;378;329;306;311
601;537;476;431;396;393
574;671;717;731;710;664
575;549;540;533;520;500
570;496;447;417;400;409
569;652;699;722;721;699
581;615;648;669;674;652
584;492;443;420;419;439
575;606;619;625;625;626
575;665;729;768;779;755
581;507;475;463;467;483
565;543;525;517;517;537
557;666;736;777;788;769
560;538;540;550;563;569
549;482;441;424;427;458
540;630;685;719;732;730
538;579;618;647;664;658
537;452;409;393;401;435
526;566;586;598;605;617
525;619;687;730;747;731
528;458;429;421;430;454
512;496;483;480;484;508
506;618;690;734;750;735
510;488;492;503;519;530
501;436;399;383;388;422
494;587;644;679;694;692
497;535;574;602;620;616
497;413;371;355;363;397
486;528;549;563;571;582
487;579;646;689;707;692
491;419;388;381;390;415
476;461;449;446;451;475
477;586;656;700;716;700
488;460;460;469;483;495
482;415;376;359;363;395
478;570;626;660;672;668
486;519;554;579;594;589
494;405;360;341;345;377
492;529;547;558;563;571
498;584;646;685;698;679
513;433;396;384;388;408
510;490;471;465;464;482
515;619;684;722;733;711
527;494;489;493;502;508
524;455;413;393;392;419
525;615;668;699;707;698
537;563;593;614;625;616
545;454;405;383;384;411
544;582;598;609;609;612
551;634;693;729;739;717
563;480;442;427;430;448
554;537;521;514;512;528
555;659;726;764;775;754
563;529;525;528;537;544
556;490;449;430;430;458
552;645;701;733;743;735
559;585;614;637;649;643
557;471;424;404;407;437
545;590;612;626;631;637
541;629;693;732;747;728
546;468;435;424;431;454
535;525;514;511;515;535
536;642;712;754;769;752
544;510;506;511;524;535
532;471;433;417;419;452
528;625;684;719;731;725
531;558;590;614;628;625
528;446;402;384;388;421
518;567;592;608;616;622
521;606;669;709;725;706
528;448;413;402;410;434
518;509;500;497;500;521
521;627;697;738;753;736
533;496;490;493;505;517
525;463;425;408;410;442
518;617;677;713;724;716
524;548;577;600;614;610
526;441;396;377;380;411
521;567;592;608;614;619
526;606;666;703;718;699
534;451;413;399;407;429
523;515;505;502;505;523
523;628;698;739;753;735
534;495;487;491;502;513
528;467;428;411;414;444
524;623;681;716;727;718
529;549;576;598;612;607
527;443;398;379;381;412
518;569;596;613;619;624
521;602;662;700;714;696
526;445;409;396;403;428
514;510;505;503;507;526
513;620;691;734;750;733
519;482;475;480;492;506
511;455;420;406;409;441
503;606;668;707;719;712
501;524;553;577;594;593
499;419;376;360;365;398
487;543;574;594;604;611
488;569;631;671;689;675
497;415;379;368;377;404
492;488;482;483;487;507
501;602;670;713;728;711
522;476;461;462;472;485
525;461;420;402;401;430
524;621;677;711;718;706
529;542;564;582;593;588
529;444;397;375;375;403
522;575;602;619;623;625
525;601;657;693;705;685
530;446;407;393;398;422
522;520;514;515;516;532
521;626;695;738;752;734
530;486;476;478;489;502
515;463;430;417;418;448
493;603;671;711;725;716
438;478;518;549;573;577
321;295;289;296;321;367
211;336;418;477;519;551
191;313;415;492;546;563
223;159;147;165;205;265
323;299;290;300;321;363
507;534;558;580;586;573
629;503;432;394;374;373
612;520;444;393;359;363
578;671;714;725;705;665
571;580;592;596;587;560
570;485;435;405;391;401
567;622;649;662;658;645
575;643;694;725;730;703
580;491;448;429;429;447
572;573;567;565;564;573
569;671;739;780;792;769
574;527;513;512;520;531
562;511;479;463;465;491
554;659;724;762;773;758
556;565;587;607;621;620
553;472;427;408;411;442
542;604;637;659;668;671
540;614;669;705;721;707
537;456;418;405;413;443
521;532;534;538;544;563
520;626;701;745;763;749
523;478;468;471;485;502
508;463;435;425;430;464
503;611;678;720;735;725
507;516;537;558;575;579
503;425;382;365;370;402
492;557;594;619;629;635
491;563;621;658;675;663
491;408;371;359;369;401
478;490;494;499;505;525
479;583;656;703;721;708
484;436;424;426;439;458
474;428;401;391;396;427
473;579;645;686;701;689
478;484;502;523;539;542
478;398;353;335;339;371
474;538;573;595;605;609
482;547;599;633;649;635
493;404;361;345;351;380
488;497;497;497;500;515
494;595;663;704;718;700
510;455;436;433;440;454
504;456;424;409;409;435
507;610;674;710;719;701
521;519;532;547;557;555
526;442;393;370;368;394
526;587;620;639;644;641
532;594;642;672;684;665
543;452;407;388;391;416
540;548;547;547;546;558
546;644;710;749;761;740
558;501;480;474;479;491
550;503;471;455;454;478
550;654;717;753;760;742
560;555;568;582;592;590
555;474;427;405;404;431
548;614;651;673;680;679
552;614;662;694;707;691
556;467;424;407;412;441
541;558;562;566;569;583
539;641;712;755;771;755
547;492;474;472;481;498
537;495;467;456;458;487
532;640;706;745;758;742
535;534;549;566;580;582
531;454;410;391;394;423
525;595;636;661;671;672
527;589;638;674;689;675
533;446;403;388;395;426
524;541;546;551;556;571
526;626;696;740;755;739
534;477;457;454;462;480
525;484;458;447;448;475
523;631;697;736;748;731
532;526;538;554;567;568
529;451;406;386;387;416
523;593;634;659;669;668
529;586;634;666;679;666
537;446;401;385;391;420
525;544;549;554;557;572
525;625;694;737;753;736
533;474;452;448;458;474
526;487;459;449;450;476
525;631;698;736;747;730
536;526;537;549;563;564
535;455;409;387;388;416
532;603;643;667;675;675
539;593;638;667;680;666
543;454;409;391;395;425
529;552;559;564;568;580
530;630;700;743;758;741
539;479;456;451;459;477
531;494;468;457;460;485
531;638;705;744;755;737
