ppg
32.56885633630884
28.857862211032273
26.807049668116274
24.365606164644845
24.95155260547799
21.92416266117342
19.678034637979707
20.16632333867399
17.236591134508277
14.990463111314565
12.646677347981994
10.302891584649425
10.79118028534371
8.74036774242771
7.373159380483711
7.666132600900283
4.736400396734569
2.490272373540856
0.14648661020828566
-2.0996414129854277
-1.6113527122911422
-3.662165255207141
-5.127031357289998
-4.736400396734569
-7.666132600900283
-9.912260624093996
-11.279468986037996
-12.939650568398566
-12.549019607843137
-14.50217441062028
-15.967040512703136
-15.674067292286564
-16.650644693675137
-17.43190661478599
-15.283436331731137
-13.916227969787137
-14.209201190203707
-9.326314183260854
-5.615320057984283
-6.494239719233997
2.197299153124285
8.838025482566568
18.799114976729992
28.076600289921416
26.025787747005417
38.818951705195694
48.38941023880369
46.240939955748836
59.13176165407798
68.70222018768597
75.14763103685054
82.27664606698711
80.61646448462653
86.67124437323568
91.06584267948425
89.99160753795681
92.14007782101167
93.50728618295567
92.23773556115053
91.55413138017853
91.65178912031739
89.69863431754024
88.13611047531853
88.52674143587396
83.6438544289311
79.93286030365454
74.95231555657283
70.26474402990769
71.33897917143511
64.40527962157626
59.22941939421683
60.30365453574426
52.39337758449683
46.533913176165406
40.186160067139696
33.93606469825284
35.303273060196844
28.27191577019913
23.19371328297856
24.267948424505988
19.287403677424276
15.576409552147707
11.670099946593423
7.763790341039139
8.545052262149996
5.517662317845426
3.36919203479057
3.8574807354848555
0.8300907911802854
-1.2207217517357138
-2.68558785381857
-4.248111696040284
-3.8574807354848555
-4.931715877012284
-5.615320057984283
-5.517662317845426
-6.494239719233997
-7.177843900205997
-8.935683222705425
-10.498207064927138
-10.10757610437171
-11.181811245899137
-11.865415426871138
-11.767757686732281
-13.623254749370565
-15.185778591592278
-15.771725032425422
-16.55298695353628
-16.357671473258563
-18.310826276035705
-19.775692378118563
-19.48271915770199
-21.43587396047913
-22.90074006256199
-24.4632639047837
-26.025787747005417
-25.63515678644999
-27.68596932936599
-29.150835431448844
-28.760204470893417
-30.71335927367056
-32.178225375753414
-32.86182955672541
-33.64309147783627
-33.44777599755856
-33.44777599755856
-33.44777599755856
-33.44777599755856
-30.518043793392845
-28.369573510337986
-22.119478141451133
-16.84596017395285
-18.017853055619135
-8.154421301594567
-0.8300907911802854
9.912260624093996
19.87335011825742
17.627222095063708
30.518043793392845
40.08850232700084
37.94003204394598
47.998779278248264
55.22545204852369
60.30365453574426
65.8701457236591
64.60059510185397
63.91699092088197
63.03807125963226
63.233386739909974
57.471580071717405
52.97932402532997
46.33859769588769
40.08850232700084
41.45571068894484
35.4009308003357
31.00633249408713
31.9829098954757
27.002365148393988
23.291371023117417
24.17029068436713
22.021820401312276
20.55695429922942
20.947585259784848
20.84992751964599
20.84992751964599
19.87335011825742
19.092088197146563
15.47875181200885
12.45136186770428
13.13496604867628
7.275501640344854
2.783245593957427
3.7598229953459983
-1.1230640115968566
-4.736400396734569
-7.763790341039139
-10.888838025482567
-10.205233844510566
-13.232623788815136
-15.381094071869994
-14.892805371175708
-17.920195315480278
-20.068665598535134
-21.533531700617992
-23.096055542839704
-22.705424582284277
-23.779659723811704
-24.4632639047837
-24.267948424505988
-26.22110322728313
-27.68596932936599
-28.369573510337986
-29.150835431448844
-28.95551995117113
-30.908674753948272
-32.37354085603113
-31.9829098954757
-33.05714503700313
-33.74074921797513
-35.49858854047456
-36.96345464255741
-36.67048142214084
-37.64705882352941
-38.42832074464027
-38.23300526436255
-40.186160067139696
-41.651026169222554
-42.236972610055695
-43.018234531166556
-42.822919050888835
-44.77607385366598
-46.240939955748836
-45.85030899519341
-45.947966735332265
-45.947966735332265
-44.97138933394369
-44.19012741283284
-44.38544289311055
-40.479133287556266
-37.4517433432517
-38.1353475242237
-31.2993057145037
-26.123445487144274
-16.748302433813993
-8.349736781872283
-10.205233844510566
2.490272373540856
12.060730907148852
10.009918364232853
21.92416266117342
30.71335927367056
37.35408560311284
44.38544289311055
42.822919050888835
48.877698939497975
53.27229724574655
52.295719844357976
53.36995498588541
54.053559166857404
52.002746623941405
50.53788052185855
50.83085374227512
46.92454413672083
43.99481193255512
44.580758373388264
38.72129396505684
34.32669565880827
28.564888990615703
23.19371328297856
24.365606164644845
17.43190661478599
12.256046387426567
13.427939269092851
7.373159380483711
2.9785610742351416
-1.6113527122911422
-6.298924238956283
-5.322346837567712
-10.302891584649425
-13.916227969787137
-13.13496604867628
-18.11551079575799
-21.728847180895706
-23.779659723811704
-26.22110322728313
-25.63515678644999
-27.68596932936599
-29.150835431448844
-28.760204470893417
-30.71335927367056
-32.178225375753414
-33.74074921797513
-35.303273060196844
-35.010299839780274
-35.98687724116884
-36.67048142214084
-36.57282368200198
-37.549401083390556
-38.23300526436255
-39.99084458686198
-41.45571068894484
-41.16273746852827
-42.13931486991684
-42.822919050888835
-42.72526131074998
-44.580758373388264
-46.04562447547112
-46.72922865644312
-47.51049057755398
-47.31517509727627
-49.26832990005341
-50.73319600213626
-50.34256504158083
-51.31914244296941
-52.10040436408026
-52.881666285191116
-53.56527046616312
-53.36995498588541
-55.32310978866255
-56.7879758907454
-56.49500267032883
-56.49500267032883
-56.49500267032883
-56.49500267032883
-56.49500267032883
-56.39734493018997
-52.588693064774546
-49.56130312046998
-50.24490730144198
-42.43228809033341
-36.57282368200198
-27.295338368810558
-18.89677271686885
-20.752269779507134
-7.861448081177996
1.6113527122911422
-0.43945983062485694
13.232623788815136
23.58434424353399
32.764171816586554
42.13931486991684
39.99084458686198
47.11985961699855
52.295719844357976
51.123826962691695
55.127794308384836
58.057526512550545
57.37392233157855
57.471580071717405
57.471580071717405
55.51842526894026
54.053559166857404
54.346532387273975
49.46364538033112
45.75265125505455
41.84634164950027
37.94003204394598
38.72129396505684
31.885252155336843
26.709391927977418
27.881284809643702
20.84992751964599
15.771725032425422
10.205233844510566
4.736400396734569
5.908293278400855
-2.783245593957427
-9.42397192339971
-7.959105821316854
-18.799114976729992
-26.90470740825513
-32.6665140764477
-39.014267185473415
-37.64705882352941
-42.72526131074998
-46.33859769588769
-45.45967803463798
-47.60814831769284
-48.97535667963683
-46.72922865644312
-45.362020294499125
-45.654993514915695
-41.74868390936141
-38.72129396505684
-39.40489814602884
-36.37750820172427
-34.131380178530556
-33.74074921797513
-32.86182955672541
-33.05714503700313
-33.93606469825284
-34.61966887922484
-34.52201113908598
-36.37750820172427
-37.84237430380713
-39.40489814602884
-40.96742198825055
-40.67444876783398
-41.651026169222554
-42.33463035019455
-42.236972610055695
-44.09246967269398
-45.55733577477684
-46.240939955748836
-47.0222018768597
-46.826886396581976
-47.80346379797055
-48.48706797894255
-48.291752498664835
-49.26832990005341
-50.04959182116426
-49.85427634088655
-49.85427634088655
-49.85427634088655
-48.877698939497975
-48.09643701838712
-48.291752498664835
-43.40886549172198
-39.69787136644541
-31.9829098954757
-25.049210345616846
-26.61173418783856
-14.795147631036851
-5.908293278400855
-7.861448081177996
4.834058136873426
14.404516670481422
23.779659723811704
33.15480277714199
31.00633249408713
40.08850232700084
46.63157091630426
45.16670481422141
50.24490730144198
53.85824368657969
53.95590142671855
54.932478828107115
54.639505607690545
52.78400854505226
51.31914244296941
51.61211566338598
47.705806057831694
44.67841611352712
39.600213626306555
35.010299839780274
36.0845349813077
29.150835431448844
23.974975204089418
25.049210345616846
17.236591134508277
11.279468986037996
4.931715877012284
-1.1230640115968566
0.14648661020828566
-6.787212939650568
-11.865415426871138
-10.79118028534371
-17.724879835202564
-22.803082322423133
-26.416418707560844
-30.420386053253985
-29.541466392004274
-33.545433737697415
-36.475165941863125
-35.79156176089113
-38.72129396505684
-40.96742198825055
-41.358052948805984
-42.236972610055695
-42.04165712977798
-43.99481193255512
-45.45967803463798
-45.069047074082555
-45.16670481422141
-45.16670481422141
-46.04562447547112
-46.826886396581976
-46.63157091630426
-46.63157091630426
-46.63157091630426
-46.63157091630426
-47.51049057755398
-48.291752498664835
-48.09643701838712
-48.09643701838712
-48.09643701838712
-49.073014419775696
-49.75661860074769
-49.56130312046998
-49.56130312046998
-49.56130312046998
-50.53788052185855
-51.22148470283055
-51.02616922255284
-52.002746623941405
-52.78400854505226
-52.588693064774546
-52.588693064774546
-52.588693064774546
-53.467612726024264
-54.24887464713512
-54.053559166857404
-54.053559166857404
-54.053559166857404
-54.053559166857404
-53.07698176546884
-52.295719844357976
-48.584725719081405
-45.654993514915695
-46.240939955748836
-38.42832074464027
-32.56885633630884
-33.838406958113985
-22.998397802700847
-14.892805371175708
-3.36919203479057
7.373159380483711
4.931715877012284
17.920195315480278
27.392996108949415
25.24452582589456
36.27985046158541
44.28778515297169
49.17067215991455
54.7371633478294
53.467612726024264
56.59266041046769
58.74113069352254
58.25284199282826
57.37392233157855
56.59266041046769
52.97932402532997
49.951934081025406
50.53788052185855
44.67841611352712
40.28381780727855
41.26039520866713
35.303273060196844
30.811017013809415
24.17029068436713
18.017853055619135
19.385061417563133
12.353704127565424
7.275501640344854
8.349736781872283
1.416037232013428
-3.5645075150682843
-8.154421301594567
-12.939650568398566
-11.865415426871138
-16.84596017395285
-20.45929655909056
-19.678034637979707
-22.705424582284277
-24.853894865339132
-27.295338368810558
-29.63912413214313
-29.053177691309987
-31.103990234225986
-32.56885633630884
-32.178225375753414
-33.252460517280845
-33.93606469825284
-34.717326619363696
-35.49858854047456
-35.303273060196844
-39.11192492561227
-42.13931486991684
-41.45571068894484
-47.31517509727627
-51.709773403524835
-56.39734493018997
-61.08491645685512
-60.01068131532769
-63.13572899977112
-65.28419928282597
-64.69825284199283
-63.91699092088197
-63.13572899977112
-60.401312275883114
-58.057526512550545
-58.54581521324483
-52.6863508049134
-48.291752498664835
-49.26832990005341
-43.311207751583126
-38.818951705195694
-37.94003204394598
-36.182192721446555
-36.57282368200198
-37.4517433432517
-38.1353475242237
-38.03768978408484
-38.03768978408484
-38.03768978408484
-37.06111238269627
-36.27985046158541
-36.475165941863125
-32.56885633630884
-29.63912413214313
-30.22507057297627
-22.412451361867703
-16.55298695353628
-7.373159380483711
1.0254062714579995
-0.7324330510414282
11.963073167009995
21.533531700617992
19.385061417563133
32.27588311589227
41.84634164950027
49.26832990005341
57.08094911116198
55.32310978866255
61.475547417410546
65.77248798352025
64.79591058213168
66.94438086518655
68.31158922713054
66.06546120393683
64.60059510185397
64.89356832227054
60.987258716716255
58.057526512550545
58.643472953383686
52.78400854505226
48.38941023880369
42.62760357061112
37.15877012283513
38.42832074464027
31.396963454642556
26.318760967421987
27.392996108949415
20.45929655909056
15.283436331731137
10.693522545204852
6.005951018539712
7.080186160067139
2.9785610742351416
0.04882887006942855
0.7324330510414282
-3.1738765545128556
-6.103608758678568
-8.252079041733426
-10.595864805065995
-10.10757610437171
-12.158388647287708
-13.623254749370565
-13.232623788815136
-15.283436331731137
-16.748302433813993
-17.334248874647134
-18.11551079575799
-17.920195315480278
-18.89677271686885
-19.678034637979707
-19.48271915770199
-20.45929655909056
-21.24055848020142
-22.021820401312276
-22.803082322423133
-22.60776684214542
-23.58434424353399
-24.267948424505988
-24.17029068436713
-25.146868085755703
-25.830472266727703
-27.588311589227132
-29.053177691309987
-28.760204470893417
-29.736781872281988
-30.518043793392845
-30.322728313115128
-31.2993057145037
-31.9829098954757
-32.764171816586554
-33.545433737697415
-33.3501182574197
-35.303273060196844
-36.768139162279695
-36.475165941863125
-36.475165941863125
-36.475165941863125
-36.475165941863125
-36.475165941863125
-36.475165941863125
-33.545433737697415
-31.2993057145037
-31.787594415197987
-25.049210345616846
-19.87335011825742
-10.498207064927138
-2.0019836728465705
-3.9551384756237127
9.71694514381628
20.068665598535134
17.724879835202564
31.592278934920273
41.943999389639124
51.02616922255284
60.49897001602197
58.350499732967116
66.45609216449226
72.21789883268482
70.94834821087969
75.04997329671168
77.88204776073853
78.17502098115511
79.05394064240483
78.85862516212711
76.02655069810025
73.68276493476768
74.17105363546197
70.26474402990769
67.23735408560312
62.15915159838254
57.56923781185626
58.54581521324483
51.61211566338598
46.43625543602655
47.60814831769284
40.67444876783398
35.49858854047456
29.9320973525597
24.4632639047837
25.732814526588847
18.701457236591136
13.623254749370565
14.697489890897993
8.74036774242771
4.345769436179141
1.513694972152285
-1.6113527122911422
-0.9277485313191425
-4.834058136873426
-7.763790341039139
-7.177843900205997
-9.228656443121995
-10.693522545204852
-12.256046387426567
-13.81857022964828
-13.427939269092851
-14.50217441062028
-15.185778591592278
-14.990463111314565
-16.943617914091707
-18.40848401617456
-19.092088197146563
-19.87335011825742
-19.678034637979707
-21.63118944075685
-23.096055542839704
-22.705424582284277
-23.779659723811704
-24.4632639047837
-26.22110322728313
-27.783627069504846
-27.392996108949415
-28.369573510337986
-29.150835431448844
-28.95551995117113
-30.908674753948272
-32.37354085603113
-33.93606469825284
-35.49858854047456
-35.10795757991913
-38.03768978408484
-40.28381780727855
-39.79552910658427
-45.55733577477684
-49.951934081025406
-53.760585946440834
-57.66689555199512
-56.7879758907454
-56.983291371023114
-56.88563363088426
-56.88563363088426
-51.123826962691695
-46.63157091630426
-36.182192721446555
-27.002365148393988
-29.053177691309987
-12.353704127565424
0.04882887006942855
-2.5879301136797133
16.064698252841993
30.029755092698558
42.13931486991684
54.7371633478294
51.90508888380255
62.061493858243686
69.28816662851911
67.7256427862974
73.78042267490653
78.07736324101626
79.05394064240483
80.71412222476539
80.32349126420996
78.46799420157168
76.90547035934996
77.19844357976653
73.29213397421225
70.36240177004655
65.18654154268711
60.59662775616083
61.5732051575494
54.639505607690545
49.56130312046998
50.635538261997404
41.74868390936141
35.10795757991913
28.95551995117113
22.705424582284277
24.072632944228275
16.16235599298085
10.205233844510566
11.572442206454566
4.541084916456855
-0.43945983062485694
-5.0293736171511405
-9.71694514381628
-8.74036774242771
-13.720912489509422
-17.334248874647134
-16.55298695353628
-19.58037689784085
-21.826504921034562
-24.17029068436713
-26.514076447699704
-25.92813000686656
-27.97894254978256
-29.443808651865414
-29.053177691309987
-30.127412832837415
-30.811017013809415
-32.56885633630884
-34.0337224383917
-33.74074921797513
-34.717326619363696
-35.49858854047456
-35.303273060196844
-36.27985046158541
-36.96345464255741
-37.74471656366827
-38.525978484779124
-38.33066300450141
-39.307240405889985
-40.08850232700084
-39.893186846723125
-39.893186846723125
-39.893186846723125
-40.772106507972836
-41.5533684290837
-41.358052948805984
-41.358052948805984
-41.358052948805984
-41.358052948805984
-42.33463035019455
-43.018234531166556
-42.822919050888835
-42.92057679102769
-42.822919050888835
-42.822919050888835
-42.822919050888835
-42.822919050888835
-41.84634164950027
-41.065079728389414
-38.42832074464027
-36.0845349813077
-36.57282368200198
-29.834439612420844
-24.560921644922562
-25.732814526588847
-15.967040512703136
-8.545052262149996
2.0996414129854277
12.158388647287708
9.912260624093996
23.779659723811704
34.0337224383917
31.787594415197987
42.72526131074998
50.83085374227512
56.59266041046769
62.9404135194934
61.475547417410546
65.57717250324254
68.50690470740825
67.82330052643626
67.0420386053254
66.16311894407569
64.40527962157626
62.9404135194934
63.233386739909974
58.350499732967116
54.639505607690545
55.420767528801406
49.56130312046998
45.069047074082555
39.40489814602884
33.93606469825284
35.10795757991913
27.1976806286717
21.338216220340275
22.60776684214542
15.674067292286564
10.498207064927138
5.908293278400855
1.2207217517357138
2.2949568932631417
-3.5645075150682843
-8.05676356145571
-7.080186160067139
-11.08415350576028
-14.013885709925994
-16.16235599298085
-18.60379949645228
-18.017853055619135
-20.068665598535134
-21.533531700617992
-21.14290074006256
-22.21713588158999
-22.90074006256199
-23.682001983672848
-24.4632639047837
-24.267948424505988
-25.24452582589456
-26.025787747005417
-25.830472266727703
-26.807049668116274
-27.49065384908827
-28.27191577019913
-29.053177691309987
-28.95551995117113
-29.9320973525597
-30.615701533531702
-30.420386053253985
-31.396963454642556
-32.178225375753414
-32.95948729686427
-33.74074921797513
-33.545433737697415
-34.52201113908598
-35.20561532005799
-35.010299839780274
-36.96345464255741
-38.42832074464027
-39.014267185473415
-39.893186846723125
-39.69787136644541
-40.67444876783398
-41.358052948805984
-41.16273746852827
-42.13931486991684
-42.92057679102769
-41.74868390936141
-41.065079728389414
-41.16273746852827
-39.20958266575113
-37.74471656366827
-38.03768978408484
-32.27588311589227
-27.783627069504846
-20.16632333867399
-13.232623788815136
-14.795147631036851
-5.908293278400855
0.6347753109025711
-0.7324330510414282
6.201266498817426
11.279468986037996
15.869382772564279
20.55695429922942
19.58037689784085
25.537499046311133
29.9320973525597
28.95551995117113
32.95948729686427
35.889219501029984
39.014267185473415
42.13931486991684
41.358052948805984
44.38544289311055
46.63157091630426
46.04562447547112
47.11985961699855
47.80346379797055
44.77607385366598
42.62760357061112
43.11589227130541
36.27985046158541
31.103990234225986
32.178225375753414
25.24452582589456
20.16632333867399
15.576409552147707
10.79118028534371
11.865415426871138
6.884870679789426
3.1738765545128556
3.9551384756237127
0.04882887006942855
-2.8809033340962844
-5.0293736171511405
-7.373159380483711
-6.884870679789426
-8.935683222705425
-10.400549324788281
-10.009918364232853
-12.060730907148852
-13.525597009231708
-14.11154345006485
-14.892805371175708
-14.697489890897993
-15.771725032425422
-16.45532921339742
-16.260013733119706
-16.357671473258563
-16.260013733119706
-17.236591134508277
-18.017853055619135
-17.82253757534142
-18.799114976729992
-19.58037689784085
-19.385061417563133
-21.338216220340275
-22.803082322423133
-23.389028763256274
-24.17029068436713
-23.974975204089418
-25.049210345616846
-25.732814526588847
-25.537499046311133
-26.514076447699704
-27.295338368810558
-28.076600289921416
-28.857862211032273
-28.66254673075456
-29.63912413214313
-30.322728313115128
-30.127412832837415
-31.201647974364842
-31.885252155336843
-31.68993667505913
-31.68993667505913
-31.68993667505913
-30.71335927367056
-30.029755092698558
-30.127412832837415
-25.342183566033416
-21.63118944075685
-14.795147631036851
-8.642710002288853
-10.009918364232853
1.6113527122911422
10.498207064927138
8.545052262149996
22.314793621728846
32.56885633630884
42.72526131074998
52.881666285191116
50.635538261997404
60.59662775616083
67.92095826657511
66.26077668421455
72.31555657282368
76.71015487907225
77.58907454032196
79.24925612268254
78.85862516212711
77.97970550087739
77.19844357976653
77.29610131990539
73.48744945448996
70.4600595101854
66.3584344243534
62.45212481879911
63.33104448004883
57.37392233157855
52.881666285191116
53.85824368657969
46.92454413672083
41.84634164950027
36.27985046158541
30.811017013809415
31.9829098954757
25.049210345616846
19.87335011825742
21.045242999923705
14.990463111314565
10.595864805065995
6.787212939650568
2.8809033340962844
3.7598229953459983
-1.1230640115968566
-4.736400396734569
-3.9551384756237127
-6.982528419928283
-9.228656443121995
-10.595864805065995
-12.158388647287708
-11.865415426871138
-13.81857022964828
-15.283436331731137
-14.990463111314565
-16.943617914091707
-18.40848401617456
-18.994430457007706
-19.87335011825742
-19.678034637979707
-21.533531700617992
-23.096055542839704
-22.705424582284277
-24.65857938506142
-26.123445487144274
-27.68596932936599
-29.2484931715877
-28.95551995117113
-29.9320973525597
-30.615701533531702
-30.518043793392845
-32.471198596169984
-33.93606469825284
-34.52201113908598
-35.303273060196844
-35.10795757991913
-37.06111238269627
-38.525978484779124
-38.1353475242237
-39.20958266575113
-39.893186846723125
-39.69787136644541
-39.79552910658427
-39.69787136644541
-39.69787136644541
-39.69787136644541
-39.69787136644541
-36.86579690241855
-34.61966887922484
-28.369573510337986
-23.096055542839704
-24.267948424505988
-14.404516670481422
-7.080186160067139
-8.642710002288853
3.9551384756237127
13.525597009231708
23.87731746395056
33.93606469825284
31.68993667505913
43.604180971999696
52.39337758449683
50.44022278171969
59.42473487449455
66.06546120393683
68.4092469672694
71.63195239185168
70.85069047074083
72.02258335240711
72.70618753337911
72.5108720531014
70.55771725032426
69.0928511482414
65.57717250324254
62.54978255893797
63.13572899977112
55.32310978866255
49.46364538033112
50.73319600213626
38.91660944533455
30.127412832837415
21.533531700617992
12.939650568398566
14.892805371175708
5.810635538261997
-0.6347753109025711
0.7324330510414282
-5.224689097428855
-9.619287403677424
-11.47478446631571
-13.916227969787137
-13.427939269092851
-12.549019607843137
-11.767757686732281
-11.963073167009995
-10.986495765621424
-10.205233844510566
-10.400549324788281
-10.400549324788281
-10.400549324788281
-11.279468986037996
-12.060730907148852
-11.865415426871138
-12.84199282825971
-13.623254749370565
-14.404516670481422
-15.185778591592278
-14.990463111314565
-15.967040512703136
-16.650644693675137
-16.55298695353628
-16.55298695353628
-16.55298695353628
-17.52956435492485
-18.21316853589685
-18.017853055619135
-19.092088197146563
-19.775692378118563
-19.58037689784085
-20.55695429922942
-21.338216220340275
-23.096055542839704
-24.560921644922562
-24.267948424505988
-25.24452582589456
-25.92813000686656
-25.830472266727703
-28.66254673075456
-30.908674753948272
-32.27588311589227
-33.93606469825284
-33.545433737697415
-35.49858854047456
-36.96345464255741
-36.67048142214084
-37.64705882352941
-38.33066300450141
-36.27985046158541
-34.81498435950255
-35.10795757991913
-30.22507057297627
-26.514076447699704
-27.392996108949415
-18.60379949645228
-11.963073167009995
-1.0254062714579995
8.838025482566568
6.6895551995117115
20.55695429922942
30.811017013809415
28.467231250476843
41.45571068894484
50.928511482413974
58.350499732967116
66.26077668421455
64.50293736171511
69.58113984893568
73.19447623407339
72.41321431296254
73.48744945448996
74.17105363546197
72.12024109254597
70.55771725032426
70.94834821087969
66.94438086518655
64.01464866102083
64.69825284199283
58.74113069352254
54.346532387273975
48.584725719081405
43.21355001144427
44.38544289311055
37.35408560311284
32.27588311589227
33.3501182574197
25.439841306172273
19.58037689784085
13.232623788815136
6.982528419928283
8.349736781872283
2.392614633401999
-1.9043259327077133
-0.9277485313191425
-6.884870679789426
-11.279468986037996
-14.11154345006485
-17.334248874647134
-16.650644693675137
-19.678034637979707
-21.826504921034562
-21.338216220340275
-23.291371023117417
-24.756237125200276
-26.416418707560844
-27.881284809643702
-27.588311589227132
-28.564888990615703
-29.346150911726557
-29.150835431448844
-31.103990234225986
-32.56885633630884
-33.15480277714199
-33.93606469825284
-33.74074921797513
-34.717326619363696
-35.49858854047456
-35.303273060196844
-37.256427862973986
-38.72129396505684
-39.307240405889985
-40.08850232700084
-39.893186846723125
-40.86976424811169
-41.651026169222554
-41.45571068894484
-43.40886549172198
-44.873731593804834
-45.45967803463798
-46.240939955748836
-46.04562447547112
-47.0222018768597
-47.80346379797055
-47.60814831769284
-47.60814831769284
-47.60814831769284
-47.60814831769284
-47.51049057755398
-47.51049057755398
-45.654993514915695
-44.09246967269398
-44.38544289311055
-38.62363622491798
-34.131380178530556
-26.514076447699704
-19.678034637979707
-21.14290074006256
-9.326314183260854
-0.537117570763714
-2.490272373540856
11.181811245899137
21.533531700617992
30.71335927367056
40.08850232700084
37.94003204394598
47.998779278248264
55.32310978866255
53.66292820630198
58.74113069352254
62.35446707866026
63.42870222018769
65.08888380254825
64.69825284199283
62.84275577935454
61.37788967727169
61.67086289768826
57.764553292133975
54.7371633478294
49.658960860608836
45.069047074082555
46.04562447547112
39.11192492561227
34.0337224383917
35.10795757991913
28.174258030060273
22.998397802700847
17.43190661478599
12.060730907148852
13.232623788815136
7.275501640344854
2.783245593957427
3.7598229953459983
-2.0019836728465705
-6.494239719233997
-9.326314183260854
-12.45136186770428
-11.767757686732281
-17.627222095063708
-22.021820401312276
-21.045242999923705
-28.95551995117113
-34.81498435950255
-39.20958266575113
-43.89715419241627
-42.92057679102769
-46.92454413672083
-49.85427634088655
-49.17067215991455
-49.26832990005341
-49.26832990005341
-46.33859769588769
-44.09246967269398
-44.580758373388264
-39.69787136644541
-35.98687724116884
-36.768139162279695
-32.764171816586554
-29.834439612420844
-28.564888990615703
-26.90470740825513
-27.295338368810558
-29.150835431448844
-30.615701533531702
-30.22507057297627
-31.2993057145037
-31.9829098954757
-33.74074921797513
-35.303273060196844
-34.91264209964141
-35.889219501029984
-36.67048142214084
-36.475165941863125
-38.42832074464027
-39.893186846723125
-40.479133287556266
-41.26039520866713
-41.065079728389414
-40.186160067139696
-39.40489814602884
-39.600213626306555
-35.69390402075227
-32.6665140764477
-24.756237125200276
-17.920195315480278
-19.48271915770199
-7.666132600900283
1.1230640115968566
-0.7324330510414282
12.939650568398566
23.19371328297856
35.303273060196844
46.92454413672083
44.28778515297169
56.29968719005112
65.08888380254825
63.13572899977112
72.12024109254597
78.6633096818494
81.00709544518196
84.22980086976425
83.54619668879225
84.62043183031967
85.30403601129167
85.10872053101396
84.13214312962539
83.35088120851454
79.73754482337682
76.71015487907225
77.29610131990539
72.41321431296254
68.70222018768597
69.48348210879682
62.54978255893797
57.37392233157855
51.80743114366369
46.33859769588769
47.60814831769284
39.600213626306555
33.74074921797513
35.010299839780274
27.100022888532845
21.24055848020142
16.748302433813993
12.060730907148852
13.13496604867628
7.177843900205997
2.68558785381857
3.662165255207141
-0.24414435034714274
-3.1738765545128556
-6.298924238956283
-9.42397192339971
-8.74036774242771
-10.79118028534371
-12.256046387426567
-11.963073167009995
-13.916227969787137
-15.381094071869994
-16.943617914091707
-18.506141756313422
-18.11551079575799
-20.16632333867399
-21.63118944075685
-21.24055848020142
-23.19371328297856
-24.65857938506142
-26.22110322728313
-27.783627069504846
-27.49065384908827
-29.443808651865414
-30.908674753948272
-30.518043793392845
-32.56885633630884
-34.0337224383917
-34.61966887922484
-35.4009308003357
-35.20561532005799
-37.15877012283513
-38.62363622491798
-38.33066300450141
-40.28381780727855
-41.74868390936141
-42.33463035019455
-43.11589227130541
-42.92057679102769
-42.92057679102769
-42.92057679102769
-42.92057679102769
-40.96742198825055
-39.5025558861677
-35.010299839780274
-31.2993057145037
-32.08056763561456
-23.291371023117417
-16.650644693675137
-18.11551079575799
-4.443427176317998
5.810635538261997
17.82253757534142
29.443808651865414
26.90470740825513
40.772106507972836
51.02616922255284
48.78004119935912
60.694285496299685
69.48348210879682
74.17105363546197
79.83520256351568
78.56565194171054
82.56961928740368
85.49935149156939
84.81574731059739
83.93682764934768
83.15556572823682
80.42114900434882
78.17502098115511
78.6633096818494
73.78042267490653
70.06942854962998
70.85069047074083
64.89356832227054
60.49897001602197
53.760585946440834
47.60814831769284
48.97535667963683
40.08850232700084
33.44777599755856
34.91264209964141
26.90470740825513
21.045242999923705
14.697489890897993
8.44739452201114
9.81460288395514
2.8809033340962844
-2.197299153124285
-1.0254062714579995
-7.080186160067139
-11.47478446631571
-14.306858930342566
-17.43190661478599
-16.748302433813993
-19.775692378118563
-21.92416266117342
-21.43587396047913
-23.48668650339513
-24.95155260547799
-27.49065384908827
-29.736781872281988
-29.2484931715877
-31.201647974364842
-32.6665140764477
-32.37354085603113
-34.32669565880827
-35.79156176089113
-37.35408560311284
-38.91660944533455
-38.525978484779124
-42.43228809033341
-45.362020294499125
-44.67841611352712
-51.51445792324712
-56.690318150606544
-61.182574196993976
-65.8701457236591
-64.79591058213168
-67.92095826657511
-70.06942854962998
-69.58113984893568
-70.55771725032426
-71.33897917143511
-69.19050888838025
-67.7256427862974
-68.01861600671397
-63.13572899977112
-59.42473487449455
-60.30365453574426
-55.32310978866255
-51.61211566338598
-49.56130312046998
-47.11985961699855
-47.60814831769284
-44.580758373388264
-42.43228809033341
-42.92057679102769
-37.06111238269627
-32.56885633630884
-23.096055542839704
-14.697489890897993
-16.55298695353628
-3.662165255207141
5.810635538261997
3.662165255207141
18.40848401617456
29.443808651865414
39.40489814602884
49.56130312046998
47.31517509727627
56.39734493018997
62.9404135194934
61.475547417410546
66.55374990463112
70.16708628976883
69.28816662851911
69.48348210879682
69.38582436865796
67.53032730601969
65.96780346379796
66.3584344243534
61.475547417410546
57.764553292133975
52.78400854505226
48.19409475852598
49.17067215991455
42.236972610055695
37.06111238269627
38.23300526436255
30.322728313115128
24.365606164644845
18.11551079575799
11.865415426871138
13.232623788815136
6.201266498817426
1.1230640115968566
2.197299153124285
-3.662165255207141
-8.05676356145571
-10.888838025482567
-14.11154345006485
-13.330281528953995
-16.357671473258563
-18.60379949645228
-18.11551079575799
-20.068665598535134
-21.533531700617992
-23.096055542839704
-24.65857938506142
-24.267948424505988
-25.342183566033416
-26.025787747005417
-25.92813000686656
-26.90470740825513
-27.588311589227132
-29.346150911726557
-30.811017013809415
-30.518043793392845
-31.494621194781413
-32.27588311589227
-32.08056763561456
-34.0337224383917
-35.49858854047456
-37.06111238269627
-38.62363622491798
-38.23300526436255
-39.20958266575113
-39.99084458686198
-39.79552910658427
-40.772106507972836
-41.45571068894484
-42.236972610055695
-43.018234531166556
-42.822919050888835
-43.79949645227741
-44.580758373388264
-44.38544289311055
-45.362020294499125
-46.04562447547112
-46.826886396581976
-47.60814831769284
-47.412832837415124
-46.43625543602655
-45.75265125505455
-45.85030899519341
-43.89715419241627
-42.43228809033341
-36.96345464255741
-32.471198596169984
-33.44777599755856
-24.65857938506142
-18.017853055619135
-19.48271915770199
-6.6895551995117115
2.783245593957427
13.037308308537423
23.19371328297856
20.947585259784848
32.86182955672541
41.651026169222554
39.69787136644541
48.68238345922026
55.22545204852369
58.54581521324483
62.54978255893797
61.67086289768826
61.86617837796597
61.768520637827116
61.768520637827116
58.936446173800256
56.690318150606544
51.416800183108265
46.826886396581976
47.80346379797055
40.86976424811169
35.69390402075227
36.86579690241855
29.9320973525597
24.756237125200276
19.18974593728542
13.720912489509422
14.990463111314565
7.959105821316854
2.8809033340962844
4.052796215762569
-0.9277485313191425
-4.541084916456855
-8.545052262149996
-12.45136186770428
-11.572442206454566
-14.599832150759136
-16.748302433813993
-16.260013733119706
-18.310826276035705
-19.775692378118563
-20.361638818951704
-21.24055848020142
-21.045242999923705
-21.045242999923705
-21.045242999923705
-21.045242999923705
-22.021820401312276
-22.705424582284277
-23.48668650339513
-24.267948424505988
-24.072632944228275
-24.072632944228275
-24.072632944228275
-24.072632944228275
-25.049210345616846
-25.732814526588847
-27.49065384908827
-29.053177691309987
-28.66254673075456
-29.736781872281988
-30.420386053253985
-30.22507057297627
-31.201647974364842
-31.9829098954757
-32.764171816586554
-33.545433737697415
-33.3501182574197
-34.32669565880827
-35.010299839780274
-34.81498435950255
-35.79156176089113
-36.57282368200198
-37.35408560311284
-38.1353475242237
-37.94003204394598
-41.74868390936141
-44.67841611352712
-43.99481193255512
-48.97535667963683
-52.588693064774546
-52.6863508049134
-53.66292820630198
-53.36995498588541
-48.68238345922026
-44.97138933394369
-45.75265125505455
-33.15480277714199
-23.48668650339513
-7.470817120622568
6.982528419928283
3.7598229953459983
24.4632639047837
39.893186846723125
36.475165941863125
56.29968719005112
71.04600595101854
80.12817578393225
90.47989623865111
88.13611047531853
92.43305104142824
95.2651255054551
94.5815213244831
95.65575646601053
96.33936064698253
94.28854810406654
92.82368200198367
93.11665522240024
88.23376821545739
84.52277409018082
85.30403601129167
79.3469138628214
74.85465781643397
69.19050888838025
63.72167544060426
64.89356832227054
56.983291371023114
51.123826962691695
52.39337758449683
44.48310063324941
38.525978484779124
32.178225375753414
25.92813000686656
27.295338368810558
21.338216220340275
16.943617914091707
17.920195315480278
11.963073167009995
7.470817120622568
4.638742656595713
1.513694972152285
2.197299153124285
-0.7324330510414282
-2.8809033340962844
-2.392614633401999
-4.443427176317998
-5.908293278400855
-7.470817120622568
-9.033340962844282
-8.74036774242771
-10.693522545204852
-12.158388647287708
-11.865415426871138
-13.81857022964828
-15.283436331731137
-17.82253757534142
-20.068665598535134
-19.58037689784085
-21.63118944075685
-22.998397802700847
-22.705424582284277
-24.65857938506142
-26.123445487144274
-27.68596932936599
-29.2484931715877
-28.95551995117113
-31.885252155336843
-34.0337224383917
-33.545433737697415
-35.596246280613414
-36.96345464255741
-39.5025558861677
-41.84634164950027
-41.26039520866713
-44.28778515297169
-46.43625543602655
-45.947966735332265
-48.877698939497975
-51.123826962691695
-51.51445792324712
-52.39337758449683
-52.19806210421912
-51.22148470283055
-50.44022278171969
-50.635538261997404
-45.75265125505455
-42.04165712977798
-34.32669565880827
-27.392996108949415
-28.95551995117113
-17.13893339436942
-8.252079041733426
-10.205233844510566
1.513694972152285
10.400549324788281
18.89677271686885
27.49065384908827
25.537499046311133
31.68993667505913
36.0845349813077
35.10795757991913
37.15877012283513
38.62363622491798
37.35408560311284
36.67048142214084
36.768139162279695
33.93606469825284
31.68993667505913
32.178225375753414
29.150835431448844
26.90470740825513
22.60776684214542
18.799114976729992
19.678034637979707
14.697489890897993
10.986495765621424
11.865415426871138
6.884870679789426
3.1738765545128556
-2.5879301136797133
-7.959105821316854
-6.787212939650568
-12.74433508812085
-17.13893339436942
-16.16235599298085
-21.14290074006256
-24.756237125200276
-28.760204470893417
-32.6665140764477
-31.787594415197987
-35.79156176089113
-38.62363622491798
-38.03768978408484
-40.96742198825055
-43.21355001144427
-45.55733577477684
-47.90112153810941
-47.31517509727627
-48.38941023880369
-49.073014419775696
-48.877698939497975
-50.83085374227512
-52.295719844357976
-52.881666285191116
-53.760585946440834
-53.56527046616312
-54.54184786755169
-55.22545204852369
-55.03013656824598
-55.03013656824598
-55.03013656824598
-55.03013656824598
-55.03013656824598
-54.932478828107115
-54.932478828107115
-54.932478828107115
-54.932478828107115
-54.932478828107115
-54.932478828107115
-54.83482108796826
-54.83482108796826
-54.83482108796826
-54.83482108796826
-54.83482108796826
-54.83482108796826
-54.7371633478294
-54.7371633478294
-54.7371633478294
-54.7371633478294
-54.7371633478294
-52.78400854505226
-51.31914244296941
-51.61211566338598
-46.72922865644312
-43.018234531166556
-36.182192721446555
-30.029755092698558
-31.396963454642556
-20.55695429922942
-12.45136186770428
-14.306858930342566
-0.537117570763714
9.71694514381628
20.752269779507134
31.68993667505913
29.2484931715877
38.33066300450141
44.873731593804834
43.40886549172198
46.63157091630426
48.78004119935912
46.33859769588769
44.97138933394369
45.26436255436027
42.33463035019455
40.08850232700084
40.57679102769512
37.549401083390556
35.4009308003357
33.93606469825284
32.27588311589227
32.6665140764477
31.592278934920273
30.908674753948272
31.00633249408713
28.174258030060273
25.92813000686656
21.63118944075685
17.82253757534142
18.60379949645228
11.767757686732281
6.591897459372854
7.763790341039139
0.8300907911802854
-4.248111696040284
-7.861448081177996
-11.865415426871138
-10.986495765621424
-14.990463111314565
-17.920195315480278
-17.236591134508277
-19.287403677424276
-20.752269779507134
-21.338216220340275
-22.119478141451133
-22.021820401312276
-22.998397802700847
-23.682001983672848
-23.48668650339513
-24.4632639047837
-25.24452582589456
-26.025787747005417
-26.807049668116274
-26.61173418783856
-27.588311589227132
-28.27191577019913
-28.174258030060273
-28.174258030060273
-28.174258030060273
-28.174258030060273
-28.174258030060273
-28.174258030060273
-28.076600289921416
-28.076600289921416
-28.076600289921416
-27.100022888532845
-26.416418707560844
-25.537499046311133
-24.756237125200276
-24.95155260547799
-22.998397802700847
-21.533531700617992
-21.826504921034562
-21.728847180895706
-21.728847180895706
-21.728847180895706
-21.728847180895706
-21.728847180895706
-21.728847180895706
-21.728847180895706
-21.728847180895706
-21.728847180895706
-21.728847180895706
-20.752269779507134
-19.971007858396277
-20.16632333867399
-16.260013733119706
-13.330281528953995
-14.013885709925994
-5.224689097428855
1.3183794918745708
12.256046387426567
22.21713588158999
19.971007858396277
34.81498435950255
45.85030899519341
43.311207751583126
57.27626459143969
67.53032730601969
75.73357747768368
84.3274586099031
82.37430380712597
90.47989623865111
96.24170290684367
94.97215228503853
98.09719996948196
100.14801251239795
99.65972381170367
99.75738155184253
99.65972381170367
96.82764934767681
94.5815213244831
94.97215228503853
90.08926527809568
86.37827115281911
81.39772640573739
76.8078126192111
77.78439002059967
70.85069047074083
65.6748302433814
66.84672312504769
60.79194323643854
56.39734493018997
51.61211566338598
46.92454413672083
47.90112153810941
43.89715419241627
40.96742198825055
41.5533684290837
37.64705882352941
34.61966887922484
33.3501182574197
31.787594415197987
32.08056763561456
31.103990234225986
30.322728313115128
30.518043793392845
29.443808651865414
28.760204470893417
27.97894254978256
27.100022888532845
27.295338368810558
25.342183566033416
23.87731746395056
24.17029068436713
23.19371328297856
22.412451361867703
20.654612039368278
19.092088197146563
19.48271915770199
16.55298695353628
14.306858930342566
14.795147631036851
12.74433508812085
11.279468986037996
8.74036774242771
6.494239719233997
6.982528419928283
3.9551384756237127
1.8066681925688564
2.2949568932631417
0.24414435034714274
-1.1230640115968566
-3.662165255207141
-5.908293278400855
-5.420004577706569
-8.44739452201114
-10.595864805065995
-10.10757610437171
-12.158388647287708
-13.623254749370565
-15.185778591592278
-16.748302433813993
-16.357671473258563
-17.43190661478599
-18.11551079575799
-17.920195315480278
-15.088120851453422
-12.84199282825971
-7.666132600900283
-3.076218814373999
-4.052796215762569
6.591897459372854
14.697489890897993
12.84199282825971
25.63515678644999
35.20561532005799
46.43625543602655
57.27626459143969
54.83482108796826
65.8701457236591
73.87808041504539
72.12024109254597
79.15159838254368
84.22980086976425
85.0110627908751
86.67124437323568
86.28061341268025
83.4485389486534
81.20241092545967
81.69069962615396
75.83123521782254
71.33897917143511
65.6748302433814
60.2059967956054
61.37788967727169
49.658960860608836
40.772106507972836
42.72526131074998
27.97894254978256
16.943617914091707
6.005951018539712
-4.834058136873426
-2.392614633401999
-11.572442206454566
-18.11551079575799
-16.650644693675137
-22.705424582284277
-27.100022888532845
-26.123445487144274
-26.318760967421987
-26.22110322728313
-23.389028763256274
-21.14290074006256
-21.63118944075685
-16.748302433813993
-13.037308308537423
-12.939650568398566
-11.963073167009995
-12.158388647287708
-12.158388647287708
-12.158388647287708
-12.158388647287708
-13.037308308537423
-13.81857022964828
-13.623254749370565
-13.623254749370565
-13.623254749370565
-14.599832150759136
-15.381094071869994
-15.185778591592278
-17.13893339436942
-18.60379949645228
-19.18974593728542
-20.068665598535134
-19.87335011825742
-21.826504921034562
-23.291371023117417
-22.90074006256199
-24.853894865339132
-26.318760967421987
-28.857862211032273
-31.201647974364842
-30.615701533531702
-32.6665140764477
-34.131380178530556
-33.74074921797513
-35.79156176089113
-37.15877012283513
-37.84237430380713
-38.62363622491798
-38.42832074464027
-39.40489814602884
-40.08850232700084
-39.99084458686198
-40.96742198825055
-41.651026169222554
-39.600213626306555
-38.1353475242237
-38.42832074464027
-34.52201113908598
-31.592278934920273
-32.178225375753414
-23.48668650339513
-16.748302433813993
-7.763790341039139
0.6347753109025711
-1.1230640115968566
11.572442206454566
21.14290074006256
18.994430457007706
31.885252155336843
41.45571068894484
47.90112153810941
55.03013656824598
53.36995498588541
58.54581521324483
62.15915159838254
61.28023193713283
61.475547417410546
61.37788967727169
57.56923781185626
54.639505607690545
55.22545204852369
49.365987640192266
44.873731593804834
45.85030899519341
38.03768978408484
32.08056763561456
25.732814526588847
19.48271915770199
20.84992751964599
12.939650568398566
7.080186160067139
8.349736781872283
1.416037232013428
-3.662165255207141
-8.252079041733426
-12.939650568398566
-11.865415426871138
-15.967040512703136
-18.799114976729992
-18.21316853589685
-22.119478141451133
-25.049210345616846
-26.318760967421987
-27.97894254978256
-27.588311589227132
-29.541466392004274
-31.00633249408713
-30.71335927367056
-31.68993667505913
-32.37354085603113
-33.15480277714199
-33.93606469825284
-33.74074921797513
-34.717326619363696
-35.49858854047456
-35.303273060196844
-36.27985046158541
-37.06111238269627
-36.86579690241855
-36.86579690241855
-36.86579690241855
-37.74471656366827
-38.525978484779124
-38.33066300450141
-39.307240405889985
-40.08850232700084
-40.86976424811169
-41.5533684290837
-41.358052948805984
-42.33463035019455
-43.11589227130541
-42.92057679102769
-43.89715419241627
-44.580758373388264
-45.362020294499125
-46.14328221560998
-45.947966735332265
-46.92454413672083
-47.705806057831694
-47.51049057755398
-48.48706797894255
-49.17067215991455
-48.97535667963683
-49.073014419775696
-48.97535667963683
-46.14328221560998
-43.89715419241627
-44.38544289311055
-38.525978484779124
-34.0337224383917
-24.560921644922562
-16.16235599298085
-18.017853055619135
-4.248111696040284
6.005951018539712
3.662165255207141
19.48271915770199
31.201647974364842
41.943999389639124
52.97932402532997
50.44022278171969
61.475547417410546
69.58113984893568
67.7256427862974
73.87808041504539
78.17502098115511
78.17502098115511
79.05394064240483
78.85862516212711
76.90547035934996
75.44060425726711
75.73357747768368
71.8272678721294
68.79987792782482
62.745098039215684
57.471580071717405
58.643472953383686
51.61211566338598
46.43625543602655
47.60814831769284
39.69787136644541
33.838406958113985
27.49065384908827
21.24055848020142
22.60776684214542
15.576409552147707
10.498207064927138
11.572442206454566
5.615320057984283
1.2207217517357138
-2.490272373540856
-6.39658197909514
-5.517662317845426
-12.45136186770428
-17.52956435492485
-16.45532921339742
-23.389028763256274
-28.467231250476843
-33.05714503700313
-37.74471656366827
-36.67048142214084
-39.79552910658427
-41.943999389639124
-41.45571068894484
-41.5533684290837
-41.45571068894484
-39.600213626306555
-38.1353475242237
-38.42832074464027
-34.52201113908598
-31.494621194781413
-32.178225375753414
-28.174258030060273
-25.24452582589456
-24.95155260547799
-24.072632944228275
-24.267948424505988
-26.123445487144274
-27.588311589227132
-27.295338368810558
-28.27191577019913
-28.95551995117113
-30.71335927367056
-32.27588311589227
-31.885252155336843
-32.86182955672541
-33.64309147783627
-33.44777599755856
-35.4009308003357
-36.86579690241855
-37.4517433432517
-38.23300526436255
-38.03768978408484
-37.15877012283513
-36.37750820172427
-36.57282368200198
-33.64309147783627
-31.396963454642556
-26.123445487144274
-21.63118944075685
-22.60776684214542
-10.888838025482567
-2.0019836728465705
-4.052796215762569
9.71694514381628
19.971007858396277
32.95948729686427
45.362020294499125
42.62760357061112
57.471580071717405
68.50690470740825
66.06546120393683
76.12420843823911
83.35088120851454
87.45250629434653
92.23773556115053
91.1635004196231
93.31197070267795
94.67917906462196
94.28854810406654
93.40962844281681
92.62836652170596
88.91737239642939
85.88998245212481
86.57358663309682
79.63988708323797
74.46402685587854
75.63591973754482
68.70222018768597
63.526359960326545
56.983291371023114
50.73319600213626
52.10040436408026
43.21355001144427
36.57282368200198
38.03768978408484
30.029755092698558
24.17029068436713
18.799114976729992
13.330281528953995
14.50217441062028
8.545052262149996
4.150453955901427
5.127031357289998
1.0254062714579995
-1.8066681925688564
-4.931715877012284
-8.05676356145571
-7.373159380483711
-10.400549324788281
-12.549019607843137
-12.060730907148852
-14.11154345006485
-15.576409552147707
-17.13893339436942
-18.701457236591136
-18.310826276035705
-21.24055848020142
-23.48668650339513
-22.998397802700847
-25.92813000686656
-28.076600289921416
-29.541466392004274
-31.103990234225986
-30.71335927367056
-33.64309147783627
-35.889219501029984
-35.4009308003357
-38.33066300450141
-40.57679102769512
-41.943999389639124
-43.50652323186084
-43.11589227130541
-45.16670481422141
-46.533913176165406
-46.240939955748836
-48.19409475852598
-49.658960860608836
-50.24490730144198
-51.02616922255284
-50.83085374227512
-51.80743114366369
-52.588693064774546
-52.39337758449683
-52.39337758449683
-52.39337758449683
-50.44022278171969
-48.97535667963683
-49.26832990005341
-43.50652323186084
-39.014267185473415
-39.99084458686198
-30.22507057297627
-22.803082322423133
-10.10757610437171
1.3183794918745708
-1.2207217517357138
13.623254749370565
24.65857938506142
22.119478141451133
37.06111238269627
47.998779278248264
56.983291371023114
66.45609216449226
64.3076218814374
71.43663691157397
76.51483939879454
75.34294651712825
77.4914168001831
78.95628290226597
77.58907454032196
76.90547035934996
77.10078583962768
72.21789883268482
68.50690470740825
69.28816662851911
62.45212481879911
57.27626459143969
50.73319600213626
44.48310063324941
45.85030899519341
37.94003204394598
32.08056763561456
33.3501182574197
24.4632639047837
17.82253757534142
10.693522545204852
3.662165255207141
5.224689097428855
-1.7090104524299992
-6.787212939650568
-5.71297779812314
-11.670099946593423
-16.064698252841993
-18.89677271686885
-22.119478141451133
-21.338216220340275
-24.365606164644845
-26.61173418783856
-26.025787747005417
-28.076600289921416
-29.541466392004274
-31.103990234225986
-32.6665140764477
-32.27588311589227
-34.22903791866941
-35.69390402075227
-35.4009308003357
-36.37750820172427
-37.15877012283513
-38.818951705195694
-40.38147554741741
-39.99084458686198
-43.89715419241627
-46.826886396581976
-46.14328221560998
-53.95590142671855
-59.815365835049974
-65.18654154268711
-70.65537499046312
-69.38582436865796
-73.48744945448996
-76.31952391851682
-75.73357747768368
-75.83123521782254
-75.73357747768368
-73.78042267490653
-72.31555657282368
-72.60852979324025
-67.7256427862974
-64.01464866102083
-64.79591058213168
-59.91302357518883
-56.20202944991226
-55.03013656824598
-53.36995498588541
-53.760585946440834
-53.66292820630198
-53.66292820630198
-53.56527046616312
-51.709773403524835
-50.14724956130312
-44.77607385366598
-40.186160067139696
-41.26039520866713
-29.541466392004274
-20.654612039368278
-22.60776684214542
-8.838025482566568
1.416037232013428
15.381094071869994
28.467231250476843
25.537499046311133
40.479133287556266
51.51445792324712
48.97535667963683
60.01068131532769
68.11627374685283
72.02258335240711
76.8078126192111
75.73357747768368
76.90547035934996
77.58907454032196
77.39375906004425
75.44060425726711
73.97573815518425
68.50690470740825
64.01464866102083
64.9912260624094
58.057526512550545
52.881666285191116
54.053559166857404
46.14328221560998
40.186160067139696
33.838406958113985
27.588311589227132
28.95551995117113
22.021820401312276
16.84596017395285
18.017853055619135
11.963073167009995
7.568474860761425
3.8574807354848555
-0.04882887006942855
0.7324330510414282
-3.1738765545128556
-6.103608758678568
-5.420004577706569
-8.44739452201114
-10.595864805065995
-12.060730907148852
-13.623254749370565
-13.330281528953995
-15.283436331731137
-16.748302433813993
-16.357671473258563
-18.40848401617456
-19.87335011825742
-21.43587396047913
-22.998397802700847
-22.60776684214542
-23.682001983672848
-24.365606164644845
-24.17029068436713
-26.123445487144274
-27.588311589227132
-28.174258030060273
-29.053177691309987
-28.857862211032273
-30.811017013809415
-32.27588311589227
-31.885252155336843
-32.95948729686427
-33.64309147783627
-34.424353398947126
-35.20561532005799
-35.010299839780274
-35.98687724116884
-36.67048142214084
-36.57282368200198
-37.549401083390556
-38.23300526436255
-39.014267185473415
-39.79552910658427
-39.600213626306555
-40.57679102769512
-41.26039520866713
-41.16273746852827
-41.16273746852827
-41.16273746852827
-40.186160067139696
-39.40489814602884
-39.600213626306555
-35.69390402075227
-32.6665140764477
-33.3501182574197
-25.537499046311133
-19.678034637979707
-10.498207064927138
-2.0019836728465705
-3.8574807354848555
9.81460288395514
20.068665598535134
17.82253757534142
31.68993667505913
41.943999389639124
51.123826962691695
60.49897001602197
58.44815747310597
66.45609216449226
72.31555657282368
70.94834821087969
73.19447623407339
74.5616845960174
73.29213397421225
72.60852979324025
72.70618753337911
67.92095826657511
64.11230640115969
64.9912260624094
58.057526512550545
52.881666285191116
46.33859769588769
40.186160067139696
41.5533684290837
33.545433737697415
27.68596932936599
28.95551995117113
21.045242999923705
15.185778591592278
10.79118028534371
6.005951018539712
7.080186160067139
1.1230640115968566
-3.1738765545128556
-2.197299153124285
-6.298924238956283
-9.228656443121995
-12.353704127565424
-15.47875181200885
-14.795147631036851
-16.84596017395285
-18.310826276035705
-17.920195315480278
-19.971007858396277
-21.43587396047913
-22.021820401312276
-22.803082322423133
-22.60776684214542
-23.58434424353399
-24.365606164644845
-24.17029068436713
-25.146868085755703
-25.92813000686656
-26.709391927977418
-27.392996108949415
-27.295338368810558
-28.27191577019913
-28.95551995117113
-28.760204470893417
-29.736781872281988
-30.518043793392845
-32.27588311589227
-33.74074921797513
-33.44777599755856
-34.424353398947126
-35.10795757991913
-35.010299839780274
-36.86579690241855
-38.33066300450141
-39.893186846723125
-41.45571068894484
-41.16273746852827
-44.97138933394369
-47.90112153810941
-47.31517509727627
-53.17463950560769
-57.56923781185626
-61.28023193713283
-65.18654154268711
-64.3076218814374
-64.50293736171511
-64.40527962157626
-64.40527962157626
-58.643472953383686
-54.24887464713512
-42.72526131074998
-32.86182955672541
-35.10795757991913
-16.45532921339742
-2.392614633401999
-5.517662317845426
16.064698252841993
32.27588311589227
46.826886396581976
61.67086289768826
58.350499732967116
72.41321431296254
82.66727702754254
80.32349126420996
89.40566109712367
95.9487296864271
99.26909285114824
103.27306019684139
102.29648279545282
102.49179827573053
102.39414053559167
102.39414053559167
98.48783093003739
95.55809872587167
91.35881589990082
87.45250629434653
88.33142595559625
80.51880674448768
74.5616845960174
75.83123521782254
67.92095826657511
61.96383611810483
54.639505607690545
47.705806057831694
49.26832990005341
41.26039520866713
35.303273060196844
36.67048142214084
28.66254673075456
22.803082322423133
18.40848401617456
13.623254749370565
14.697489890897993
9.71694514381628
6.005951018539712
6.787212939650568
2.783245593957427
-0.04882887006942855
-2.197299153124285
-4.638742656595713
-4.052796215762569
-6.103608758678568
-7.568474860761425
-7.275501640344854
-8.252079041733426
-8.935683222705425
-10.693522545204852
-12.256046387426567
-11.865415426871138
-13.916227969787137
-15.381094071869994
-14.990463111314565
-16.943617914091707
-18.40848401617456
-20.068665598535134
-21.533531700617992
-21.24055848020142
-23.19371328297856
-24.65857938506142
-24.365606164644845
-27.295338368810558
-29.443808651865414
-30.908674753948272
-32.471198596169984
-32.08056763561456
-34.0337224383917
-35.49858854047456
-35.20561532005799
-36.182192721446555
-36.96345464255741
-38.62363622491798
-40.186160067139696
-39.79552910658427
-40.86976424811169
-41.5533684290837
-41.358052948805984
-39.5025558861677
-37.94003204394598
-34.52201113908598
-31.396963454642556
-32.08056763561456
-23.389028763256274
-16.650644693675137
-18.11551079575799
-5.420004577706569
4.052796215762569
18.21316853589685
31.2993057145037
28.369573510337986
44.28778515297169
56.006713969634546
53.36995498588541
67.23735408560312
77.4914168001831
83.83916990920882
90.96818493934539
89.30800335698481
93.50728618295567
96.33936064698253
95.65575646601053
95.85107194628824
95.75341420614939
91.94476234073396
88.91737239642939
89.50331883726253
83.6438544289311
79.15159838254368
80.12817578393225
72.21789883268482
66.3584344243534
59.03410391393912
52.002746623941405
53.56527046616312
43.70183871213855
36.27985046158541
37.94003204394598
28.95551995117113
22.314793621728846
15.185778591592278
8.252079041733426
9.71694514381628
1.8066681925688564
-3.9551384756237127
-2.68558785381857
-8.74036774242771
-13.13496604867628
-15.967040512703136
-19.092088197146563
-18.40848401617456
-22.412451361867703
-25.342183566033416
-24.65857938506142
-26.709391927977418
-28.174258030060273
-29.736781872281988
-31.2993057145037
-30.908674753948272
-32.86182955672541
-34.32669565880827
-34.0337224383917
-35.98687724116884
-37.4517433432517
-39.014267185473415
-40.57679102769512
-40.186160067139696
-42.13931486991684
-43.604180971999696
-43.311207751583126
-45.26436255436027
-46.72922865644312
-48.291752498664835
-49.85427634088655
-49.46364538033112
-51.416800183108265
-52.881666285191116
-52.49103532463569
-54.44419012741283
-55.90905622949569
-57.471580071717405
-59.03410391393912
-58.643472953383686
-59.71770809491112
-60.401312275883114
-60.2059967956054
-62.15915159838254
-63.6240177004654
-64.20996414129854
-64.9912260624094
-64.79591058213168
-64.79591058213168
-64.79591058213168
-64.79591058213168
-60.987258716716255
-57.95986877241169
-51.90508888380255
-46.533913176165406
-47.705806057831694
-37.94003204394598
-30.518043793392845
-32.178225375753414
-22.21713588158999
-14.892805371175708
-6.005951018539712
2.392614633401999
0.537117570763714
12.45136186770428
21.24055848020142
19.287403677424276
31.103990234225986
39.99084458686198
46.533913176165406
53.66292820630198
52.10040436408026
59.13176165407798
64.20996414129854
63.03807125963226
67.13969634546426
69.9717708094911
66.45609216449226
64.3076218814374
64.79591058213168
57.08094911116198
51.123826962691695
52.39337758449683
44.48310063324941
38.525978484779124
31.2993057145037
24.267948424505988
25.830472266727703
17.82253757534142
11.963073167009995
13.232623788815136
5.322346837567712
-0.43945983062485694
-4.834058136873426
-9.619287403677424
-8.545052262149996
-13.525597009231708
-17.236591134508277
-16.357671473258563
-20.361638818951704
-23.291371023117417
-24.560921644922562
-26.22110322728313
-25.830472266727703
-27.783627069504846
-29.2484931715877
-28.95551995117113
-30.908674753948272
-32.37354085603113
-32.95948729686427
-33.74074921797513
-33.545433737697415
-34.61966887922484
-35.303273060196844
-35.10795757991913
-37.06111238269627
-38.525978484779124
-39.11192492561227
-39.893186846723125
-39.79552910658427
-41.651026169222554
-43.11589227130541
-42.822919050888835
-44.77607385366598
-46.240939955748836
-46.826886396581976
-47.60814831769284
-47.412832837415124
-49.365987640192266
-50.83085374227512
-50.53788052185855
-51.51445792324712
-52.19806210421912
-52.97932402532997
-53.760585946440834
-53.56527046616312
-55.51842526894026
-56.983291371023114
-56.59266041046769
-56.690318150606544
-56.59266041046769
-55.713740749217976
-54.932478828107115
-55.03013656824598
-51.22148470283055
-48.19409475852598
-48.877698939497975
-40.08850232700084
-33.44777599755856
-22.510109102006563
-12.45136186770428
-14.697489890897993
0.9277485313191425
12.74433508812085
10.10757610437171
25.92813000686656
37.74471656366827
47.51049057755398
57.764553292133975
55.420767528801406
64.50293736171511
71.04600595101854
69.58113984893568
72.70618753337911
74.85465781643397
73.3897917143511
72.80384527351796
72.90150301365682
68.99519340810254
66.06546120393683
66.65140764476998
60.79194323643854
56.29968719005112
49.658960860608836
43.50652323186084
44.873731593804834
36.86579690241855
31.00633249408713
32.27588311589227
24.365606164644845
18.506141756313422
13.037308308537423
7.568474860761425
8.838025482566568
2.783245593957427
-1.513694972152285
-0.537117570763714
-4.541084916456855
-7.470817120622568
-10.595864805065995
-13.720912489509422
-13.037308308537423
-15.088120851453422
-16.55298695353628
-16.260013733119706
-17.236591134508277
-18.017853055619135
-18.799114976729992
-19.58037689784085
-19.385061417563133
-20.361638818951704
-21.045242999923705
-20.947585259784848
-21.92416266117342
-22.60776684214542
-23.389028763256274
-24.17029068436713
-23.974975204089418
-24.95155260547799
-25.732814526588847
-25.537499046311133
-26.514076447699704
-27.1976806286717
-28.95551995117113
-30.518043793392845
-30.127412832837415
-31.201647974364842
-31.885252155336843
-31.68993667505913
-32.6665140764477
-33.44777599755856
-34.22903791866941
-34.91264209964141
-34.81498435950255
-36.67048142214084
-38.1353475242237
-37.84237430380713
-38.818951705195694
-39.600213626306555
-39.40489814602884
-39.40489814602884
-39.40489814602884
-38.42832074464027
-37.64705882352941
-37.84237430380713
-32.08056763561456
-27.588311589227132
-19.971007858396277
-13.037308308537423
-14.599832150759136
0.04882887006942855
10.986495765621424
8.545052262149996
25.342183566033416
37.84237430380713
51.31914244296941
64.50293736171511
61.5732051575494
76.51483939879454
87.45250629434653
85.0110627908751
95.06981002517739
102.29648279545282
105.42153047989623
109.52315556572823
108.54657816433966
106.78873884184024
105.22621499961852
105.51918822003509
97.80422674906538
91.8471046005951
83.54619668879225
75.83123521782254
77.4914168001831
68.50690470740825
61.96383611810483
63.33104448004883
55.420767528801406
49.46364538033112
46.04562447547112
42.04165712977798
42.822919050888835
38.818951705195694
35.889219501029984
36.57282368200198
34.52201113908598
33.05714503700313
28.564888990615703
24.756237125200276
25.63515678644999
20.654612039368278
16.943617914091707
17.724879835202564
12.74433508812085
9.130998702983138
7.080186160067139
4.638742656595713
5.224689097428855
2.197299153124285
0.04882887006942855
0.537117570763714
-1.416037232013428
-2.8809033340962844
-4.443427176317998
-6.005951018539712
-5.71297779812314
-8.642710002288853
-10.79118028534371
-10.302891584649425
-12.353704127565424
-13.81857022964828
-16.357671473258563
-18.60379949645228
-18.11551079575799
-21.045242999923705
-23.291371023117417
-22.803082322423133
-24.756237125200276
-26.22110322728313
-27.783627069504846
-29.346150911726557
-29.053177691309987
-31.00633249408713
-32.471198596169984
-32.08056763561456
-34.131380178530556
-35.596246280613414
-37.15877012283513
-38.62363622491798
-38.33066300450141
-39.307240405889985
-40.08850232700084
-39.893186846723125
-38.91660944533455
-38.1353475242237
-33.545433737697415
-29.834439612420844
-30.615701533531702
-20.84992751964599
-13.525597009231708
-15.088120851453422
-1.416037232013428
8.838025482566568
22.803082322423133
35.889219501029984
32.95948729686427
50.73319600213626
64.01464866102083
60.987258716716255
76.02655069810025
86.96421759365225
94.97215228503853
103.66369115739681
101.71053635461966
107.86297398336767
112.15991454947738
111.18333714808881
112.25757228961623
112.94117647058823
110.89036392767224
109.32784008545052
109.62081330586709
104.73792629892424
101.02693217364767
101.80819409475852
94.97215228503853
89.69863431754024
83.25322346837568
77.00312809948882
78.37033646143283
68.50690470740825
61.08491645685512
62.745098039215684
53.760585946440834
47.11985961699855
39.014267185473415
31.2993057145037
32.95948729686427
24.95155260547799
19.092088197146563
20.361638818951704
13.427939269092851
8.252079041733426
4.638742656595713
0.6347753109025711
1.513694972152285
-3.36919203479057
-6.982528419928283
-6.201266498817426
-9.228656443121995
-11.377126726176853
-14.795147631036851
-17.82253757534142
-17.13893339436942
-20.16632333867399
-22.314793621728846
-21.826504921034562
-24.756237125200276
-27.002365148393988
-30.322728313115128
-33.3501182574197
-32.6665140764477
-35.69390402075227
-37.84237430380713
-37.35408560311284
-41.26039520866713
-44.19012741283284
-46.43625543602655
-48.78004119935912
-48.19409475852598
-51.22148470283055
-53.36995498588541
-52.881666285191116
-55.81139848935683
-58.057526512550545
-60.401312275883114
-62.745098039215684
-62.15915159838254
-64.20996414129854
-65.57717250324254
-65.28419928282597
-68.21393148699168
-70.36240177004655
-70.85069047074083
-71.63195239185168
-71.43663691157397
-71.43663691157397
-71.43663691157397
-71.43663691157397
-67.53032730601969
-64.60059510185397
-56.59266041046769
-49.75661860074769
-51.22148470283055
-37.549401083390556
-27.1976806286717
-29.541466392004274
-11.767757686732281
1.3183794918745708
15.576409552147707
29.63912413214313
26.514076447699704
42.43228809033341
54.15121690699626
51.51445792324712
62.64744029907683
70.65537499046312
73.58510719462882
77.68673228046082
76.71015487907225
77.88204776073853
78.56565194171054
78.37033646143283
75.53826199740597
73.29213397421225
68.01861600671397
63.42870222018769
64.40527962157626
57.471580071717405
52.295719844357976
53.467612726024264
44.580758373388264
37.94003204394598
29.834439612420844
22.119478141451133
23.779659723811704
11.963073167009995
3.1738765545128556
5.127031357289998
-9.521629663538567
-20.654612039368278
-29.63912413214313
-39.014267185473415
-36.96345464255741
-45.069047074082555
-50.83085374227512
-49.56130312046998
-52.6863508049134
-54.83482108796826
-53.36995498588541
-52.6863508049134
-52.881666285191116
-47.998779278248264
-44.28778515297169
-45.069047074082555
-40.186160067139696
-36.475165941863125
-36.27985046158541
-35.4009308003357
-35.596246280613414
-37.4517433432517
-38.91660944533455
-38.525978484779124
-41.45571068894484
-43.70183871213855
-45.069047074082555
-46.63157091630426
-46.33859769588769
-48.291752498664835
-49.75661860074769
-49.365987640192266
-52.295719844357976
-54.54184786755169
-55.90905622949569
-57.471580071717405
-57.08094911116198
-59.03410391393912
-60.49897001602197
-60.2059967956054
-61.182574196993976
-61.86617837796597
-63.6240177004654
-65.08888380254825
-64.79591058213168
-65.77248798352025
-66.45609216449226
-66.26077668421455
-66.26077668421455
-66.26077668421455
-65.28419928282597
-64.50293736171511
-64.69825284199283
-60.79194323643854
-57.86221103227283
-58.44815747310597
-50.635538261997404
-44.77607385366598
-33.64309147783627
-23.682001983672848
-25.830472266727703
-10.10757610437171
1.6113527122911422
-0.9277485313191425
14.795147631036851
26.514076447699704
37.35408560311284
48.291752498664835
45.85030899519341
55.90905622949569
63.13572899977112
61.5732051575494
65.6748302433814
68.60456244754711
66.94438086518655
66.3584344243534
66.45609216449226
62.54978255893797
59.62005035477226
60.2059967956054
54.346532387273975
49.85427634088655
43.21355001144427
37.06111238269627
38.42832074464027
29.541466392004274
22.90074006256199
24.365606164644845
16.357671473258563
10.498207064927138
4.150453955901427
-2.0019836728465705
-0.6347753109025711
-6.591897459372854
-10.986495765621424
-10.009918364232853
-14.990463111314565
-18.701457236591136
-21.728847180895706
-24.853894865339132
-24.072632944228275
-26.22110322728313
-27.588311589227132
-27.295338368810558
-28.27191577019913
-29.053177691309987
-29.834439612420844
-30.615701533531702
-30.420386053253985
-31.396963454642556
-32.08056763561456
-31.885252155336843
-32.86182955672541
-33.64309147783627
-34.424353398947126
-35.20561532005799
-35.010299839780274
-35.98687724116884
-36.67048142214084
-36.57282368200198
-37.549401083390556
-38.23300526436255
-39.014267185473415
-39.79552910658427
-39.600213626306555
-41.5533684290837
-43.018234531166556
-42.62760357061112
-43.70183871213855
-44.38544289311055
-46.14328221560998
-47.60814831769284
-47.21751735713741
-48.291752498664835
-48.97535667963683
-48.78004119935912
-50.73319600213626
-52.19806210421912
-52.78400854505226
-53.56527046616312
-53.36995498588541
-53.467612726024264
-53.36995498588541
-53.36995498588541
-50.53788052185855
-48.291752498664835
-41.065079728389414
-35.010299839780274
-36.37750820172427
-24.65857938506142
-15.771725032425422
-17.724879835202564
-1.0254062714579995
11.377126726176853
25.732814526588847
39.79552910658427
36.67048142214084
53.56527046616312
65.96780346379796
63.233386739909974
77.19844357976653
87.35484855420768
92.72602426184481
99.17143511100939
97.70656900892652
99.85503929198138
101.22224765392538
100.92927443350881
100.0503547722591
99.17143511100939
95.55809872587167
92.5307087815671
93.11665522240024
86.28061341268025
81.10475318532082
82.17898832684826
74.26871137560083
68.4092469672694
61.08491645685512
54.053559166857404
55.61608300907912
46.63157091630426
39.99084458686198
41.45571068894484
33.545433737697415
27.588311589227132
22.21713588158999
16.748302433813993
17.920195315480278
12.939650568398566
9.228656443121995
10.10757610437171
5.127031357289998
1.416037232013428
-0.537117570763714
-2.8809033340962844
-2.392614633401999
-7.275501640344854
-10.986495765621424
-10.10757610437171
-17.041275654230564
-22.119478141451133
-26.709391927977418
-31.396963454642556
-30.420386053253985
-34.424353398947126
-37.35408560311284
-36.67048142214084
-38.72129396505684
-40.186160067139696
-38.818951705195694
-38.1353475242237
-38.33066300450141
-35.4009308003357
-33.15480277714199
-33.64309147783627
-30.71335927367056
-28.467231250476843
-28.95551995117113
-28.857862211032273
-28.857862211032273
-31.68993667505913
-33.93606469825284
-33.3501182574197
-35.4009308003357
-36.86579690241855
-39.40489814602884
-41.651026169222554
-41.16273746852827
-42.236972610055695
-42.92057679102769
-42.72526131074998
-43.70183871213855
-44.38544289311055
-42.33463035019455
-40.86976424811169
-41.16273746852827
-35.4009308003357
-30.908674753948272
-31.885252155336843
-20.263981078812847
-11.377126726176853
1.9043259327077133
14.209201190203707
11.47478446631571
29.2484931715877
42.43228809033341
39.5025558861677
56.39734493018997
68.79987792782482
79.44457160296025
90.38223849851225
87.94079499504082
97.02296482795452
103.56603341725796
102.1011673151751
106.2027924010071
109.03486686503395
107.37468528267338
106.78873884184024
106.8863965819791
102.98008697642481
99.95269703212024
100.63630121309224
94.67917906462196
90.2845807583734
83.54619668879225
77.39375906004425
78.76096742198825
69.77645532921339
63.13572899977112
64.60059510185397
55.713740749217976
49.073014419775696
40.96742198825055
33.252460517280845
34.91264209964141
26.90470740825513
21.045242999923705
22.314793621728846
15.381094071869994
10.205233844510566
5.615320057984283
0.9277485313191425
1.9043259327077133
-2.0019836728465705
-4.931715877012284
-4.248111696040284
-7.275501640344854
-9.521629663538567
-11.865415426871138
-14.209201190203707
-13.623254749370565
-15.674067292286564
-17.13893339436942
-16.84596017395285
-18.799114976729992
-20.263981078812847
-21.826504921034562
-23.389028763256274
-22.998397802700847
-24.95155260547799
-26.416418707560844
-26.123445487144274
-29.053177691309987
-31.2993057145037
-32.6665140764477
-34.22903791866941
-33.838406958113985
-35.889219501029984
-37.35408560311284
-36.96345464255741
-38.91660944533455
-40.38147554741741
-41.943999389639124
-43.50652323186084
-43.11589227130541
-45.16670481422141
-46.63157091630426
-46.240939955748836
-47.21751735713741
-47.998779278248264
-48.78004119935912
-49.56130312046998
-49.365987640192266
-48.38941023880369
-47.60814831769284
-47.80346379797055
-43.89715419241627
-40.96742198825055
-32.95948729686427
-26.123445487144274
-27.68596932936599
-13.916227969787137
-3.662165255207141
-5.908293278400855
11.670099946593423
24.95155260547799
39.20958266575113
53.17463950560769
50.04959182116426
65.96780346379796
77.68673228046082
75.04997329671168
86.08529793240254
94.19089036392768
98.09719996948196
102.88242923628596
101.80819409475852
102.88242923628596
103.56603341725796
103.37071793698024
100.53864347295338
98.29251544975968
92.04242008087282
86.67124437323568
87.84313725490196
79.93286030365454
74.07339589532312
75.34294651712825
66.45609216449226
59.815365835049974
50.73319600213626
42.236972610055695
44.09246967269398
34.131380178530556
26.807049668116274
28.369573510337986
18.506141756313422
11.08415350576028
5.127031357289998
-1.1230640115968566
0.24414435034714274
-6.6895551995117115
-11.865415426871138
-10.693522545204852
-15.674067292286564
-19.385061417563133
-23.291371023117417
-27.1976806286717
-26.318760967421987
-29.346150911726557
-31.494621194781413
-31.00633249408713
-33.05714503700313
-34.52201113908598
-37.06111238269627
-39.307240405889985
-38.818951705195694
-40.772106507972836
-42.236972610055695
-41.943999389639124
-43.89715419241627
-45.362020294499125
-46.92454413672083
-48.48706797894255
-48.09643701838712
-53.85824368657969
-58.350499732967116
-57.27626459143969
-64.20996414129854
-69.28816662851911
-75.83123521782254
-81.98367284657053
-80.51880674448768
-83.74151216906996
-85.79232471198596
-85.30403601129167
-85.40169375143053
-85.40169375143053
-83.4485389486534
-81.88601510643167
-82.17898832684826
-76.41718165865568
-71.92492561226825
-72.90150301365682
-67.92095826657511
-64.20996414129854
-62.15915159838254
-59.71770809491112
-60.2059967956054
-58.1551842526894
-56.690318150606544
-56.983291371023114
-52.10040436408026
-48.38941023880369
-38.72129396505684
-30.322728313115128
-32.178225375753414
-18.40848401617456
-8.05676356145571
-10.400549324788281
6.298924238956283
18.799114976729992
31.2993057145037
43.70183871213855
40.96742198825055
52.97932402532997
61.768520637827116
59.815365835049974
65.96780346379796
70.26474402990769
71.24132143129626
72.90150301365682
72.5108720531014
68.70222018768597
65.6748302433814
66.3584344243534
60.49897001602197
56.006713969634546
49.365987640192266
43.21355001144427
44.48310063324941
35.596246280613414
28.95551995117113
30.420386053253985
20.55695429922942
13.232623788815136
5.322346837567712
-2.392614633401999
-0.6347753109025711
-8.74036774242771
-14.50217441062028
-13.232623788815136
-20.16632333867399
-25.342183566033416
-29.9320973525597
-34.61966887922484
-33.545433737697415
-36.67048142214084
-38.818951705195694
-38.33066300450141
-41.26039520866713
-43.50652323186084
-44.873731593804834
-46.43625543602655
-46.04562447547112
-47.11985961699855
-47.80346379797055
-47.60814831769284
-48.584725719081405
-49.365987640192266
-50.14724956130312
-50.83085374227512
-50.635538261997404
-52.588693064774546
-54.053559166857404
-53.760585946440834
-54.7371633478294
-55.420767528801406
-57.178606851300835
-58.643472953383686
-58.350499732967116
-60.30365453574426
-61.768520637827116
-61.37788967727169
-62.35446707866026
-63.13572899977112
-63.91699092088197
-64.60059510185397
-64.40527962157626
-65.38185702296482
-66.16311894407569
-65.96780346379796
-66.94438086518655
-67.62798504615854
-68.4092469672694
-69.19050888838025
-68.99519340810254
-69.9717708094911
-70.65537499046312
-70.4600595101854
-69.48348210879682
-68.70222018768597
-66.94438086518655
-65.47951476310368
-65.77248798352025
-59.91302357518883
-55.51842526894026
-56.49500267032883
-45.75265125505455
-37.549401083390556
-26.025787747005417
-15.185778591592278
-17.627222095063708
-0.8300907911802854
11.572442206454566
8.838025482566568
24.65857938506142
36.475165941863125
45.26436255436027
54.7371633478294
52.588693064774546
60.694285496299685
66.55374990463112
65.18654154268711
67.33501182574197
68.79987792782482
65.57717250324254
63.42870222018769
63.819333180743115
58.057526512550545
53.56527046616312
54.54184786755169
47.60814831769284
42.43228809033341
35.010299839780274
28.076600289921416
29.541466392004274
21.533531700617992
15.674067292286564
17.041275654230564
9.033340962844282
3.1738765545128556
-2.0996414129854277
-7.568474860761425
-6.39658197909514
-10.400549324788281
-13.330281528953995
-12.74433508812085
-16.650644693675137
-19.58037689784085
-20.84992751964599
-22.510109102006563
-22.119478141451133
-23.096055542839704
-23.87731746395056
-23.682001983672848
-23.682001983672848
-23.682001983672848
-24.65857938506142
-25.342183566033416
-25.146868085755703
-25.24452582589456
-25.24452582589456
-25.24452582589456
-25.146868085755703
-25.146868085755703
-26.123445487144274
-26.90470740825513
-26.709391927977418
-27.68596932936599
-28.369573510337986
-28.27191577019913
-29.2484931715877
-29.9320973525597
-30.71335927367056
-31.494621194781413
-31.2993057145037
-32.27588311589227
-33.05714503700313
-32.86182955672541
-33.838406958113985
-34.52201113908598
-35.303273060196844
-36.0845349813077
-35.889219501029984
-39.79552910658427
-42.72526131074998
-42.04165712977798
-46.92454413672083
-50.635538261997404
-53.56527046616312
-56.690318150606544
-56.006713969634546
-55.22545204852369
-54.346532387273975
-54.54184786755169
-47.80346379797055
-42.62760357061112
-29.443808651865414
-18.017853055619135
-20.55695429922942
0.04882887006942855
15.47875181200885
11.963073167009995
35.69390402075227
53.27229724574655
69.38582436865796
85.88998245212481
82.17898832684826
97.3159380483711
108.2536049439231
105.7145037003128
114.89433127336538
121.33974212252994
124.66010528725108
128.66407263294423
127.68749523155566
126.9062333104448
126.12497138933395
126.22262912947281
123.29289692530709
121.04676890211337
114.79667353322652
109.42549782558937
110.59739070725567
102.68711375600824
96.72999160753795
97.99954222934309
89.1126878767071
82.47196154726483
75.34294651712825
68.31158922713054
69.77645532921339
60.8896009765774
54.24887464713512
55.713740749217976
47.705806057831694
41.84634164950027
36.475165941863125
30.908674753948272
32.178225375753414
26.123445487144274
21.728847180895706
22.705424582284277
18.701457236591136
15.771725032425422
13.525597009231708
11.08415350576028
11.670099946593423
8.642710002288853
6.494239719233997
6.982528419928283
4.931715877012284
3.466849774929427
0.9277485313191425
-1.3183794918745708
-0.7324330510414282
-3.7598229953459983
-5.908293278400855
-5.420004577706569
-8.44739452201114
-10.595864805065995
-13.916227969787137
-17.041275654230564
-16.357671473258563
-19.385061417563133
-21.533531700617992
-21.045242999923705
-23.096055542839704
-24.4632639047837
-27.002365148393988
-29.346150911726557
-28.760204470893417
-30.811017013809415
-32.27588311589227
-31.9829098954757
-33.93606469825284
-35.4009308003357
-36.96345464255741
-38.525978484779124
-38.1353475242237
-39.11192492561227
-39.893186846723125
-39.69787136644541
-39.69787136644541
-39.69787136644541
-36.768139162279695
-34.61966887922484
-35.010299839780274
-28.27191577019913
-23.096055542839704
-24.17029068436713
-12.45136186770428
-3.662165255207141
10.498207064927138
23.58434424353399
20.654612039368278
38.525978484779124
51.709773403524835
48.78004119935912
65.57717250324254
78.07736324101626
87.7454795147631
97.90188448920424
95.65575646601053
103.76134889753567
109.52315556572823
108.2536049439231
111.28099488822767
113.42946517128252
111.96459906919966
111.28099488822767
111.37865262836652
107.5700007629511
104.54261081864652
105.12855725947966
99.26909285114824
94.77683680476082
87.15953307392996
80.2258335240711
81.78835736629281
72.80384527351796
66.16311894407569
67.62798504615854
57.66689555199512
50.34256504158083
43.40886549172198
36.27985046158541
37.84237430380713
28.857862211032273
22.314793621728846
23.779659723811704
16.748302433813993
11.572442206454566
6.982528419928283
2.2949568932631417
3.36919203479057
-1.6113527122911422
-5.224689097428855
-4.443427176317998
-8.44739452201114
-11.377126726176853
-14.50217441062028
-17.627222095063708
-16.943617914091707
-19.971007858396277
-22.119478141451133
-21.63118944075685
-25.537499046311133
-28.467231250476843
-31.592278934920273
-34.717326619363696
-34.0337224383917
-38.03768978408484
-40.96742198825055
-40.28381780727855
-44.19012741283284
-47.11985961699855
-50.24490730144198
-53.36995498588541
-52.6863508049134
-55.713740749217976
-57.86221103227283
-57.37392233157855
-61.28023193713283
-64.20996414129854
-65.38185702296482
-67.0420386053254
-66.65140764476998
-68.60456244754711
-70.06942854962998
-69.67879758907453
-71.63195239185168
-73.09681849393453
-73.68276493476768
-74.5616845960174
-74.26871137560083
-75.2452887769894
-76.02655069810025
-75.83123521782254
-73.87808041504539
-72.41321431296254
-67.92095826657511
-64.11230640115969
-64.89356832227054
-58.057526512550545
-52.881666285191116
-53.95590142671855
-44.19012741283284
-36.768139162279695
-27.002365148393988
-17.724879835202564
-19.775692378118563
-3.076218814373999
9.42397192339971
6.591897459372854
22.510109102006563
34.22903791866941
45.947966735332265
57.66689555199512
55.03013656824598
66.06546120393683
74.07339589532312
72.31555657282368
78.37033646143283
82.7649347676814
79.83520256351568
78.56565194171054
78.76096742198825
72.02258335240711
66.84672312504769
67.92095826657511
59.03410391393912
52.39337758449683
44.28778515297169
36.57282368200198
38.23300526436255
27.392996108949415
19.287403677424276
21.045242999923705
12.060730907148852
5.517662317845426
-1.513694972152285
-8.545052262149996
-6.982528419928283
-14.013885709925994
-19.18974593728542
-18.017853055619135
-23.974975204089418
-28.369573510337986
-31.201647974364842
-34.424353398947126
-33.64309147783627
-35.69390402075227
-37.15877012283513
-36.86579690241855
-38.818951705195694
-40.28381780727855
-40.86976424811169
-41.651026169222554
-41.45571068894484
-43.40886549172198
-44.873731593804834
-44.48310063324941
-45.55733577477684
-46.240939955748836
-47.998779278248264
-49.46364538033112
-49.17067215991455
-50.14724956130312
-50.83085374227512
-50.73319600213626
-52.588693064774546
-54.053559166857404
-55.61608300907912
-57.178606851300835
-56.7879758907454
-58.74113069352254
-60.2059967956054
-59.91302357518883
-61.86617837796597
-63.33104448004883
-64.89356832227054
-66.3584344243534
-66.06546120393683
-68.01861600671397
-69.48348210879682
-69.0928511482414
-70.06942854962998
-70.85069047074083
-71.63195239185168
-72.31555657282368
-72.12024109254597
-71.24132143129626
-70.4600595101854
-70.55771725032426
-66.65140764476998
-63.72167544060426
-56.690318150606544
-50.635538261997404
-51.90508888380255
-39.20958266575113
-29.63912413214313
-31.787594415197987
-14.990463111314565
-2.490272373540856
11.767757686732281
25.732814526588847
22.705424582284277
37.64705882352941
48.68238345922026
46.14328221560998
57.178606851300835
65.28419928282597
68.21393148699168
72.31555657282368
71.33897917143511
71.53429465171283
71.43663691157397
71.43663691157397
67.62798504615854
64.60059510185397
58.54581521324483
53.27229724574655
54.44419012741283
46.43625543602655
40.57679102769512
41.84634164950027
32.95948729686427
26.318760967421987
19.18974593728542
12.158388647287708
13.720912489509422
5.810635538261997
0.04882887006942855
1.2207217517357138
-5.71297779812314
-10.79118028534371
-14.404516670481422
-18.40848401617456
-17.52956435492485
-21.533531700617992
-24.4632639047837
-23.779659723811704
-25.830472266727703
-27.295338368810558
-27.881284809643702
-28.66254673075456
-28.467231250476843
-29.443808651865414
-30.22507057297627
-30.029755092698558
-30.029755092698558
-30.029755092698558
-30.029755092698558
-30.029755092698558
-30.029755092698558
-30.029755092698558
-30.029755092698558
-30.029755092698558
-30.908674753948272
-31.68993667505913
-31.494621194781413
-31.494621194781413
-31.494621194781413
-32.471198596169984
-33.15480277714199
-33.05714503700313
-34.0337224383917
-34.717326619363696
-35.49858854047456
-36.27985046158541
-36.0845349813077
-38.03768978408484
-39.5025558861677
-39.11192492561227
-40.186160067139696
-40.86976424811169
-41.651026169222554
-42.43228809033341
-42.236972610055695
-43.21355001144427
-43.89715419241627
-43.79949645227741
-43.79949645227741
-43.79949645227741
-41.84634164950027
-40.38147554741741
-40.67444876783398
-35.79156176089113
-32.08056763561456
-32.86182955672541
-22.21713588158999
-14.11154345006485
-0.6347753109025711
11.572442206454566
8.838025482566568
27.588311589227132
41.5533684290837
38.42832074464027
57.27626459143969
71.24132143129626
83.35088120851454
95.9487296864271
93.11665522240024
101.31990539406424
107.08171206225681
105.7145037003128
106.00747692072939
105.90981918059052
102.1011673151751
99.07377737087053
99.65972381170367
93.80025940337224
89.30800335698481
90.2845807583734
84.3274586099031
79.93286030365454
75.14763103685054
70.4600595101854
71.43663691157397
67.33501182574197
64.40527962157626
65.08888380254825
60.108339055466544
56.39734493018997
49.56130312046998
43.40886549172198
44.77607385366598
35.889219501029984
29.2484931715877
30.71335927367056
22.705424582284277
16.84596017395285
12.45136186770428
7.666132600900283
8.74036774242771
3.7598229953459983
0.04882887006942855
0.8300907911802854
-2.0996414129854277
-4.248111696040284
-6.591897459372854
-8.935683222705425
-8.44739452201114
-10.498207064927138
-11.963073167009995
-11.572442206454566
-13.623254749370565
-15.088120851453422
-17.52956435492485
-19.87335011825742
-19.385061417563133
-21.338216220340275
-22.803082322423133
-22.510109102006563
-24.4632639047837
-25.92813000686656
-28.467231250476843
-30.71335927367056
-30.22507057297627
-32.27588311589227
-33.64309147783627
-33.3501182574197
-34.32669565880827
-35.10795757991913
-36.86579690241855
-38.33066300450141
-37.94003204394598
-39.99084458686198
-41.45571068894484
-41.065079728389414
-42.04165712977798
-42.822919050888835
-42.62760357061112
-42.62760357061112
-42.62760357061112
-42.62760357061112
-42.62760357061112
-42.62760357061112
-38.72129396505684
-35.79156176089113
-27.783627069504846
-20.947585259784848
-22.510109102006563
-8.838025482566568
1.416037232013428
-0.7324330510414282
17.82253757534142
31.787594415197987
47.705806057831694
63.233386739909974
59.815365835049974
79.63988708323797
94.28854810406654
90.96818493934539
106.98405432211796
118.70298313878081
125.5390249485008
133.5469596398871
131.69146257724879
135.89074540321965
138.7228198672465
138.0392156862745
139.11345082780193
139.79705500877392
135.7930876630808
132.76569771877624
133.35164415960938
128.4687571526665
124.66010528725108
125.44136720836194
117.62874799725337
111.6716258487831
104.34729533836881
97.3159380483711
98.87846189059282
88.91737239642939
81.5930418860151
83.15556572823682
73.29213397421225
65.8701457236591
57.95986877241169
50.14724956130312
51.80743114366369
43.79949645227741
37.94003204394598
39.20958266575113
32.27588311589227
27.100022888532845
22.510109102006563
17.82253757534142
18.799114976729992
13.81857022964828
10.205233844510566
10.986495765621424
6.982528419928283
4.052796215762569
0.8300907911802854
-2.197299153124285
-1.416037232013428
-5.420004577706569
-8.349736781872283
-7.666132600900283
-10.693522545204852
-12.939650568398566
-16.260013733119706
-19.287403677424276
-18.60379949645228
-21.63118944075685
-23.779659723811704
-23.291371023117417
-26.318760967421987
-28.467231250476843
-30.811017013809415
-33.15480277714199
-32.6665140764477
-35.596246280613414
-37.84237430380713
-37.256427862973986
-39.307240405889985
-40.772106507972836
-43.311207751583126
-45.55733577477684
-45.069047074082555
-47.0222018768597
-48.48706797894255
-48.19409475852598
-50.14724956130312
-51.61211566338598
-50.24490730144198
-49.56130312046998
-49.75661860074769
-45.85030899519341
-42.92057679102769
-43.50652323186084
-34.81498435950255
-28.076600289921416
-15.283436331731137
-3.7598229953459983
-6.298924238956283
11.279468986037996
24.560921644922562
21.63118944075685
40.38147554741741
54.346532387273975
67.43266956588083
80.71412222476539
77.78439002059967
89.89394979781795
98.58548867017625
96.6323338673991
103.66369115739681
108.74189364461738
108.54657816433966
109.52315556572823
109.23018234531166
106.39810788128482
104.1519798580911
104.64026855878538
99.65972381170367
95.9487296864271
89.1126878767071
82.96025024795911
84.3274586099031
71.53429465171283
61.96383611810483
64.01464866102083
48.291752498664835
36.475165941863125
23.87731746395056
11.377126726176853
14.11154345006485
2.0019836728465705
-6.591897459372854
-4.638742656595713
-12.74433508812085
-18.60379949645228
-20.16632333867399
-22.705424582284277
-22.119478141451133
-21.24055848020142
-20.45929655909056
-20.654612039368278
-18.701457236591136
-17.236591134508277
-17.52956435492485
-17.43190661478599
-17.43190661478599
-21.24055848020142
-24.267948424505988
-23.58434424353399
-27.49065384908827
-30.420386053253985
-33.64309147783627
-36.67048142214084
-35.98687724116884
-39.99084458686198
-42.92057679102769
-42.236972610055695
-46.14328221560998
-49.073014419775696
-52.295719844357976
-55.32310978866255
-54.639505607690545
-58.643472953383686
-61.475547417410546
-60.8896009765774
-64.79591058213168
-67.7256427862974
-69.87411306935225
-72.21789883268482
-71.72961013199054
-74.65934233615626
-76.8078126192111
-76.31952391851682
-78.27267872129397
-79.73754482337682
-81.30006866559853
-82.86259250782025
-82.47196154726483
-83.4485389486534
-84.13214312962539
-84.03448538948653
-84.91340505073624
-85.6946669718471
-84.52277409018082
-83.74151216906996
-83.93682764934768
-78.07736324101626
-73.68276493476768
-74.65934233615626
-63.91699092088197
-55.713740749217976
-42.236972610055695
-29.9320973525597
-32.6665140764477
-14.892805371175708
-1.6113527122911422
-4.541084916456855
13.13496604867628
26.416418707560844
37.74471656366827
49.56130312046998
46.92454413672083
56.1043717097734
62.64744029907683
61.08491645685512
63.33104448004883
64.69825284199283
62.45212481879911
61.08491645685512
61.37788967727169
56.49500267032883
52.78400854505226
53.56527046616312
45.75265125505455
39.79552910658427
32.56885633630884
25.537499046311133
27.100022888532845
17.236591134508277
9.81460288395514
11.47478446631571
1.513694972152285
-5.71297779812314
-12.646677347981994
-19.678034637979707
-18.11551079575799
-26.123445487144274
-31.9829098954757
-30.615701533531702
-37.64705882352941
-42.72526131074998
-45.362020294499125
-48.584725719081405
-47.90112153810941
-50.928511482413974
-53.07698176546884
-52.588693064774546
-54.54184786755169
-56.006713969634546
-56.59266041046769
-57.37392233157855
-57.178606851300835
-58.1551842526894
-58.936446173800256
-58.74113069352254
-59.71770809491112
-60.401312275883114
-61.182574196993976
-61.96383611810483
-61.768520637827116
-62.745098039215684
-63.42870222018769
-63.233386739909974
-65.18654154268711
-66.65140764476998
-67.23735408560312
-68.01861600671397
-67.82330052643626
-69.77645532921339
-71.24132143129626
-70.85069047074083
-72.80384527351796
-74.26871137560083
-74.85465781643397
-75.63591973754482
-75.44060425726711
-76.41718165865568
-77.10078583962768
-77.00312809948882
-78.85862516212711
-80.32349126420996
-79.93286030365454
-80.03051804379339
-80.03051804379339
-79.93286030365454
-79.93286030365454
-79.93286030365454
-77.97970550087739
-76.41718165865568
-71.04600595101854
-66.45609216449226
-67.43266956588083
-56.690318150606544
-48.584725719081405
-50.34256504158083
-35.69390402075227
-24.560921644922562
-10.79118028534371
2.2949568932631417
-0.537117570763714
16.260013733119706
28.66254673075456
25.92813000686656
39.893186846723125
50.14724956130312
55.51842526894026
61.86617837796597
60.49897001602197
63.6240177004654
65.77248798352025
65.28419928282597
62.45212481879911
60.2059967956054
54.932478828107115
50.34256504158083
51.416800183108265
43.50652323186084
37.549401083390556
38.91660944533455
30.029755092698558
23.389028763256274
15.283436331731137
7.568474860761425
9.228656443121995
1.2207217517357138
-4.541084916456855
-3.2715342946517127
-10.205233844510566
-15.283436331731137
-19.87335011825742
-24.65857938506142
-23.58434424353399
-29.541466392004274
-33.93606469825284
-32.95948729686427
-39.79552910658427
-44.97138933394369
-49.56130312046998
-54.24887464713512
-53.17463950560769
-55.32310978866255
-56.690318150606544
-56.39734493018997
-55.420767528801406
-54.639505607690545
-51.02616922255284
-47.998779278248264
-48.68238345922026
-42.72526131074998
-38.33066300450141
-39.307240405889985
-35.20561532005799
-32.27588311589227
-31.00633249408713
-29.346150911726557
-29.736781872281988
-30.615701533531702
-31.396963454642556
-31.201647974364842
-32.178225375753414
-32.86182955672541
-33.64309147783627
-34.424353398947126
-34.22903791866941
-35.20561532005799
-35.98687724116884
-35.79156176089113
-36.768139162279695
-37.4517433432517
-37.35408560311284
-37.35408560311284
-37.35408560311284
-38.23300526436255
-39.014267185473415
-38.818951705195694
-38.818951705195694
-38.818951705195694
-37.84237430380713
-37.06111238269627
-37.256427862973986
-34.32669565880827
-32.08056763561456
-32.56885633630884
-25.830472266727703
-20.654612039368278
-10.302891584649425
-1.1230640115968566
-3.1738765545128556
12.45136186770428
24.267948424505988
21.63118944075685
40.38147554741741
54.346532387273975
67.43266956588083
80.71412222476539
77.68673228046082
92.62836652170596
103.66369115739681
101.12458991378652
109.32784008545052
115.0896467536431
116.6521705958648
119.09361409933624
118.5076676585031
116.6521705958648
115.18730449378195
115.48027771419852
110.59739070725567
106.78873884184024
100.92927443350881
95.55809872587167
96.72999160753795
87.84313725490196
81.10475318532082
82.56961928740368
72.70618753337911
65.28419928282597
57.37392233157855
49.56130312046998
51.31914244296941
43.21355001144427
37.35408560311284
38.62363622491798
31.68993667505913
26.514076447699704
21.92416266117342
17.236591134508277
18.310826276035705
14.209201190203707
11.279468986037996
11.963073167009995
9.912260624093996
8.44739452201114
6.787212939650568
5.322346837567712
5.615320057984283
4.541084916456855
3.8574807354848555
4.052796215762569
3.076218814373999
2.2949568932631417
0.537117570763714
-0.8300907911802854
-0.537117570763714
-1.6113527122911422
-2.2949568932631417
-2.0996414129854277
-4.052796215762569
-5.517662317845426
-7.177843900205997
-8.642710002288853
-8.349736781872283
-10.302891584649425
-11.767757686732281
-11.47478446631571
-13.427939269092851
-14.892805371175708
-16.45532921339742
-18.017853055619135
-17.724879835202564
-20.654612039368278
-22.803082322423133
-22.314793621728846
-24.365606164644845
-25.830472266727703
-27.392996108949415
-28.95551995117113
-28.564888990615703
-29.541466392004274
-30.322728313115128
-30.127412832837415
-31.103990234225986
-31.787594415197987
-28.760204470893417
-26.61173418783856
-27.100022888532845
-21.24055848020142
-16.748302433813993
-17.724879835202564
-5.127031357289998
4.345769436179141
17.52956435492485
29.834439612420844
27.100022888532845
46.826886396581976
61.475547417410546
58.25284199282826
76.12420843823911
89.30800335698481
99.65972381170367
110.69504844739453
108.2536049439231
117.3357747768368
123.87884336614023
122.31631952391852
125.5390249485008
127.5898374914168
125.14839398794537
123.78118562600137
124.07415884641794
118.21469443808652
113.72243839169909
114.69901579308767
106.78873884184024
100.83161669336995
92.62836652170596
84.81574731059739
86.57358663309682
76.61249713893339
69.19050888838025
70.85069047074083
59.91302357518883
51.80743114366369
43.11589227130541
34.52201113908598
36.37750820172427
27.392996108949415
20.752269779507134
22.21713588158999
15.283436331731137
10.10757610437171
5.517662317845426
0.8300907911802854
1.8066681925688564
-2.0996414129854277
-5.0293736171511405
-4.345769436179141
-8.349736781872283
-11.279468986037996
-12.549019607843137
-14.11154345006485
-13.81857022964828
-19.58037689784085
-23.974975204089418
-22.998397802700847
-30.908674753948272
-36.768139162279695
-43.11589227130541
-49.26832990005341
-47.90112153810941
-52.97932402532997
-56.59266041046769
-55.713740749217976
-56.88563363088426
-57.56923781185626
-56.39734493018997
-55.713740749217976
-55.81139848935683
-51.02616922255284
-47.31517509727627
-48.09643701838712
-43.11589227130541
-39.40489814602884
-39.307240405889985
-38.33066300450141
-38.525978484779124
-40.38147554741741
-41.84634164950027
-41.5533684290837
-43.50652323186084
-44.97138933394369
-45.55733577477684
-46.33859769588769
-46.14328221560998
-46.240939955748836
-46.14328221560998
-46.14328221560998
-42.33463035019455
-39.307240405889985
-32.37354085603113
-26.22110322728313
-27.588311589227132
-14.892805371175708
-5.322346837567712
-7.470817120622568
10.10757610437171
23.389028763256274
37.64705882352941
51.61211566338598
48.48706797894255
66.3584344243534
79.54222934309911
76.61249713893339
88.72205691615167
97.41359578850995
102.1011673151751
107.76531624322881
106.39810788128482
107.66765850308995
108.2536049439231
108.05828946364538
105.22621499961852
102.98008697642481
96.72999160753795
91.35881589990082
92.5307087815671
84.62043183031967
78.76096742198825
80.03051804379339
70.16708628976883
62.745098039215684
53.85824368657969
45.362020294499125
47.21751735713741
37.256427862973986
29.834439612420844
31.494621194781413
22.510109102006563
15.967040512703136
9.71694514381628
3.466849774929427
4.834058136873426
-1.0254062714579995
-5.420004577706569
-4.443427176317998
-8.545052262149996
-11.47478446631571
-13.623254749370565
-16.064698252841993
-15.47875181200885
-18.506141756313422
-20.654612039368278
-20.16632333867399
-22.21713588158999
-23.58434424353399
-25.24452582589456
-26.709391927977418
-26.416418707560844
-28.369573510337986
-29.834439612420844
-29.541466392004274
-31.494621194781413
-32.95948729686427
-35.49858854047456
-37.74471656366827
-37.256427862973986
-40.186160067139696
-42.33463035019455
-41.84634164950027
-43.89715419241627
-45.362020294499125
-46.92454413672083
-48.48706797894255
-48.09643701838712
-50.04959182116426
-51.51445792324712
-51.123826962691695
-53.17463950560769
-54.54184786755169
-56.1043717097734
-57.66689555199512
-57.27626459143969
-58.350499732967116
-59.03410391393912
-58.8387884336614
-59.815365835049974
-60.59662775616083
-60.401312275883114
-60.401312275883114
-60.401312275883114
-57.471580071717405
-55.22545204852369
-55.713740749217976
-47.90112153810941
-42.04165712977798
-32.86182955672541
-24.365606164644845
-26.22110322728313
-9.521629663538567
2.8809033340962844
0.04882887006942855
17.920195315480278
31.103990234225986
44.38544289311055
57.66689555199512
54.7371633478294
66.74906538490883
75.53826199740597
73.58510719462882
80.61646448462653
85.6946669718471
85.49935149156939
86.47592889295797
86.28061341268025
82.47196154726483
79.44457160296025
80.03051804379339
73.19447623407339
68.01861600671397
59.62005035477226
51.90508888380255
53.56527046616312
42.72526131074998
34.61966887922484
36.37750820172427
25.439841306172273
17.43190661478599
9.619287403677424
1.8066681925688564
3.5645075150682843
-5.322346837567712
-11.963073167009995
-10.498207064927138
-18.40848401617456
-24.267948424505988
-27.783627069504846
-31.68993667505913
-30.811017013809415
-34.81498435950255
-37.74471656366827
-37.06111238269627
-39.11192492561227
-40.57679102769512
-42.13931486991684
-43.70183871213855
-43.311207751583126
-44.38544289311055
-45.069047074082555
-44.873731593804834
-45.85030899519341
-46.63157091630426
-47.412832837415124
-48.09643701838712
-47.90112153810941
-49.85427634088655
-51.31914244296941
-51.02616922255284
-52.97932402532997
-54.44419012741283
-56.006713969634546
-57.471580071717405
-57.178606851300835
-61.96383611810483
-65.6748302433814
-64.79591058213168
-71.63195239185168
-76.8078126192111
-82.27664606698711
-87.7454795147631
-86.47592889295797
-90.57755397878996
-93.40962844281681
-92.72602426184481
-93.80025940337224
-94.48386358434425
-92.43305104142824
-90.96818493934539
-91.26115815976196
-86.37827115281911
-82.66727702754254
-83.4485389486534
-79.44457160296025
-76.41718165865568
-74.17105363546197
-71.8272678721294
-72.31555657282368
-69.28816662851911
-67.13969634546426
-67.53032730601969
-59.815365835049974
-53.85824368657969
-42.72526131074998
-32.764171816586554
-35.010299839780274
-19.18974593728542
-7.470817120622568
-10.009918364232853
7.666132600900283
20.84992751964599
33.15480277714199
45.75265125505455
42.92057679102769
54.932478828107115
63.72167544060426
61.768520637827116
67.92095826657511
72.21789883268482
71.24132143129626
71.43663691157397
71.33897917143511
66.55374990463112
62.84275577935454
63.6240177004654
56.7879758907454
51.61211566338598
43.21355001144427
35.49858854047456
37.15877012283513
28.174258030060273
21.63118944075685
23.096055542839704
13.13496604867628
5.810635538261997
-1.0254062714579995
-8.05676356145571
-6.494239719233997
-13.525597009231708
-18.701457236591136
-17.52956435492485
-22.510109102006563
-26.22110322728313
-29.150835431448844
-32.37354085603113
-31.592278934920273
-33.64309147783627
-35.10795757991913
-34.81498435950255
-35.79156176089113
-36.475165941863125
-37.256427862973986
-38.03768978408484
-37.84237430380713
-38.818951705195694
-39.600213626306555
-39.40489814602884
-39.40489814602884
-39.40489814602884
-40.38147554741741
-41.065079728389414
-40.86976424811169
-40.96742198825055
-40.86976424811169
-40.86976424811169
-41.84634164950027
-42.529945830472265
-43.311207751583126
-44.09246967269398
-43.89715419241627
-43.99481193255512
-43.89715419241627
-43.89715419241627
-44.873731593804834
-45.55733577477684
-45.362020294499125
-45.45967803463798
-45.362020294499125
-46.33859769588769
-47.11985961699855
-46.92454413672083
-46.92454413672083
-46.92454413672083
-46.92454413672083
-46.826886396581976
-46.826886396581976
-47.80346379797055
-48.48706797894255
-48.38941023880369
-47.412832837415124
-46.63157091630426
-43.89715419241627
-41.651026169222554
-42.13931486991684
-36.27985046158541
-31.885252155336843
-32.86182955672541
-21.14290074006256
-12.256046387426567
0.04882887006942855
11.572442206454566
9.033340962844282
25.830472266727703
38.23300526436255
35.49858854047456
52.295719844357976
64.79591058213168
74.36636911573969
84.62043183031967
82.37430380712597
89.50331883726253
94.5815213244831
93.40962844281681
94.5815213244831
95.2651255054551
91.26115815976196
88.23376821545739
88.91737239642939
82.0813305867094
76.8078126192111
77.97970550087739
69.0928511482414
62.45212481879911
55.32310978866255
48.291752498664835
49.85427634088655
40.86976424811169
34.22903791866941
35.69390402075227
26.807049668116274
20.16632333867399
15.869382772564279
11.08415350576028
12.158388647287708
7.177843900205997
3.466849774929427
4.345769436179141
0.34180209048599985
-2.490272373540856
-3.7598229953459983
-5.420004577706569
-5.0293736171511405
-7.080186160067139
-8.545052262149996
-8.154421301594567
-9.228656443121995
-9.912260624093996
-10.693522545204852
-11.47478446631571
-11.279468986037996
-12.256046387426567
-13.037308308537423
-12.84199282825971
-14.795147631036851
-16.260013733119706
-16.84596017395285
-17.724879835202564
-17.52956435492485
-19.48271915770199
-20.947585259784848
-20.55695429922942
-21.63118944075685
-22.314793621728846
-24.072632944228275
-25.63515678644999
-25.24452582589456
-27.1976806286717
-28.66254673075456
-28.369573510337986
-29.346150911726557
-30.127412832837415
-31.787594415197987
-33.3501182574197
-32.95948729686427
-36.86579690241855
-39.79552910658427
-39.11192492561227
-45.947966735332265
-51.123826962691695
-54.7371633478294
-58.643472953383686
-57.764553292133975
-57.95986877241169
-57.86221103227283
-57.86221103227283
-51.123826962691695
-45.947966735332265
-32.764171816586554
-21.338216220340275
-23.87731746395056
-1.416037232013428
15.47875181200885
11.670099946593423
36.37750820172427
54.7371633478294
72.60852979324025
90.57755397878996
86.57358663309682
103.66369115739681
116.06622415503166
113.2341496910048
125.34370946822308
134.03524834058138
137.74624246585793
142.6291294728008
141.45723659113452
142.6291294728008
143.3127336537728
143.11741817349508
140.18768596932938
137.94155794613565
131.69146257724879
126.32028686961166
127.49217975127794
119.58190280003052
113.62478065156023
114.89433127336538
105.0308995193408
97.60891126878766
88.72205691615167
80.2258335240711
82.0813305867094
71.1436636911574
63.03807125963226
64.79591058213168
54.83482108796826
47.412832837415124
41.45571068894484
35.10795757991913
36.475165941863125
29.541466392004274
24.365606164644845
25.537499046311133
20.45929655909056
16.84596017395285
13.81857022964828
10.595864805065995
11.377126726176853
8.349736781872283
6.103608758678568
6.591897459372854
3.662165255207141
1.416037232013428
0.04882887006942855
-1.513694972152285
-1.1230640115968566
-4.052796215762569
-6.298924238956283
-5.810635538261997
-8.74036774242771
-10.986495765621424
-13.330281528953995
-15.674067292286564
-15.185778591592278
-18.11551079575799
-20.361638818951704
-19.87335011825742
-22.803082322423133
-24.95155260547799
-26.416418707560844
-27.97894254978256
-27.588311589227132
-30.518043793392845
-32.764171816586554
-32.27588311589227
-34.22903791866941
-35.69390402075227
-37.256427862973986
-38.818951705195694
-38.525978484779124
-40.479133287556266
-41.943999389639124
-41.5533684290837
-42.62760357061112
-43.311207751583126
-41.26039520866713
-39.79552910658427
-40.08850232700084
-34.22903791866941
-29.834439612420844
-30.811017013809415
-20.068665598535134
-11.963073167009995
1.416037232013428
13.720912489509422
10.986495765621424
29.736781872281988
43.70183871213855
40.57679102769512
60.401312275883114
75.04997329671168
87.06187533379111
99.56206607156481
96.82764934767681
107.86297398336767
115.87090867475395
114.01541161211567
119.19127183947509
122.8046082246128
121.92568856336308
122.02334630350195
122.02334630350195
118.11703669794767
115.0896467536431
115.77325093461509
108.93720912489509
103.66369115739681
96.24170290684367
89.21034561684596
90.77286945906768
79.93286030365454
71.72961013199054
73.58510719462882
62.64744029907683
54.54184786755169
44.873731593804834
35.49858854047456
37.549401083390556
26.61173418783856
18.506141756313422
20.361638818951704
11.279468986037996
4.736400396734569
-1.3183794918745708
-7.666132600900283
-6.201266498817426
-13.232623788815136
-18.310826276035705
-17.236591134508277
-22.21713588158999
-25.830472266727703
-28.857862211032273
-31.9829098954757
-31.2993057145037
-35.303273060196844
-38.23300526436255
-37.549401083390556
-41.45571068894484
-44.38544289311055
-46.63157091630426
-48.97535667963683
-48.38941023880369
-51.416800183108265
-53.56527046616312
-53.07698176546884
-56.006713969634546
-58.1551842526894
-60.59662775616083
-62.84275577935454
-62.35446707866026
-65.28419928282597
-67.43266956588083
-66.94438086518655
-68.99519340810254
-70.36240177004655
-71.92492561226825
-73.48744945448996
-73.09681849393453
-75.04997329671168
-76.51483939879454
-76.22186617837797
-78.17502098115511
-79.63988708323797
-80.2258335240711
-81.00709544518196
-80.81177996490425
-82.66727702754254
-84.13214312962539
-83.83916990920882
-83.83916990920882
-83.83916990920882
-81.88601510643167
-80.32349126420996
-80.61646448462653
-76.71015487907225
-73.78042267490653
-74.36636911573969
-67.53032730601969
-62.35446707866026
-52.002746623941405
-42.822919050888835
-44.873731593804834
-27.1976806286717
-13.916227969787137
-16.84596017395285
2.783245593957427
17.43190661478599
32.37354085603113
47.11985961699855
43.89715419241627
58.8387884336614
69.87411306935225
67.43266956588083
76.51483939879454
83.05790798809797
82.47196154726483
83.54619668879225
83.25322346837568
78.56565194171054
74.75700007629511
75.63591973754482
67.7256427862974
61.86617837796597
53.56527046616312
45.85030899519341
47.51049057755398
37.549401083390556
30.22507057297627
31.885252155336843
21.92416266117342
14.599832150759136
6.6895551995117115
-1.0254062714579995
0.6347753109025711
-7.275501640344854
-13.13496604867628
-11.865415426871138
-18.799114976729992
-23.974975204089418
-27.588311589227132
-31.494621194781413
-30.615701533531702
-33.74074921797513
-35.889219501029984
-35.4009308003357
-37.35408560311284
-38.818951705195694
-40.38147554741741
-41.943999389639124
-41.5533684290837
-42.62760357061112
-43.311207751583126
-43.11589227130541
-45.069047074082555
-46.533913176165406
-47.11985961699855
-47.998779278248264
-47.705806057831694
-49.658960860608836
-51.123826962691695
-50.83085374227512
-51.80743114366369
-52.49103532463569
-54.24887464713512
-55.713740749217976
-55.420767528801406
-56.39734493018997
-57.08094911116198
-56.983291371023114
-57.95986877241169
-58.643472953383686
-59.42473487449455
-60.2059967956054
-60.01068131532769
-61.86617837796597
-63.33104448004883
-63.03807125963226
-64.01464866102083
-64.69825284199283
-65.47951476310368
-66.26077668421455
-66.06546120393683
-66.06546120393683
-66.06546120393683
-66.06546120393683
-65.08888380254825
-64.3076218814374
-59.71770809491112
-55.90905622949569
-56.690318150606544
-46.04562447547112
-37.84237430380713
-39.69787136644541
-25.92813000686656
-15.576409552147707
-0.6347753109025711
13.13496604867628
10.009918364232853
28.857862211032273
42.822919050888835
39.69787136644541
54.639505607690545
65.6748302433814
72.70618753337911
80.71412222476539
78.85862516212711
83.05790798809797
85.88998245212481
85.20637827115281
83.4485389486534
81.88601510643167
77.4914168001831
73.68276493476768
74.46402685587854
66.65140764476998
60.694285496299685
61.96383611810483
52.10040436408026
44.77607385366598
36.86579690241855
29.053177691309987
30.71335927367056
21.728847180895706
15.185778591592278
16.650644693675137
7.666132600900283
1.1230640115968566
-3.076218814373999
-7.861448081177996
-6.787212939650568
-11.767757686732281
-15.47875181200885
-14.599832150759136
-17.724879835202564
-19.87335011825742
-21.24055848020142
-22.90074006256199
-22.510109102006563
-23.58434424353399
-24.267948424505988
-24.072632944228275
-25.049210345616846
-25.830472266727703
-25.63515678644999
-25.63515678644999
-25.63515678644999
-26.61173418783856
-27.295338368810558
-27.100022888532845
-28.174258030060273
-28.857862211032273
-29.63912413214313
-30.420386053253985
-30.22507057297627
-32.178225375753414
-33.64309147783627
-33.252460517280845
-34.32669565880827
-35.010299839780274
-36.768139162279695
-38.23300526436255
-37.94003204394598
-38.91660944533455
-39.69787136644541
-39.5025558861677
-41.45571068894484
-42.92057679102769
-43.50652323186084
-44.28778515297169
-44.09246967269398
-46.04562447547112
-47.51049057755398
-47.11985961699855
-47.21751735713741
-47.21751735713741
-47.11985961699855
-47.11985961699855
-47.11985961699855
-44.28778515297169
-42.04165712977798
-42.529945830472265
-35.69390402075227
-30.518043793392845
-19.18974593728542
-9.326314183260854
-11.47478446631571
5.127031357289998
17.627222095063708
14.795147631036851
34.52201113908598
49.26832990005341
65.08888380254825
80.61646448462653
77.10078583962768
90.2845807583734
99.75738155184253
97.60891126878766
102.7847714961471
106.39810788128482
104.64026855878538
103.95666437781338
104.05432211795224
101.12458991378652
98.87846189059282
99.3667505912871
96.33936064698253
94.09323262378882
91.74944686045625
89.40566109712367
89.89394979781795
88.72205691615167
88.03845273517967
88.13611047531853
84.22980086976425
81.30006866559853
75.2452887769894
69.87411306935225
71.04600595101854
61.182574196993976
53.760585946440834
55.420767528801406
45.45967803463798
38.1353475242237
33.05714503700313
27.49065384908827
28.760204470893417
21.728847180895706
16.650644693675137
17.724879835202564
13.720912489509422
10.79118028534371
7.568474860761425
4.443427176317998
5.127031357289998
2.0996414129854277
0.04882887006942855
0.43945983062485694
-1.513694972152285
-2.9785610742351416
-5.517662317845426
-7.763790341039139
-7.275501640344854
-10.205233844510566
-12.45136186770428
-11.963073167009995
-13.916227969787137
-15.381094071869994
-17.920195315480278
-20.263981078812847
-19.775692378118563
-22.705424582284277
-24.853894865339132
-24.365606164644845
-27.392996108949415
-29.541466392004274
-31.00633249408713
-32.56885633630884
-32.178225375753414
-34.131380178530556
-35.596246280613414
-35.303273060196844
-37.256427862973986
-38.72129396505684
-40.28381780727855
-41.84634164950027
-41.45571068894484
-42.529945830472265
-43.21355001144427
-43.018234531166556
-43.018234531166556
-43.018234531166556
-39.20958266575113
-36.182192721446555
-36.86579690241855
-29.053177691309987
-23.19371328297856
-24.4632639047837
-9.81460288395514
1.1230640115968566
16.84596017395285
31.494621194781413
28.174258030060273
48.97535667963683
64.40527962157626
60.8896009765774
80.81177996490425
95.46044098573282
107.37468528267338
119.97253376058595
117.14045929655909
126.32028686961166
132.8633554589151
131.30083161669336
135.40245670252537
138.33218890669107
137.64858472571908
137.74624246585793
137.64858472571908
132.8633554589151
129.05470359349965
129.8359655146105
122.90226596475166
117.72640573739223
110.3044174868391
103.27306019684139
104.8355840390631
94.87449454489968
87.45250629434653
89.1126878767071
78.17502098115511
70.06942854962998
61.37788967727169
52.78400854505226
54.639505607690545
44.67841611352712
37.35408560311284
38.91660944533455
30.029755092698558
23.389028763256274
17.236591134508277
10.888838025482567
12.353704127565424
6.298924238956283
1.9043259327077133
2.8809033340962844
-1.1230640115968566
-3.9551384756237127
-7.177843900205997
-10.302891584649425
-9.619287403677424
-13.525597009231708
-16.45532921339742
-15.869382772564279
-18.799114976729992
-21.045242999923705
-24.365606164644845
-27.392996108949415
-26.709391927977418
-29.736781872281988
-31.885252155336843
-31.396963454642556
-35.303273060196844
-38.23300526436255
-41.45571068894484
-44.48310063324941
-43.79949645227741
-47.80346379797055
-50.73319600213626
-50.04959182116426
-53.07698176546884
-55.22545204852369
-58.54581521324483
-61.5732051575494
-60.8896009765774
-64.79591058213168
-67.7256427862974
-67.0420386053254
-70.06942854962998
-72.21789883268482
-74.5616845960174
-76.90547035934996
-76.31952391851682
-79.3469138628214
-81.49538414587624
-81.00709544518196
-80.12817578393225
-79.3469138628214
-75.63591973754482
-72.60852979324025
-73.29213397421225
-63.526359960326545
-56.1043717097734
-57.764553292133975
-42.04165712977798
-30.322728313115128
-13.81857022964828
1.513694972152285
-1.8066681925688564
18.89677271686885
34.32669565880827
30.908674753948272
49.75661860074769
63.72167544060426
72.02258335240711
81.5930418860151
79.44457160296025
86.57358663309682
91.65178912031739
90.47989623865111
90.77286945906768
90.67521171892882
87.7454795147631
85.49935149156939
85.98764019226367
76.31952391851682
68.89753566796368
70.4600595101854
56.7879758907454
46.43625543602655
34.32669565880827
22.705424582284277
25.342183566033416
12.256046387426567
2.783245593957427
4.931715877012284
-5.0293736171511405
-12.353704127565424
-17.43190661478599
-22.998397802700847
-21.728847180895706
-24.853894865339132
-27.002365148393988
-26.514076447699704
-27.588311589227132
-28.27191577019913
-31.00633249408713
-33.252460517280845
-32.764171816586554
-36.67048142214084
-39.600213626306555
-38.91660944533455
-41.943999389639124
-44.09246967269398
-46.43625543602655
-48.78004119935912
-48.19409475852598
-50.24490730144198
-51.709773403524835
-51.31914244296941
-53.27229724574655
-54.7371633478294
-56.29968719005112
-57.86221103227283
-57.471580071717405
-60.401312275883114
-62.64744029907683
-62.061493858243686
-64.11230640115969
-65.57717250324254
-67.13969634546426
-68.60456244754711
-68.31158922713054
-70.26474402990769
-71.72961013199054
-71.33897917143511
-73.29213397421225
-74.75700007629511
-76.31952391851682
-77.88204776073853
-77.4914168001831
-79.44457160296025
-80.9094377050431
-80.51880674448768
-81.49538414587624
-82.17898832684826
-82.96025024795911
-83.74151216906996
-83.54619668879225
-82.56961928740368
-81.78835736629281
-81.98367284657053
-80.03051804379339
-78.46799420157168
-71.1436636911574
-65.08888380254825
-66.45609216449226
-54.639505607690545
-45.85030899519341
-47.705806057831694
-31.103990234225986
-18.506141756313422
-2.197299153124285
13.13496604867628
9.71694514381628
28.564888990615703
42.529945830472265
39.40489814602884
54.44419012741283
65.38185702296482
71.53429465171283
78.76096742198825
77.10078583962768
80.32349126420996
82.37430380712597
81.88601510643167
80.12817578393225
78.56565194171054
74.07339589532312
70.26474402990769
71.1436636911574
63.233386739909974
57.37392233157855
58.643472953383686
49.75661860074769
43.11589227130541
35.010299839780274
27.1976806286717
28.95551995117113
18.994430457007706
11.670099946593423
13.330281528953995
5.322346837567712
-0.43945983062485694
-5.810635538261997
-11.377126726176853
-10.10757610437171
-15.185778591592278
-18.799114976729992
-18.017853055619135
-22.021820401312276
-24.95155260547799
-26.123445487144274
-27.783627069504846
-27.392996108949415
-28.467231250476843
-29.150835431448844
-28.95551995117113
-29.9320973525597
-30.71335927367056
-31.494621194781413
-32.27588311589227
-32.08056763561456
-33.05714503700313
-33.74074921797513
-33.545433737697415
-34.52201113908598
-35.303273060196844
-36.0845349813077
-36.86579690241855
-36.67048142214084
-38.62363622491798
-40.08850232700084
-39.69787136644541
-41.651026169222554
-43.11589227130541
-43.79949645227741
-44.580758373388264
-44.38544289311055
-46.33859769588769
-47.80346379797055
-47.412832837415124
-48.38941023880369
-49.17067215991455
-49.951934081025406
-50.635538261997404
-50.53788052185855
-52.39337758449683
-53.85824368657969
-53.56527046616312
-54.54184786755169
-55.22545204852369
-55.03013656824598
-55.127794308384836
-55.03013656824598
-53.17463950560769
-51.61211566338598
-52.002746623941405
-46.14328221560998
-41.651026169222554
-32.178225375753414
-23.779659723811704
-25.63515678644999
-9.912260624093996
1.8066681925688564
-0.7324330510414282
18.799114976729992
33.545433737697415
48.38941023880369
63.233386739909974
59.91302357518883
75.9288929579614
87.55016403448539
85.0110627908751
96.04638742656596
104.05432211795224
106.00747692072939
109.32784008545052
108.54657816433966
107.76531624322881
106.98405432211796
107.08171206225681
102.19882505531396
98.48783093003739
91.65178912031739
85.49935149156939
86.8665598535134
77.00312809948882
69.58113984893568
71.1436636911574
60.30365453574426
52.19806210421912
43.50652323186084
34.91264209964141
36.768139162279695
24.853894865339132
16.064698252841993
18.017853055619135
3.2715342946517127
-7.666132600900283
-16.650644693675137
-26.123445487144274
-24.072632944228275
-30.22507057297627
-34.52201113908598
-33.545433737697415
-35.69390402075227
-37.15877012283513
-34.91264209964141
-33.44777599755856
-33.74074921797513
-28.857862211032273
-25.24452582589456
-26.025787747005417
-21.045242999923705
-17.334248874647134
-17.236591134508277
-16.260013733119706
-16.45532921339742
-18.310826276035705
-19.87335011825742
-19.48271915770199
-22.412451361867703
-24.65857938506142
-26.025787747005417
-27.588311589227132
-27.295338368810558
-30.22507057297627
-32.37354085603113
-31.885252155336843
-34.91264209964141
-37.06111238269627
-38.42832074464027
-40.08850232700084
-39.69787136644541
-41.651026169222554
-43.11589227130541
-42.822919050888835
-44.77607385366598
-46.240939955748836
-46.826886396581976
-47.60814831769284
-47.412832837415124
-48.38941023880369
-49.073014419775696
-48.97535667963683
-48.97535667963683
-48.97535667963683
-46.04562447547112
-43.79949645227741
-44.28778515297169
-36.57282368200198
-30.615701533531702
-31.885252155336843
-18.21316853589685
-7.861448081177996
7.861448081177996
22.412451361867703
19.18974593728542
40.96742198825055
57.08094911116198
53.467612726024264
74.26871137560083
89.69863431754024
102.49179827573053
115.87090867475395
112.84351873044938
124.8554207675288
133.64461738002595
131.59380483710993
136.76966506446936
140.3830014496071
139.50408178835735
139.69939726863507
139.6017395284962
135.69542992294194
132.66803997863738
133.35164415960938
126.41794460975052
121.24208438239108
113.72243839169909
106.78873884184024
108.2536049439231
98.39017318989853
90.96818493934539
92.62836652170596
81.69069962615396
73.58510719462882
64.89356832227054
56.29968719005112
58.1551842526894
48.19409475852598
40.86976424811169
42.43228809033341
33.44777599755856
26.90470740825513
21.63118944075685
16.064698252841993
17.334248874647134
12.256046387426567
8.642710002288853
9.42397192339971
4.443427176317998
0.8300907911802854
-1.1230640115968566
-3.5645075150682843
-2.9785610742351416
-6.005951018539712
-8.154421301594567
-7.666132600900283
-10.693522545204852
-12.84199282825971
-15.283436331731137
-17.627222095063708
-17.041275654230564
-19.092088197146563
-20.55695429922942
-20.16632333867399
-23.096055542839704
-25.342183566033416
-27.68596932936599
-30.029755092698558
-29.541466392004274
-32.471198596169984
-34.61966887922484
-34.131380178530556
-37.15877012283513
-39.307240405889985
-40.67444876783398
-42.33463035019455
-41.943999389639124
-43.89715419241627
-45.362020294499125
-45.069047074082555
-47.0222018768597
-48.48706797894255
-50.04959182116426
-51.51445792324712
-51.22148470283055
-52.19806210421912
-52.881666285191116
-52.78400854505226
-51.80743114366369
-51.02616922255284
-47.412832837415124
-44.38544289311055
-44.97138933394369
-36.27985046158541
-29.541466392004274
-31.00633249408713
-16.357671473258563
-5.322346837567712
9.326314183260854
23.19371328297856
20.16632333867399
39.893186846723125
54.54184786755169
51.31914244296941
67.23735408560312
78.95628290226597
87.84313725490196
97.3159380483711
95.16746776531625
100.34332799267567
103.95666437781338
103.07774471656367
103.27306019684139
103.17540245670253
99.26909285114824
96.33936064698253
96.92530708781567
89.1126878767071
83.15556572823682
84.52277409018082
75.53826199740597
68.89753566796368
59.91302357518883
51.31914244296941
53.27229724574655
41.358052948805984
32.471198596169984
34.424353398947126
23.48668650339513
15.47875181200885
6.6895551995117115
-1.7090104524299992
0.04882887006942855
-9.81460288395514
-17.13893339436942
