ppg
95.55809872587167
96.14404516670481
87.45250629434653
80.71412222476539
71.72961013199054
63.13572899977112
64.9912260624094
53.17463950560769
44.28778515297169
46.240939955748836
33.3501182574197
23.779659723811704
14.50217441062028
5.127031357289998
7.177843900205997
-2.783245593957427
-10.009918364232853
-8.44739452201114
-16.45532921339742
-22.314793621728846
-25.732814526588847
-29.736781872281988
-28.857862211032273
-32.86182955672541
-35.79156176089113
-35.10795757991913
-37.15877012283513
-38.62363622491798
-40.186160067139696
-41.74868390936141
-41.358052948805984
-41.45571068894484
-41.358052948805984
-41.358052948805984
-42.33463035019455
-43.018234531166556
-43.79949645227741
-44.580758373388264
-44.38544289311055
-45.362020294499125
-46.04562447547112
-45.947966735332265
-47.80346379797055
-49.26832990005341
-50.83085374227512
-52.39337758449683
-52.10040436408026
-54.053559166857404
-55.51842526894026
-55.127794308384836
-57.08094911116198
-58.54581521324483
-60.108339055466544
-61.67086289768826
-61.28023193713283
-64.20996414129854
-66.3584344243534
-65.8701457236591
-66.94438086518655
-67.62798504615854
-69.38582436865796
-70.85069047074083
-70.4600595101854
-71.53429465171283
-72.21789883268482
-72.02258335240711
-72.02258335240711
-72.02258335240711
-72.90150301365682
-73.68276493476768
-73.48744945448996
-73.48744945448996
-73.48744945448996
-73.3897917143511
-73.3897917143511
-73.3897917143511
-72.41321431296254
-71.63195239185168
-71.8272678721294
-71.72961013199054
-71.72961013199054
-71.72961013199054
-69.77645532921339
-68.21393148699168
-65.6748302433814
-63.33104448004883
-63.819333180743115
-56.1043717097734
-50.14724956130312
-51.416800183108265
-38.72129396505684
-29.150835431448844
-13.13496604867628
1.416037232013428
-1.8066681925688564
20.84992751964599
37.74471656366827
33.93606469825284
57.66689555199512
75.34294651712825
90.47989623865111
106.10513466086825
102.58945601586939
115.77325093461509
125.24605172808423
123.09758144502938
129.25001907377737
133.5469596398871
131.59380483710993
131.0078583962768
131.10551613641564
124.36713206683451
119.09361409933624
120.26550698100252
110.40207522697796
102.98008697642481
93.11665522240024
83.83916990920882
85.88998245212481
72.99916075379568
63.42870222018769
65.47951476310368
53.56527046616312
44.67841611352712
36.182192721446555
27.588311589227132
29.443808651865414
20.45929655909056
13.81857022964828
15.283436331731137
8.252079041733426
3.1738765545128556
-0.34180209048599985
-4.345769436179141
-3.466849774929427
-6.494239719233997
-8.74036774242771
-8.252079041733426
-9.326314183260854
-10.009918364232853
-10.79118028534371
-11.572442206454566
-11.377126726176853
-12.353704127565424
-13.13496604867628
-12.939650568398566
-16.748302433813993
-19.775692378118563
-26.709391927977418
-32.764171816586554
-31.396963454642556
-38.42832074464027
-43.50652323186084
-42.33463035019455
-46.43625543602655
-49.365987640192266
-50.53788052185855
-52.19806210421912
-51.80743114366369
-49.951934081025406
-48.48706797894255
-48.78004119935912
-43.89715419241627
-40.186160067139696
-36.27985046158541
-32.37354085603113
-33.15480277714199
-31.9829098954757
-31.2993057145037
-31.494621194781413
-34.32669565880827
-36.475165941863125
-36.96345464255741
-37.74471656366827
-37.549401083390556
-39.5025558861677
-40.96742198825055
-40.67444876783398
-41.651026169222554
-42.33463035019455
-43.11589227130541
-43.89715419241627
-43.70183871213855
-44.67841611352712
-45.45967803463798
-45.26436255436027
-43.40886549172198
-41.84634164950027
-37.4517433432517
-33.64309147783627
-34.424353398947126
-23.779659723811704
-15.576409552147707
-17.43190661478599
0.04882887006942855
13.330281528953995
32.37354085603113
50.04959182116426
46.14328221560998
69.87411306935225
87.55016403448539
83.54619668879225
107.27702754253453
124.95307850766766
138.13687342641336
152.29724574654765
149.17219806210423
159.32860303654536
166.5552758068208
164.89509422446022
168.9967193102922
171.82879377431905
169.28969253070878
167.82482642862593
168.1177996490425
161.2817578393225
156.00823987182423
157.1801327534905
147.31670099946592
139.89471274891278
130.03128099488822
120.7537956816968
122.70695048447395
108.83955138475623
98.58548867017625
100.83161669336995
87.84313725490196
78.27267872129397
67.92095826657511
57.86221103227283
60.01068131532769
48.09643701838712
39.307240405889985
41.16273746852827
32.178225375753414
25.537499046311133
20.361638818951704
14.795147631036851
16.064698252841993
10.009918364232853
5.615320057984283
6.591897459372854
2.5879301136797133
-0.24414435034714274
-2.490272373540856
-4.834058136873426
-4.345769436179141
-7.275501640344854
-9.521629663538567
-9.033340962844282
-11.963073167009995
-14.209201190203707
-16.55298695353628
-18.89677271686885
-18.310826276035705
-21.338216220340275
-23.48668650339513
-22.998397802700847
-26.025787747005417
-28.174258030060273
-31.494621194781413
-34.61966887922484
-33.838406958113985
-37.84237430380713
-40.772106507972836
-40.08850232700084
-44.09246967269398
-46.92454413672083
-49.17067215991455
-51.51445792324712
-51.02616922255284
-53.95590142671855
-56.1043717097734
-55.61608300907912
-58.54581521324483
-60.79194323643854
-62.15915159838254
-63.72167544060426
-63.33104448004883
-64.40527962157626
-65.08888380254825
-64.89356832227054
-66.84672312504769
-68.31158922713054
-68.89753566796368
-69.67879758907453
-69.48348210879682
-70.4600595101854
-71.1436636911574
-70.94834821087969
-70.94834821087969
-70.94834821087969
-67.13969634546426
-64.11230640115969
-64.79591058213168
-56.006713969634546
-49.365987640192266
-50.83085374227512
-36.182192721446555
-25.049210345616846
-6.494239719233997
10.302891584649425
6.494239719233997
31.201647974364842
49.56130312046998
45.45967803463798
71.24132143129626
90.2845807583734
106.10513466086825
122.6092927443351
118.89829861905852
133.93759060044252
144.8752574959945
142.43381399252308
149.56282902265966
154.6410315098802
154.34805828946364
155.3246356908522
155.03166247043563
150.24643320363165
146.53543907835507
147.31670099946592
139.4064240482185
133.44930189974824
124.26947432669566
115.77325093461509
117.62874799725337
104.73792629892424
95.16746776531625
97.21828030823224
83.35088120851454
72.99916075379568
62.9404135194934
52.6863508049134
54.932478828107115
42.04165712977798
32.471198596169984
34.61966887922484
23.58434424353399
15.47875181200885
8.74036774242771
1.6113527122911422
3.1738765545128556
-2.783245593957427
-7.177843900205997
-6.201266498817426
-14.013885709925994
-19.87335011825742
-27.1976806286717
-34.131380178530556
-32.56885633630884
-40.57679102769512
-46.43625543602655
-45.069047074082555
-50.14724956130312
-53.760585946440834
-54.83482108796826
-56.49500267032883
-56.1043717097734
-56.20202944991226
-56.20202944991226
-56.1043717097734
-54.24887464713512
-52.6863508049134
-52.10040436408026
-51.22148470283055
-51.416800183108265
-52.295719844357976
-53.07698176546884
-52.881666285191116
-57.66689555199512
-61.37788967727169
-65.28419928282597
-69.0928511482414
-68.21393148699168
-72.21789883268482
-75.14763103685054
-74.46402685587854
-78.37033646143283
-81.30006866559853
-83.54619668879225
-85.88998245212481
-85.30403601129167
-87.25719081406882
-88.72205691615167
-88.4290836957351
-91.26115815976196
-93.50728618295567
-93.8979171435111
-94.77683680476082
-94.48386358434425
-95.46044098573282
-96.14404516670481
-95.9487296864271
-95.9487296864271
-95.9487296864271
-92.14007782101167
-89.1126878767071
-89.69863431754024
-81.00709544518196
-74.26871137560083
-75.73357747768368
-60.108339055466544
-48.291752498664835
-30.908674753948272
-14.697489890897993
-18.21316853589685
6.298924238956283
24.65857938506142
20.55695429922942
45.362020294499125
63.72167544060426
78.76096742198825
94.48386358434425
90.87052719920653
103.07774471656367
111.86694132906081
109.8161287861448
114.99198901350424
118.60532539864195
116.84748607614252
116.16388189517052
116.26153963530938
109.52315556572823
104.34729533836881
105.42153047989623
95.65575646601053
88.23376821545739
78.37033646143283
69.0928511482414
71.1436636911574
57.27626459143969
46.92454413672083
49.17067215991455
36.27985046158541
26.709391927977418
16.45532921339742
6.298924238956283
8.545052262149996
-2.392614633401999
-10.400549324788281
-8.642710002288853
-16.650644693675137
-22.510109102006563
-27.881284809643702
-33.3501182574197
-32.08056763561456
-36.182192721446555
-39.11192492561227
-38.42832074464027
-41.45571068894484
-43.604180971999696
-45.069047074082555
-46.63157091630426
-46.240939955748836
-47.21751735713741
-47.998779278248264
-47.80346379797055
-49.75661860074769
-51.22148470283055
-51.80743114366369
-52.588693064774546
-52.39337758449683
-54.346532387273975
-55.81139848935683
-55.420767528801406
-57.37392233157855
-58.8387884336614
-60.401312275883114
-61.96383611810483
-61.5732051575494
-64.50293736171511
-66.74906538490883
-66.16311894407569
-68.21393148699168
-69.67879758907453
-71.24132143129626
-72.70618753337911
-72.41321431296254
-73.3897917143511
-74.07339589532312
-73.87808041504539
-75.83123521782254
-77.29610131990539
-78.85862516212711
-80.32349126420996
-80.03051804379339
-81.00709544518196
-81.69069962615396
-81.49538414587624
-82.47196154726483
-83.15556572823682
-82.96025024795911
-82.96025024795911
-82.96025024795911
-81.98367284657053
-81.20241092545967
-81.39772640573739
-77.4914168001831
-74.46402685587854
-66.55374990463112
-59.71770809491112
-61.182574196993976
-46.533913176165406
-35.4009308003357
-37.84237430380713
-17.236591134508277
-1.8066681925688564
16.650644693675137
34.424353398947126
30.518043793392845
53.36995498588541
70.16708628976883
66.45609216449226
85.40169375143053
99.26909285114824
106.69108110170139
115.48027771419852
113.42946517128252
117.72640573739223
120.55848020141909
119.87487602044709
117.04280155642023
114.79667353322652
108.54657816433966
103.27306019684139
104.34729533836881
93.60494392309452
85.40169375143053
87.25719081406882
75.34294651712825
66.45609216449226
56.006713969634546
45.947966735332265
48.09643701838712
36.182192721446555
27.392996108949415
29.346150911726557
18.310826276035705
10.302891584649425
4.443427176317998
-1.8066681925688564
-0.43945983062485694
-7.373159380483711
-12.549019607843137
-11.377126726176853
-18.310826276035705
-23.48668650339513
-30.908674753948272
-37.84237430380713
-36.27985046158541
-44.19012741283284
-50.04959182116426
-48.78004119935912
-50.928511482413974
-52.39337758449683
-52.002746623941405
-52.10040436408026
-52.002746623941405
-48.19409475852598
-45.26436255436027
-45.85030899519341
-39.99084458686198
-35.596246280613414
-30.811017013809415
-26.123445487144274
-27.100022888532845
-25.92813000686656
-25.24452582589456
-25.439841306172273
-27.295338368810558
-28.760204470893417
-30.322728313115128
-31.885252155336843
-31.494621194781413
-34.424353398947126
-36.67048142214084
-36.0845349813077
-38.1353475242237
-39.600213626306555
-41.16273746852827
-42.72526131074998
-42.33463035019455
-44.28778515297169
-45.75265125505455
-45.45967803463798
-46.43625543602655
-47.11985961699855
-47.90112153810941
-48.68238345922026
-48.48706797894255
-49.46364538033112
-50.24490730144198
-50.04959182116426
-51.02616922255284
-51.709773403524835
-51.51445792324712
-51.51445792324712
-51.51445792324712
-51.51445792324712
-51.51445792324712
-51.51445792324712
-50.53788052185855
-49.75661860074769
-46.04562447547112
-43.11589227130541
-43.70183871213855
-34.0337224383917
-26.61173418783856
-28.27191577019913
-12.646677347981994
-0.8300907911802854
17.52956435492485
34.424353398947126
30.615701533531702
55.32310978866255
73.68276493476768
69.58113984893568
95.2651255054551
114.4060425726711
130.12893873502708
146.63309681849393
142.92210269321737
157.08247501335165
167.23887998779279
164.89509422446022
171.0475318532082
175.34447241931792
174.36789501792936
174.4655527580682
174.36789501792936
168.60608834973678
164.11383230334937
165.09040970473794
156.20355535210194
149.4651712825208
139.50408178835735
130.22659647516593
132.1797512779431
119.28892957961395
109.71847104600594
111.76928358892195
97.90188448920424
87.64782177462425
77.4914168001831
67.23735408560312
69.48348210879682
57.56923781185626
48.68238345922026
50.635538261997404
40.67444876783398
33.3501182574197
27.295338368810558
20.947585259784848
22.412451361867703
16.357671473258563
11.963073167009995
12.939650568398566
8.838025482566568
5.908293278400855
2.783245593957427
-0.24414435034714274
0.34180209048599985
-1.6113527122911422
-3.076218814373999
-2.783245593957427
-5.71297779812314
-7.861448081177996
-10.302891584649425
-12.646677347981994
-12.060730907148852
-15.088120851453422
-17.236591134508277
-16.748302433813993
-19.678034637979707
-21.92416266117342
-25.24452582589456
-28.27191577019913
-27.588311589227132
-31.592278934920273
-34.52201113908598
-33.838406958113985
-36.86579690241855
-39.014267185473415
-41.358052948805984
-43.70183871213855
-43.21355001144427
-47.11985961699855
-50.04959182116426
-49.365987640192266
-51.416800183108265
-52.881666285191116
-55.32310978866255
-57.66689555199512
-57.08094911116198
-59.13176165407798
-60.59662775616083
-60.2059967956054
-61.182574196993976
-61.96383611810483
-62.745098039215684
-63.42870222018769
-63.233386739909974
-62.35446707866026
-61.5732051575494
-61.67086289768826
-55.90905622949569
-51.51445792324712
-40.96742198825055
-31.885252155336843
-33.838406958113985
-15.283436331731137
-1.2207217517357138
-4.345769436179141
20.068665598535134
38.525978484779124
60.2059967956054
81.10475318532082
76.41718165865568
101.31990539406424
119.58190280003052
115.48027771419852
135.50011444266423
150.05111772335394
158.25436789501794
167.82482642862593
165.67635614557108
171.7311360341802
176.02807660028992
175.05149919890135
175.24681467917907
175.1491569390402
170.26626993209734
166.5552758068208
167.33653772793164
158.44968337529565
151.80895704585336
153.17616540779736
142.33615625238423
134.2305638208591
123.4882124055848
113.42946517128252
115.67559319447624
101.71053635461966
91.45647364003968
93.70260166323338
76.90547035934996
64.40527962157626
49.951934081025406
35.98687724116884
39.014267185473415
22.119478141451133
9.619287403677424
12.45136186770428
1.3183794918745708
-6.6895551995117115
-11.572442206454566
-17.13893339436942
-15.869382772564279
-18.11551079575799
-19.48271915770199
-19.18974593728542
-18.310826276035705
-17.52956435492485
-15.771725032425422
-14.209201190203707
-14.599832150759136
-15.47875181200885
-16.16235599298085
-16.064698252841993
-19.87335011825742
-22.803082322423133
-26.025787747005417
-29.053177691309987
-28.369573510337986
-32.37354085603113
-35.303273060196844
-34.61966887922484
-38.525978484779124
-41.45571068894484
-44.67841611352712
-47.705806057831694
-47.0222018768597
-51.02616922255284
-53.95590142671855
-53.27229724574655
-57.178606851300835
-60.108339055466544
-63.233386739909974
-66.3584344243534
-65.6748302433814
-68.60456244754711
-70.85069047074083
-70.26474402990769
-73.29213397421225
-75.44060425726711
-76.8078126192111
-78.37033646143283
-77.97970550087739
-77.10078583962768
-76.31952391851682
-76.51483939879454
-72.60852979324025
-69.58113984893568
-59.71770809491112
-51.416800183108265
-53.27229724574655
-35.596246280613414
-22.314793621728846
-25.342183566033416
-3.662165255207141
12.45136186770428
32.764171816586554
52.10040436408026
47.80346379797055
71.63195239185168
89.21034561684596
85.30403601129167
103.27306019684139
116.45685511558709
123.97650110627909
132.76569771877624
130.71488517586022
134.9141680018311
137.74624246585793
137.1602960250248
135.3047989623865
133.7422751201648
127.39452201113909
122.02334630350195
123.19523918516823
114.30838483253224
107.66765850308995
109.03486686503395
97.21828030823224
88.33142595559625
76.90547035934996
66.06546120393683
68.50690470740825
54.54184786755169
44.28778515297169
46.533913176165406
32.6665140764477
22.314793621728846
13.13496604867628
3.7598229953459983
5.810635538261997
-6.005951018539712
-14.795147631036851
-12.84199282825971
-21.826504921034562
-28.467231250476843
-33.64309147783627
-39.11192492561227
-37.94003204394598
-43.89715419241627
-48.291752498664835
-47.31517509727627
-51.31914244296941
-54.24887464713512
-57.37392233157855
-60.49897001602197
-59.71770809491112
-62.745098039215684
-64.89356832227054
-64.40527962157626
-68.31158922713054
-71.24132143129626
-73.48744945448996
-75.83123521782254
-75.2452887769894
-78.17502098115511
-80.42114900434882
-79.83520256351568
-83.74151216906996
-86.67124437323568
-88.91737239642939
-91.26115815976196
-90.67521171892882
-93.60494392309452
-95.75341420614939
-95.2651255054551
-98.19485770962082
-100.34332799267567
-101.80819409475852
-103.37071793698024
-102.98008697642481
-105.81216144045166
-108.05828946364538
-107.47234302281224
-109.52315556572823
-110.89036392767224
-112.45288776989395
-114.01541161211567
-113.62478065156023
-114.60135805294881
-115.28496223392081
-115.0896467536431
-115.0896467536431
-115.0896467536431
-112.15991454947738
-109.91378652628366
-110.3044174868391
-103.56603341725796
-98.29251544975968
-99.46440833142596
-85.79232471198596
-75.44060425726711
-57.66689555199512
-41.5533684290837
-45.069047074082555
-20.361638818951704
-2.0019836728465705
-6.103608758678568
19.58037689784085
38.62363622491798
55.420767528801406
72.60852979324025
68.79987792782482
84.91340505073624
96.53467612726024
93.8979171435111
102.1011673151751
107.86297398336767
107.47234302281224
108.54657816433966
108.2536049439231
103.4683756771191
99.75738155184253
100.53864347295338
91.74944686045625
85.0110627908751
76.02655069810025
67.53032730601969
69.38582436865796
56.49500267032883
46.92454413672083
49.073014419775696
36.182192721446555
26.61173418783856
16.260013733119706
6.103608758678568
8.349736781872283
-2.490272373540856
-10.595864805065995
-8.74036774242771
-21.533531700617992
-31.103990234225986
-41.45571068894484
-51.51445792324712
-49.26832990005341
-60.2059967956054
-68.31158922713054
-66.45609216449226
-71.63195239185168
-75.2452887769894
-75.34294651712825
-76.22186617837797
-76.02655069810025
-72.21789883268482
-69.19050888838025
-69.87411306935225
-64.01464866102083
-59.522392614633404
-54.7371633478294
-50.04959182116426
-51.123826962691695
-48.97535667963683
-47.51049057755398
-47.80346379797055
-49.658960860608836
-51.123826962691695
-53.56527046616312
-55.90905622949569
-55.32310978866255
-58.350499732967116
-60.49897001602197
-60.01068131532769
-61.96383611810483
-63.42870222018769
-65.96780346379796
-68.21393148699168
-67.7256427862974
-69.67879758907453
-71.1436636911574
-70.85069047074083
-72.80384527351796
-74.17105363546197
-75.73357747768368
-77.29610131990539
-76.90547035934996
-77.97970550087739
-78.6633096818494
-78.46799420157168
-79.44457160296025
-80.12817578393225
-80.9094377050431
-81.69069962615396
-81.49538414587624
-80.51880674448768
-79.73754482337682
-79.83520256351568
-76.02655069810025
-72.99916075379568
-64.11230640115969
-56.49500267032883
-58.1551842526894
-42.529945830472265
-30.71335927367056
-33.3501182574197
-12.646677347981994
2.68558785381857
22.21713588158999
40.772106507972836
36.67048142214084
59.522392614633404
76.31952391851682
72.60852979324025
91.55413138017853
105.42153047989623
112.74586099031052
121.63271534294651
119.58190280003052
123.78118562600137
126.61326009002823
125.92965590905622
123.19523918516823
120.94911116197451
113.72243839169909
107.66765850308995
108.93720912489509
98.09719996948196
89.99160753795681
91.74944686045625
78.95628290226597
69.38582436865796
59.03410391393912
48.877698939497975
51.123826962691695
38.23300526436255
28.66254673075456
30.71335927367056
19.775692378118563
11.670099946593423
3.9551384756237127
-3.7598229953459983
-2.0019836728465705
-9.130998702983138
-14.209201190203707
-13.037308308537423
-17.13893339436942
-20.068665598535134
-22.314793621728846
-24.65857938506142
-24.072632944228275
-26.123445487144274
-27.588311589227132
-27.1976806286717
-27.295338368810558
-27.295338368810558
-28.174258030060273
-28.95551995117113
-28.760204470893417
-29.736781872281988
-30.518043793392845
-30.322728313115128
-31.2993057145037
-31.9829098954757
-32.764171816586554
-33.545433737697415
-33.3501182574197
-35.303273060196844
-36.768139162279695
-36.475165941863125
-38.42832074464027
-39.893186846723125
-42.43228809033341
-44.67841611352712
-44.19012741283284
-46.14328221560998
-47.60814831769284
-47.31517509727627
-49.26832990005341
-50.73319600213626
-51.31914244296941
-52.10040436408026
-51.90508888380255
-53.85824368657969
-55.32310978866255
-54.932478828107115
-56.88563363088426
-58.350499732967116
-59.03410391393912
-59.815365835049974
-59.62005035477226
-60.59662775616083
-61.28023193713283
-61.08491645685512
-60.108339055466544
-59.42473487449455
-56.690318150606544
-54.346532387273975
-54.83482108796826
-46.14328221560998
-39.5025558861677
-40.96742198825055
-26.318760967421987
-15.185778591592278
3.2715342946517127
20.16632333867399
16.357671473258563
42.04165712977798
61.08491645685512
56.88563363088426
83.54619668879225
103.37071793698024
119.97253376058595
137.25795376516365
133.35164415960938
149.36751354238194
161.08644235904478
158.44968337529565
166.5552758068208
172.31708247501336
171.9264515144579
172.9030289158465
172.61005569542993
168.8014038300145
165.77401388570993
166.35996032654307
157.57076371404594
150.93003738460365
141.84786755168994
133.25398641947052
135.1094834821088
122.21866178377967
112.64820325017166
114.69901579308767
100.83161669336995
90.57755397878996
79.44457160296025
68.50690470740825
70.94834821087969
57.95986877241169
48.38941023880369
50.53788052185855
37.64705882352941
28.076600289921416
15.869382772564279
4.248111696040284
6.787212939650568
-5.127031357289998
-13.916227969787137
-11.963073167009995
-19.092088197146563
-24.17029068436713
-25.92813000686656
-28.369573510337986
-27.783627069504846
-27.002365148393988
-26.22110322728313
-26.318760967421987
-23.48668650339513
-21.24055848020142
-18.799114976729992
-16.45532921339742
-17.041275654230564
-16.84596017395285
-16.943617914091707
-16.943617914091707
-21.63118944075685
-25.342183566033416
-28.369573510337986
-31.494621194781413
-30.811017013809415
-34.717326619363696
-37.64705882352941
-37.06111238269627
-40.96742198825055
-43.89715419241627
-46.04562447547112
-48.48706797894255
-47.90112153810941
-51.80743114366369
-54.7371633478294
-54.053559166857404
-56.1043717097734
-57.56923781185626
-60.108339055466544
-62.35446707866026
-61.86617837796597
-64.79591058213168
-66.94438086518655
-66.45609216449226
-67.53032730601969
-68.21393148699168
-68.99519340810254
-69.77645532921339
-69.58113984893568
-66.65140764476998
-64.40527962157626
-64.89356832227054
-58.057526512550545
-52.881666285191116
-39.69787136644541
-28.27191577019913
-30.811017013809415
-9.228656443121995
6.884870679789426
3.2715342946517127
28.857862211032273
47.998779278248264
69.48348210879682
90.47989623865111
85.79232471198596
109.71847104600594
127.29686427100023
123.29289692530709
140.3830014496071
152.78553444724193
159.52391851682307
167.53185320820936
165.67635614557108
169.77798123140306
172.61005569542993
171.9264515144579
169.19203479056992
166.84824902723736
160.5981536583505
155.22697795071335
156.39887083237966
147.51201647974364
140.87129015030138
142.23849851224537
129.44533455405508
119.87487602044709
109.52315556572823
99.3667505912871
101.6128786144808
86.76890211337454
75.63591973754482
78.07736324101626
64.20996414129854
53.85824368657969
43.70183871213855
33.545433737697415
35.79156176089113
24.756237125200276
16.748302433813993
18.506141756313422
9.521629663538567
2.8809033340962844
-2.197299153124285
-7.763790341039139
-6.494239719233997
-12.45136186770428
-16.84596017395285
-15.869382772564279
-19.971007858396277
-22.90074006256199
-26.025787747005417
-29.150835431448844
-28.467231250476843
-32.37354085603113
-35.303273060196844
-34.61966887922484
-38.62363622491798
-41.5533684290837
-44.67841611352712
-47.80346379797055
-47.11985961699855
-51.02616922255284
-53.95590142671855
-53.27229724574655
-57.27626459143969
-60.108339055466544
-63.33104448004883
-66.3584344243534
-65.6748302433814
-69.58113984893568
-72.5108720531014
-71.8272678721294
-74.85465781643397
-77.00312809948882
-79.3469138628214
-81.69069962615396
-81.10475318532082
-84.13214312962539
-86.28061341268025
-85.79232471198596
-87.7454795147631
-89.21034561684596
-90.77286945906768
-92.23773556115053
-91.8471046005951
-92.92133974212253
-93.60494392309452
-93.40962844281681
-92.43305104142824
-91.65178912031739
-87.06187533379111
-83.25322346837568
-84.03448538948653
-73.3897917143511
-65.18654154268711
-66.94438086518655
-48.38941023880369
-34.424353398947126
-15.576409552147707
2.0996414129854277
-1.7090104524299992
23.87731746395056
43.018234531166556
38.72129396505684
62.54978255893797
80.12817578393225
94.38620584420539
109.32784008545052
106.00747692072939
117.14045929655909
125.14839398794537
123.29289692530709
127.49217975127794
130.3242542153048
127.78515297169452
126.32028686961166
126.61326009002823
119.87487602044709
114.60135805294881
115.67559319447624
105.90981918059052
98.48783093003739
88.62439917601282
79.3469138628214
81.39772640573739
67.53032730601969
57.178606851300835
59.42473487449455
44.580758373388264
33.545433737697415
22.705424582284277
11.670099946593423
14.11154345006485
2.0996414129854277
-6.591897459372854
-4.638742656595713
-18.40848401617456
-28.66254673075456
-40.67444876783398
-52.39337758449683
-49.75661860074769
-62.745098039215684
-72.21789883268482
-70.06942854962998
-76.22186617837797
-80.61646448462653
-81.49538414587624
-83.15556572823682
-82.7649347676814
-80.9094377050431
-79.44457160296025
-79.73754482337682
-74.85465781643397
-71.1436636911574
-67.13969634546426
-63.233386739909974
-64.11230640115969
-63.819333180743115
-63.91699092088197
-63.819333180743115
-66.65140764476998
-68.89753566796368
-72.21789883268482
-75.2452887769894
-74.5616845960174
-78.46799420157168
-81.39772640573739
-80.71412222476539
-83.74151216906996
-85.88998245212481
-88.23376821545739
-90.57755397878996
-89.99160753795681
-92.92133974212253
-95.16746776531625
-94.5815213244831
-96.6323338673991
-97.99954222934309
-100.53864347295338
-102.7847714961471
-102.29648279545282
-103.27306019684139
-103.95666437781338
-103.76134889753567
-105.7145037003128
-107.17936980239567
-106.78873884184024
-106.78873884184024
-106.78873884184024
-105.81216144045166
-105.0308995193408
-105.12855725947966
-100.24567025253681
-96.53467612726024
-86.8665598535134
-78.46799420157168
-80.32349126420996
-63.6240177004654
-51.123826962691695
-53.85824368657969
-31.2993057145037
-14.306858930342566
6.6895551995117115
26.807049668116274
22.314793621728846
46.240939955748836
63.819333180743115
59.91302357518883
78.85862516212711
92.72602426184481
101.12458991378652
110.69504844739453
108.44892042420081
111.76928358892195
113.9177538719768
113.33180743114366
111.57396810864424
110.01144426642253
102.68711375600824
96.6323338673991
97.90188448920424
88.03845273517967
80.61646448462653
82.27664606698711
69.48348210879682
59.815365835049974
49.56130312046998
39.40489814602884
41.651026169222554
28.760204470893417
19.18974593728542
21.338216220340275
9.326314183260854
0.537117570763714
-6.982528419928283
-14.795147631036851
-13.037308308537423
-20.068665598535134
-25.24452582589456
-24.072632944228275
-29.053177691309987
-32.764171816586554
-34.81498435950255
-37.15877012283513
-36.67048142214084
-38.62363622491798
-40.08850232700084
-39.79552910658427
-40.772106507972836
-41.45571068894484
-42.236972610055695
-43.018234531166556
-42.822919050888835
-43.79949645227741
-44.580758373388264
-44.38544289311055
-45.362020294499125
-46.04562447547112
-47.80346379797055
-49.26832990005341
-48.97535667963683
-50.928511482413974
-52.39337758449683
-52.002746623941405
-53.95590142671855
-55.420767528801406
-56.983291371023114
-58.54581521324483
-58.1551842526894
-60.2059967956054
-61.5732051575494
-61.28023193713283
-64.20996414129854
-66.3584344243534
-66.84672312504769
-67.62798504615854
-67.43266956588083
-69.38582436865796
-70.85069047074083
-70.4600595101854
-71.43663691157397
-72.21789883268482
-73.87808041504539
-75.44060425726711
-75.04997329671168
-76.02655069810025
-76.71015487907225
-76.51483939879454
-76.61249713893339
-76.51483939879454
-73.68276493476768
-71.43663691157397
-71.8272678721294
-65.96780346379796
-61.5732051575494
-62.54978255893797
-49.85427634088655
-40.28381780727855
-24.267948424505988
-9.619287403677424
-12.84199282825971
10.693522545204852
28.27191577019913
24.365606164644845
49.073014419775696
67.43266956588083
84.3274586099031
101.6128786144808
97.70656900892652
113.82009613183794
125.44136720836194
122.8046082246128
131.0078583962768
136.76966506446936
136.37903410391394
137.3556115053025
137.1602960250248
132.3750667582208
128.56641489280537
129.34767681391622
120.55848020141909
113.9177538719768
103.85900663767453
94.5815213244831
96.6323338673991
83.74151216906996
74.17105363546197
76.22186617837797
62.35446707866026
52.10040436408026
42.92057679102769
33.44777599755856
35.49858854047456
24.560921644922562
16.45532921339742
18.21316853589685
7.373159380483711
-0.6347753109025711
-10.302891584649425
-19.58037689784085
-17.52956435492485
-26.61173418783856
-33.15480277714199
-31.68993667505913
-35.79156176089113
-38.72129396505684
-38.03768978408484
-38.1353475242237
-38.1353475242237
-35.20561532005799
-33.05714503700313
-33.44777599755856
-28.564888990615703
-24.95155260547799
-20.947585259784848
-17.041275654230564
-17.920195315480278
-16.748302433813993
-16.064698252841993
-16.16235599298085
-18.994430457007706
-21.24055848020142
-23.58434424353399
-25.92813000686656
-25.439841306172273
-28.369573510337986
-30.615701533531702
-30.029755092698558
-33.05714503700313
-35.20561532005799
-37.549401083390556
-39.893186846723125
-39.40489814602884
-42.33463035019455
-44.580758373388264
-43.99481193255512
-47.0222018768597
-49.17067215991455
-50.635538261997404
-52.19806210421912
-51.80743114366369
-53.760585946440834
-55.22545204852369
-54.83482108796826
-56.88563363088426
-58.25284199282826
-57.95986877241169
-57.95986877241169
-57.95986877241169
-56.983291371023114
-56.20202944991226
-56.39734493018997
-50.635538261997404
-46.14328221560998
-35.69390402075227
-26.514076447699704
-28.564888990615703
-9.912260624093996
3.9551384756237127
0.8300907911802854
24.4632639047837
42.13931486991684
63.91699092088197
84.91340505073624
80.2258335240711
105.0308995193408
123.39055466544595
119.28892957961395
138.23453116655222
152.10193026626993
159.52391851682307
168.3131151293202
166.26230258640422
171.43816281376363
174.9538414587625
174.17257953765164
172.31708247501336
170.75455863279163
164.40680552376594
159.0356298161288
160.20752269779507
150.3440909437705
142.92210269321737
144.48462653543908
132.66803997863738
123.78118562600137
112.35523002975509
101.41756313420309
103.85900663767453
89.89394979781795
79.54222934309911
81.88601510643167
67.92095826657511
57.66689555199512
47.51049057755398
37.35408560311284
39.600213626306555
29.541466392004274
22.21713588158999
23.779659723811704
14.795147631036851
8.252079041733426
3.9551384756237127
-0.7324330510414282
0.24414435034714274
-3.7598229953459983
-6.591897459372854
-6.005951018539712
-9.912260624093996
-12.84199282825971
-15.088120851453422
-17.43190661478599
-16.943617914091707
-19.87335011825742
-22.119478141451133
-21.63118944075685
-24.560921644922562
-26.709391927977418
-29.150835431448844
-31.494621194781413
-30.908674753948272
-34.81498435950255
-37.74471656366827
-37.15877012283513
-41.065079728389414
-43.99481193255512
-46.14328221560998
-48.584725719081405
-47.998779278248264
-51.90508888380255
-54.83482108796826
-54.15121690699626
-57.178606851300835
-59.32707713435569
-61.67086289768826
-64.01464866102083
-63.526359960326545
-65.47951476310368
-66.94438086518655
-66.55374990463112
-69.48348210879682
-71.72961013199054
-73.09681849393453
-74.65934233615626
-74.26871137560083
-76.22186617837797
-77.68673228046082
-77.29610131990539
-77.39375906004425
-77.29610131990539
-74.46402685587854
-72.21789883268482
-72.70618753337911
-63.91699092088197
-57.27626459143969
-58.74113069352254
-43.11589227130541
-31.2993057145037
-11.963073167009995
5.615320057984283
1.7090104524299992
28.369573510337986
48.19409475852598
43.79949645227741
69.58113984893568
88.62439917601282
105.32387273975738
122.6092927443351
118.70298313878081
133.83993286030366
144.77759975585565
142.23849851224537
150.44174868390937
156.20355535210194
154.83634699015792
155.1293202105745
154.93400473029678
151.12535286488136
148.0979629205768
148.68390936140995
139.89471274891278
133.25398641947052
124.1718165865568
115.67559319447624
117.53109025711451
104.64026855878538
95.06981002517739
97.12062256809338
82.27664606698711
71.24132143129626
60.30365453574426
49.365987640192266
51.709773403524835
37.84237430380713
27.588311589227132
29.834439612420844
14.990463111314565
3.9551384756237127
-9.71694514381628
-22.90074006256199
-19.971007858396277
-33.05714503700313
-42.529945830472265
-40.38147554741741
-48.48706797894255
-54.346532387273975
-54.932478828107115
-56.690318150606544
-56.20202944991226
-54.44419012741283
-52.881666285191116
-53.17463950560769
-48.291752498664835
-44.580758373388264
-40.67444876783398
-36.768139162279695
-37.64705882352941
-37.35408560311284
-37.4517433432517
-37.4517433432517
-40.28381780727855
-42.43228809033341
-45.75265125505455
-48.877698939497975
-48.19409475852598
-52.10040436408026
-55.03013656824598
-54.346532387273975
-58.350499732967116
-61.182574196993976
-64.40527962157626
-67.43266956588083
-66.74906538490883
-70.75303273060197
-73.58510719462882
-72.90150301365682
-75.9288929579614
-78.07736324101626
-81.39772640573739
-84.42511635004196
-83.74151216906996
-86.76890211337454
-88.91737239642939
-88.4290836957351
-91.35881589990082
-93.50728618295567
-94.87449454489968
-96.43701838712138
-96.04638742656596
-97.12062256809338
-97.80422674906538
-97.60891126878766
-94.77683680476082
-92.43305104142824
-84.3274586099031
-77.4914168001831
-79.05394064240483
-63.33104448004883
-51.51445792324712
-54.15121690699626
-32.56885633630884
-16.357671473258563
4.834058136873426
24.853894865339132
20.45929655909056
46.240939955748836
65.28419928282597
61.08491645685512
81.10475318532082
95.65575646601053
105.7145037003128
116.84748607614252
114.30838483253224
120.55848020141909
124.8554207675288
123.87884336614023
123.09758144502938
122.31631952391852
116.6521705958648
112.15991454947738
113.13649195086595
103.27306019684139
95.85107194628824
97.51125352864881
85.6946669718471
76.8078126192111
65.38185702296482
54.54184786755169
56.88563363088426
43.018234531166556
32.6665140764477
35.010299839780274
21.045242999923705
10.79118028534371
1.6113527122911422
-7.666132600900283
-5.615320057984283
-15.576409552147707
-22.90074006256199
-21.338216220340275
-29.2484931715877
-35.10795757991913
-39.600213626306555
-44.28778515297169
-43.21355001144427
-46.33859769588769
-48.48706797894255
-47.998779278248264
-49.951934081025406
-51.416800183108265
-52.97932402532997
-54.54184786755169
-54.15121690699626
-56.1043717097734
-57.56923781185626
-57.27626459143969
-59.22941939421683
-60.694285496299685
-62.2568093385214
-63.72167544060426
-63.42870222018769
-66.26077668421455
-68.50690470740825
-68.01861600671397
-70.94834821087969
-73.09681849393453
-74.5616845960174
-76.12420843823911
-75.73357747768368
-78.6633096818494
-80.81177996490425
-80.32349126420996
-82.27664606698711
-83.74151216906996
-85.30403601129167
-86.76890211337454
-86.47592889295797
-88.4290836957351
-89.7962920576791
-89.50331883726253
-91.45647364003968
-92.92133974212253
-94.38620584420539
-95.9487296864271
-95.55809872587167
-96.6323338673991
-97.3159380483711
-97.12062256809338
-98.09719996948196
-98.78080415045396
-97.60891126878766
-96.82764934767681
-97.02296482795452
-93.11665522240024
-90.08926527809568
-90.77286945906768
-81.98367284657053
-75.34294651712825
-62.45212481879911
-50.928511482413974
-53.467612726024264
-32.86182955672541
-17.334248874647134
-20.84992751964599
3.7598229953459983
22.119478141451133
40.96742198825055
59.62005035477226
55.51842526894026
75.44060425726711
90.08926527809568
86.8665598535134
99.95269703212024
109.42549782558937
112.06225680933852
116.16388189517052
115.18730449378195
114.4060425726711
113.62478065156023
113.72243839169909
106.98405432211796
101.71053635461966
93.31197070267795
85.59700923170824
87.25719081406882
74.46402685587854
64.89356832227054
67.0420386053254
54.053559166857404
44.48310063324941
35.20561532005799
25.830472266727703
27.881284809643702
15.967040512703136
7.080186160067139
9.033340962844282
-2.68558785381857
-11.572442206454566
-22.021820401312276
-32.08056763561456
-29.834439612420844
-39.893186846723125
-47.11985961699855
-45.55733577477684
-51.61211566338598
-55.90905622949569
-55.90905622949569
-56.88563363088426
-56.59266041046769
-53.760585946440834
-51.51445792324712
-52.002746623941405
-47.11985961699855
-43.40886549172198
-39.40489814602884
-35.49858854047456
-36.37750820172427
-34.32669565880827
-32.86182955672541
-33.15480277714199
-35.010299839780274
-36.475165941863125
-37.06111238269627
-37.84237430380713
-37.64705882352941
-40.57679102769512
-42.72526131074998
-42.236972610055695
-44.28778515297169
-45.75265125505455
-47.31517509727627
-48.877698939497975
-48.48706797894255
-51.416800183108265
-53.56527046616312
-53.07698176546884
-55.127794308384836
-56.49500267032883
-58.057526512550545
-59.62005035477226
-59.22941939421683
-61.28023193713283
-62.64744029907683
-62.35446707866026
-63.33104448004883
-64.01464866102083
-65.77248798352025
-67.23735408560312
-66.94438086518655
-66.94438086518655
-66.94438086518655
-66.94438086518655
-67.82330052643626
-68.60456244754711
-67.43266956588083
-66.74906538490883
-66.84672312504769
-66.74906538490883
-66.74906538490883
-66.74906538490883
-65.77248798352025
-64.9912260624094
-64.20996414129854
-63.42870222018769
-63.526359960326545
-62.54978255893797
-61.768520637827116
-61.96383611810483
-58.057526512550545
-55.03013656824598
-48.09643701838712
-41.943999389639124
-43.311207751583126
-29.63912413214313
-19.287403677424276
-21.63118944075685
-1.0254062714579995
14.404516670481422
35.69390402075227
55.81139848935683
51.31914244296941
78.07736324101626
97.90188448920424
93.40962844281681
117.3357747768368
134.9141680018311
148.0979629205768
162.25833524071106
159.0356298161288
168.3131151293202
174.75852597848478
173.29365987640193
175.44213015945678
176.80933852140078
172.61005569542993
169.6803234912642
170.26626993209734
162.45365072098878
156.4965285725185
157.76607919432365
145.94949263752193
137.06263828488594
126.61326009002823
116.45685511558709
118.60532539864195
104.73792629892424
94.38620584420539
96.6323338673991
82.7649347676814
72.5108720531014
62.35446707866026
52.10040436408026
54.346532387273975
43.311207751583126
35.303273060196844
37.06111238269627
29.053177691309987
23.19371328297856
17.724879835202564
12.256046387426567
13.525597009231708
9.42397192339971
6.494239719233997
7.080186160067139
3.1738765545128556
0.24414435034714274
-0.9277485313191425
-2.5879301136797133
-2.197299153124285
-5.127031357289998
-7.373159380483711
-6.884870679789426
-8.838025482566568
-10.302891584649425
-12.84199282825971
-15.185778591592278
-14.697489890897993
-16.650644693675137
-18.11551079575799
-17.82253757534142
-21.728847180895706
-24.65857938506142
-26.807049668116274
-29.150835431448844
-28.66254673075456
-31.592278934920273
-33.838406958113985
-33.3501182574197
-37.256427862973986
-40.186160067139696
-42.33463035019455
-44.77607385366598
-44.19012741283284
-47.11985961699855
-49.365987640192266
-48.877698939497975
-51.80743114366369
-53.95590142671855
-55.420767528801406
-56.983291371023114
-56.59266041046769
-58.54581521324483
-60.01068131532769
-59.62005035477226
-60.694285496299685
-61.37788967727169
-63.13572899977112
-64.60059510185397
-64.20996414129854
-65.28419928282597
-65.96780346379796
-65.77248798352025
-64.89356832227054
-64.11230640115969
-60.401312275883114
-57.37392233157855
-58.057526512550545
-49.26832990005341
-42.62760357061112
-44.09246967269398
-28.467231250476843
-16.650644693675137
2.5879301136797133
20.263981078812847
16.357671473258563
43.018234531166556
62.84275577935454
58.350499732967116
86.08529793240254
106.59342336156253
124.95307850766766
143.70336461432822
139.50408178835735
157.57076371404594
170.65690089265277
167.72716868848707
174.0749217975128
178.27420462348363
173.48897535667965
170.65690089265277
171.2428473334859
162.45365072098878
155.71526665140763
157.1801327534905
148.19562066071566
141.55489433127337
134.32822156099795
127.29686427100023
128.85938811322194
120.85145342183566
114.89433127336538
116.16388189517052
110.10910200656139
105.7145037003128
99.95269703212024
94.48386358434425
95.65575646601053
85.79232471198596
78.46799420157168
80.03051804379339
66.26077668421455
56.006713969634546
47.705806057831694
39.014267185473415
40.96742198825055
31.00633249408713
23.58434424353399
25.24452582589456
17.236591134508277
11.377126726176853
7.861448081177996
3.8574807354848555
4.736400396734569
-0.04882887006942855
-3.7598229953459983
-2.9785610742351416
-6.982528419928283
-9.912260624093996
-13.037308308537423
-16.16235599298085
-15.47875181200885
-19.385061417563133
-22.314793621728846
-21.728847180895706
-25.63515678644999
-28.564888990615703
-31.68993667505913
-34.81498435950255
-34.131380178530556
-39.014267185473415
-42.72526131074998
-41.84634164950027
-45.85030899519341
-48.78004119935912
-51.90508888380255
-55.03013656824598
-54.346532387273975
-57.37392233157855
-59.522392614633404
-59.03410391393912
-61.96383611810483
-64.11230640115969
-66.45609216449226
-68.79987792782482
-68.31158922713054
-71.24132143129626
-73.3897917143511
-72.90150301365682
-74.85465781643397
-76.31952391851682
-77.88204776073853
-79.44457160296025
-79.05394064240483
-81.00709544518196
-82.47196154726483
-82.0813305867094
-83.05790798809797
-83.83916990920882
-83.6438544289311
-83.6438544289311
-83.54619668879225
-80.71412222476539
-78.46799420157168
-78.95628290226597
-71.1436636911574
-65.18654154268711
-52.19806210421912
-40.772106507972836
-43.21355001144427
-22.60776684214542
-7.177843900205997
-10.595864805065995
14.892805371175708
34.0337224383917
54.54184786755169
74.85465781643397
70.26474402990769
93.2143129625391
110.10910200656139
106.30045014114596
122.31631952391852
134.03524834058138
139.99237048905164
147.21904325932707
145.5588616769665
147.70733196002135
149.07454032196537
148.7815671015488
144.97291523613336
141.9455252918288
134.9141680018311
128.76173037308308
130.12893873502708
120.16784924086366
112.84351873044938
114.4060425726711
100.63630121309224
90.2845807583734
79.15159838254368
68.21393148699168
70.65537499046312
55.81139848935683
44.77607385366598
47.21751735713741
32.27588311589227
21.24055848020142
11.279468986037996
1.1230640115968566
3.36919203479057
-7.568474860761425
-15.576409552147707
-13.81857022964828
-22.803082322423133
-29.346150911726557
-33.64309147783627
-38.42832074464027
-37.35408560311284
-41.358052948805984
-44.28778515297169
-43.604180971999696
-47.60814831769284
-50.44022278171969
-52.6863508049134
-55.03013656824598
-54.54184786755169
-56.49500267032883
-57.95986877241169
-57.56923781185626
-60.49897001602197
-62.745098039215684
-65.08888380254825
-67.43266956588083
-66.84672312504769
-69.77645532921339
-72.02258335240711
-71.43663691157397
-75.34294651712825
-78.27267872129397
-80.51880674448768
-82.86259250782025
-82.27664606698711
-85.20637827115281
-87.45250629434653
-86.8665598535134
-89.7962920576791
-92.04242008087282
-93.40962844281681
-94.97215228503853
-94.5815213244831
-97.51125352864881
-99.65972381170367
-99.17143511100939
-100.14801251239795
-100.83161669336995
-102.58945601586939
-104.05432211795224
-103.66369115739681
-104.73792629892424
-105.42153047989623
-105.22621499961852
-106.2027924010071
-106.8863965819791
-106.69108110170139
-106.69108110170139
-106.59342336156253
-104.64026855878538
-103.17540245670253
-103.4683756771191
-96.6323338673991
-91.45647364003968
-80.2258335240711
-70.26474402990769
-72.41321431296254
-53.760585946440834
-39.79552910658427
-42.822919050888835
-21.14290074006256
-4.931715877012284
10.400549324788281
26.123445487144274
22.60776684214542
40.57679102769512
53.760585946440834
50.83085374227512
65.77248798352025
76.71015487907225
84.71808957045853
93.40962844281681
91.45647364003968
98.58548867017625
103.66369115739681
102.49179827573053
106.49576562142367
109.42549782558937
107.76531624322881
107.08171206225681
107.17936980239567
99.56206607156481
93.50728618295567
94.87449454489968
83.05790798809797
74.17105363546197
62.745098039215684
51.90508888380255
54.346532387273975
41.358052948805984
31.787594415197987
33.93606469825284
21.92416266117342
13.13496604867628
4.638742656595713
-3.8574807354848555
-2.0019836728465705
-10.009918364232853
-15.869382772564279
-14.599832150759136
-19.678034637979707
-23.291371023117417
-26.318760967421987
-29.443808651865414
-28.760204470893417
-30.811017013809415
-32.178225375753414
-31.885252155336843
-33.838406958113985
-35.303273060196844
-35.98687724116884
-36.768139162279695
-36.57282368200198
-37.549401083390556
-38.23300526436255
-38.03768978408484
-39.99084458686198
-41.45571068894484
-43.018234531166556
-44.580758373388264
-44.19012741283284
-46.240939955748836
-47.60814831769284
-47.31517509727627
-49.26832990005341
-50.73319600213626
-53.27229724574655
-55.51842526894026
-55.03013656824598
-56.983291371023114
-58.44815747310597
-58.1551842526894
-60.987258716716255
-63.233386739909974
-64.60059510185397
-66.16311894407569
-65.8701457236591
-67.82330052643626
-69.19050888838025
-68.89753566796368
-70.85069047074083
-72.31555657282368
-72.90150301365682
-73.68276493476768
-73.48744945448996
-74.46402685587854
-75.14763103685054
-74.95231555657283
-75.9288929579614
-76.71015487907225
-76.51483939879454
-76.51483939879454
-76.41718165865568
-76.41718165865568
-76.41718165865568
-76.41718165865568
-74.46402685587854
-72.90150301365682
-70.36240177004655
-68.01861600671397
-68.50690470740825
-59.815365835049974
-53.17463950560769
-54.639505607690545
-40.86976424811169
-30.518043793392845
-12.84199282825971
3.1738765545128556
-0.24414435034714274
24.267948424505988
42.62760357061112
38.62363622491798
64.3076218814374
83.35088120851454
101.02693217364767
119.09361409933624
114.99198901350424
131.10551613641564
142.8244449530785
140.18768596932938
149.2698558022431
155.8129243915465
155.22697795071335
156.20355535210194
155.91058213168535
152.10193026626993
149.07454032196537
149.75814450293737
140.96894789044023
134.2305638208591
124.26947432669566
114.99198901350424
116.94514381628137
104.05432211795224
94.48386358434425
96.53467612726024
83.6438544289311
74.07339589532312
63.72167544060426
53.66292820630198
55.81139848935683
44.873731593804834
36.768139162279695
38.525978484779124
28.564888990615703
21.24055848020142
15.185778591592278
8.935683222705425
10.302891584649425
5.224689097428855
1.6113527122911422
2.392614633401999
-1.513694972152285
-4.443427176317998
-5.71297779812314
-7.275501640344854
-6.982528419928283
-9.912260624093996
-12.060730907148852
-11.572442206454566
-12.646677347981994
-13.427939269092851
-15.088120851453422
-16.650644693675137
-16.260013733119706
-19.287403677424276
-21.43587396047913
-20.947585259784848
-22.998397802700847
-24.365606164644845
-26.90470740825513
-29.2484931715877
-28.760204470893417
-31.68993667505913
-33.838406958113985
-33.3501182574197
-37.256427862973986
-40.186160067139696
-42.43228809033341
-44.77607385366598
-44.28778515297169
-47.21751735713741
-49.365987640192266
-48.877698939497975
-50.928511482413974
-52.295719844357976
-53.95590142671855
-55.420767528801406
-55.127794308384836
-57.08094911116198
-58.54581521324483
-58.1551842526894
-60.108339055466544
-61.5732051575494
-62.15915159838254
-62.9404135194934
-62.745098039215684
-62.84275577935454
-62.745098039215684
-62.745098039215684
-63.72167544060426
-64.40527962157626
-63.233386739909974
-62.54978255893797
-62.64744029907683
-55.03013656824598
-49.073014419775696
-50.34256504158083
-32.86182955672541
-19.58037689784085
3.1738765545128556
23.87731746395056
19.287403677424276
49.85427634088655
72.70618753337911
67.62798504615854
98.29251544975968
121.04676890211337
138.82047760738536
157.76607919432365
153.46913862821393
167.72716868848707
177.8835736629282
175.53978789959564
178.86015106431677
180.9109636072328
177.49294270237277
175.34447241931792
175.73510337987335
169.87563897154192
165.3833829251545
166.35996032654307
156.4965285725185
149.07454032196537
139.21110856794078
129.93362325474936
131.8867780575265
118.01937895780881
107.76531624322881
110.01144426642253
96.04638742656596
85.79232471198596
74.65934233615626
63.72167544060426
66.16311894407569
53.17463950560769
43.604180971999696
45.75265125505455
34.717326619363696
26.61173418783856
19.87335011825742
12.74433508812085
14.306858930342566
8.252079041733426
3.8574807354848555
4.834058136873426
-0.04882887006942855
-3.7598229953459983
-6.6895551995117115
-9.912260624093996
-9.130998702983138
-12.158388647287708
-14.404516670481422
-13.916227969787137
-17.82253757534142
-20.752269779507134
-22.998397802700847
-25.342183566033416
-24.756237125200276
-28.66254673075456
-31.68993667505913
-31.00633249408713
-33.93606469825284
-36.182192721446555
-39.5025558861677
-42.529945830472265
-41.84634164950027
-45.85030899519341
-48.78004119935912
-48.09643701838712
-51.02616922255284
-53.27229724574655
-56.59266041046769
-59.62005035477226
-58.936446173800256
-61.86617837796597
-64.11230640115969
-63.6240177004654
-66.55374990463112
-68.70222018768597
-70.06942854962998
-71.63195239185168
-71.33897917143511
-73.29213397421225
-74.75700007629511
-74.36636911573969
-74.36636911573969
-74.36636911573969
-70.55771725032426
-67.53032730601969
-68.21393148699168
-58.44815747310597
-51.02616922255284
-52.6863508049134
-37.06111238269627
-25.24452582589456
-5.908293278400855
11.670099946593423
7.763790341039139
31.592278934920273
49.17067215991455
45.26436255436027
68.99519340810254
86.57358663309682
100.83161669336995
115.77325093461509
112.35523002975509
125.5390249485008
134.9141680018311
132.76569771877624
138.0392156862745
141.55489433127337
139.79705500877392
139.11345082780193
139.21110856794078
134.4258793011368
130.61722743572136
131.39848935683221
123.58587014572366
117.62874799725337
108.44892042420081
99.95269703212024
101.71053635461966
88.91737239642939
79.3469138628214
81.39772640573739
68.50690470740825
58.936446173800256
48.584725719081405
38.525978484779124
40.67444876783398
28.760204470893417
19.971007858396277
21.92416266117342
10.986495765621424
2.8809033340962844
-2.8809033340962844
-9.228656443121995
-7.763790341039139
-14.795147631036851
-19.87335011825742
-18.799114976729992
-23.779659723811704
-27.49065384908827
-30.420386053253985
-33.545433737697415
-32.86182955672541
-36.86579690241855
-39.79552910658427
-39.11192492561227
-42.13931486991684
-44.28778515297169
-47.60814831769284
-50.635538261997404
-49.951934081025406
-53.95590142671855
-56.7879758907454
-56.20202944991226
-60.108339055466544
-63.03807125963226
-66.16311894407569
-69.28816662851911
-68.50690470740825
-72.5108720531014
-75.44060425726711
-74.75700007629511
-78.6633096818494
-81.5930418860151
-83.74151216906996
-86.08529793240254
-85.59700923170824
-88.52674143587396
-90.67521171892882
-90.18692301823454
-93.11665522240024
-95.2651255054551
-97.60891126878766
-99.95269703212024
-99.3667505912871
-101.41756313420309
-102.7847714961471
-102.49179827573053
-104.44495307850767
-105.81216144045166
-106.39810788128482
-107.17936980239567
-106.98405432211796
-106.98405432211796
-106.98405432211796
-106.98405432211796
-105.0308995193408
-103.4683756771191
-98.09719996948196
-93.50728618295567
-94.48386358434425
-82.7649347676814
-73.87808041504539
-75.83123521782254
-55.32310978866255
-39.79552910658427
-18.40848401617456
1.6113527122911422
-2.783245593957427
23.87731746395056
43.70183871213855
39.307240405889985
64.11230640115969
82.47196154726483
94.5815213244831
108.05828946364538
105.0308995193408
111.37865262836652
115.67559319447624
114.69901579308767
111.96459906919966
109.71847104600594
103.4683756771191
98.09719996948196
99.26909285114824
89.40566109712367
82.0813305867094
83.6438544289311
71.8272678721294
62.9404135194934
51.51445792324712
40.67444876783398
43.11589227130541
29.150835431448844
18.89677271686885
21.14290074006256
8.252079041733426
-1.2207217517357138
-9.619287403677424
-18.21316853589685
-16.357671473258563
-25.342183566033416
-31.885252155336843
-30.420386053253985
-37.4517433432517
-42.529945830472265
-46.14328221560998
-50.14724956130312
-49.26832990005341
-52.295719844357976
-54.44419012741283
-53.95590142671855
-55.90905622949569
-57.37392233157855
-57.95986877241169
-58.74113069352254
-58.54581521324483
-59.522392614633404
-60.30365453574426
-60.108339055466544
-62.061493858243686
-63.42870222018769
-64.11230640115969
-64.89356832227054
-64.69825284199283
-65.6748302433814
-66.3584344243534
-66.16311894407569
-67.13969634546426
-67.82330052643626
-69.58113984893568
-71.04600595101854
-70.75303273060197
-71.72961013199054
-72.41321431296254
-72.21789883268482
-73.19447623407339
-73.97573815518425
-75.63591973754482
-77.19844357976653
-76.8078126192111
-77.78439002059967
-78.46799420157168
-78.27267872129397
-80.2258335240711
-81.69069962615396
-82.27664606698711
-83.05790798809797
-82.86259250782025
-83.83916990920882
-84.52277409018082
-84.3274586099031
-84.3274586099031
-84.3274586099031
-81.39772640573739
-79.15159838254368
-79.63988708323797
-73.78042267490653
-69.38582436865796
-70.26474402990769
-58.643472953383686
-49.75661860074769
-34.52201113908598
-20.654612039368278
-23.779659723811704
-2.0019836728465705
14.013885709925994
10.400549324788281
34.131380178530556
51.80743114366369
67.92095826657511
84.3274586099031
80.61646448462653
96.72999160753795
108.35126268406195
105.7145037003128
113.9177538719768
119.67956054016938
120.26550698100252
122.02334630350195
121.63271534294651
118.80064087891967
116.45685511558709
116.94514381628137
109.1325246051728
103.17540245670253
93.99557488364995
85.49935149156939
87.35484855420768
75.44060425726711
66.65140764476998
68.60456244754711
56.690318150606544
47.80346379797055
38.33066300450141
28.95551995117113
31.00633249408713
20.068665598535134
11.963073167009995
13.720912489509422
5.71297779812314
-0.04882887006942855
-5.420004577706569
-10.888838025482567
-9.71694514381628
-13.81857022964828
-16.650644693675137
-16.064698252841993
-18.994430457007706
-21.24055848020142
-22.60776684214542
-24.267948424505988
-23.87731746395056
-25.830472266727703
-27.295338368810558
-27.002365148393988
-27.97894254978256
-28.66254673075456
-30.420386053253985
-31.9829098954757
-31.592278934920273
-32.6665140764477
-33.3501182574197
-33.15480277714199
-35.10795757991913
-36.57282368200198
-38.1353475242237
-39.69787136644541
-39.307240405889985
-41.26039520866713
-42.72526131074998
-42.43228809033341
-44.38544289311055
-45.85030899519341
-48.38941023880369
-50.635538261997404
-50.14724956130312
-52.10040436408026
-53.56527046616312
-53.27229724574655
-55.22545204852369
-56.690318150606544
-58.25284199282826
-59.71770809491112
-59.42473487449455
-60.401312275883114
-61.08491645685512
-60.8896009765774
-62.84275577935454
-64.3076218814374
-63.91699092088197
-64.01464866102083
-64.01464866102083
-64.89356832227054
-65.6748302433814
-65.47951476310368
-68.31158922713054
-70.55771725032426
-75.73357747768368
-80.32349126420996
-79.24925612268254
-85.20637827115281
-89.50331883726253
-88.52674143587396
-90.67521171892882
-92.04242008087282
-88.81971465629053
-86.67124437323568
-87.06187533379111
-79.3469138628214
-73.3897917143511
-74.65934233615626
-59.13176165407798
-47.21751735713741
-28.857862211032273
-11.963073167009995
-15.674067292286564
7.959105821316854
25.63515678644999
21.63118944075685
47.31517509727627
66.45609216449226
86.96421759365225
107.27702754253453
102.68711375600824
126.61326009002823
144.09399557488365
140.18768596932938
157.27779049362937
169.58266575112535
175.44213015945678
182.6688029297322
181.00862134737164
184.13366903181506
186.18448157473105
185.69619287403677
182.86411841000992
180.52033264667736
174.2702372777905
168.9967193102922
170.07095445181963
160.20752269779507
152.78553444724193
154.34805828946364
142.53147173266194
133.64461738002595
123.19523918516823
113.03883421072709
115.18730449378195
101.31990539406424
90.96818493934539
93.31197070267795
80.32349126420996
70.75303273060197
62.35446707866026
53.66292820630198
55.61608300907912
45.654993514915695
38.23300526436255
39.893186846723125
32.86182955672541
27.68596932936599
23.096055542839704
18.40848401617456
19.385061417563133
15.381094071869994
12.45136186770428
13.037308308537423
9.130998702983138
6.201266498817426
2.9785610742351416
-0.04882887006942855
0.537117570763714
-3.2715342946517127
-6.201266498817426
-5.615320057984283
-9.521629663538567
-12.45136186770428
-15.674067292286564
-18.701457236591136
-18.017853055619135
-22.021820401312276
-24.95155260547799
-24.267948424505988
-29.150835431448844
-32.86182955672541
-35.889219501029984
-39.014267185473415
-38.33066300450141
-41.26039520866713
-43.50652323186084
-42.92057679102769
-45.947966735332265
-48.09643701838712
-50.44022278171969
-52.78400854505226
-52.295719844357976
-55.22545204852369
-57.37392233157855
-56.88563363088426
-58.936446173800256
-60.30365453574426
-61.86617837796597
-63.42870222018769
-63.03807125963226
-65.08888380254825
-66.45609216449226
-66.16311894407569
-67.13969634546426
-67.82330052643626
-67.7256427862974
-67.7256427862974
-67.62798504615854
-64.79591058213168
-62.54978255893797
-63.03807125963226
-54.24887464713512
-47.60814831769284
-34.717326619363696
-23.291371023117417
-25.830472266727703
-4.248111696040284
11.865415426871138
8.252079041733426
32.95948729686427
51.31914244296941
71.04600595101854
90.47989623865111
86.1829556725414
107.17936980239567
122.51163500419624
119.09361409933624
134.13290608072023
144.97291523613336
149.17219806210423
154.93400473029678
153.56679636835278
155.71526665140763
157.08247501335165
156.69184405279623
153.85976958876935
151.61364156557565
146.34012359807735
141.7502098115511
142.72678721293966
132.8633554589151
125.44136720836194
127.00389105058366
116.16388189517052
108.05828946364538
97.41359578850995
87.25719081406882
89.50331883726253
76.51483939879454
67.0420386053254
69.0928511482414
56.20202944991226
46.63157091630426
37.256427862973986
27.881284809643702
29.9320973525597
19.971007858396277
12.646677347981994
14.209201190203707
6.201266498817426
0.34180209048599985
-4.931715877012284
-10.400549324788281
-9.228656443121995
-13.232623788815136
-16.16235599298085
-15.47875181200885
-19.48271915770199
-22.412451361867703
-25.537499046311133
-28.66254673075456
-27.97894254978256
-31.00633249408713
-33.15480277714199
-32.6665140764477
-36.57282368200198
-39.5025558861677
-42.72526131074998
-45.75265125505455
-45.069047074082555
-49.073014419775696
-51.90508888380255
-51.31914244296941
-55.22545204852369
-58.1551842526894
-61.28023193713283
-64.40527962157626
-63.72167544060426
-66.65140764476998
-68.89753566796368
-68.31158922713054
-74.17105363546197
-78.56565194171054
-86.1829556725414
-93.01899748226138
-91.45647364003968
-98.48783093003739
-103.56603341725796
-102.39414053559167
-106.39810788128482
-109.32784008545052
-108.64423590447852
-108.74189364461738
-108.64423590447852
-106.69108110170139
-105.22621499961852
-105.51918822003509
-99.65972381170367
-95.16746776531625
-91.35881589990082
-87.45250629434653
-88.23376821545739
-85.20637827115281
-82.96025024795911
-83.4485389486534
-80.42114900434882
-78.17502098115511
-71.04600595101854
-64.9912260624094
-66.26077668421455
-53.56527046616312
-43.89715419241627
-46.04562447547112
-26.514076447699704
-11.767757686732281
7.861448081177996
26.318760967421987
22.21713588158999
47.0222018768597
65.38185702296482
61.28023193713283
83.15556572823682
99.26909285114824
110.89036392767224
123.58587014572366
120.7537956816968
128.9570458533608
134.71885252155337
133.35164415960938
135.50011444266423
136.86732280460822
133.64461738002595
131.49614709697107
131.8867780575265
126.0273136491951
121.53505760280765
122.51163500419624
112.74586099031052
105.32387273975738
96.43701838712138
87.84313725490196
89.69863431754024
76.8078126192111
67.23735408560312
69.38582436865796
55.51842526894026
45.16670481422141
35.010299839780274
24.853894865339132
27.100022888532845
15.185778591592278
6.39658197909514
8.349736781872283
-2.490272373540856
-10.595864805065995
-16.45532921339742
-22.803082322423133
-21.338216220340275
-27.392996108949415
-31.787594415197987
-30.811017013809415
-34.81498435950255
-37.74471656366827
-39.893186846723125
-42.236972610055695
-41.74868390936141
-44.67841611352712
-46.92454413672083
-46.43625543602655
-48.38941023880369
-49.85427634088655
-52.39337758449683
-54.639505607690545
-54.15121690699626
-57.08094911116198
-59.22941939421683
-58.74113069352254
-61.67086289768826
-63.91699092088197
-67.23735408560312
-70.26474402990769
-69.58113984893568
-72.5108720531014
-74.75700007629511
-74.17105363546197
-78.07736324101626
-81.00709544518196
-83.25322346837568
-85.59700923170824
-85.0110627908751
-87.94079499504082
-90.18692301823454
-89.60097657740138
-91.65178912031739
-93.01899748226138
-94.5815213244831
-96.14404516670481
-95.75341420614939
-97.70656900892652
-99.17143511100939
-98.78080415045396
-98.87846189059282
-98.78080415045396
-97.80422674906538
-97.02296482795452
-97.12062256809338
-91.35881589990082
-86.8665598535134
-87.84313725490196
-77.10078583962768
-68.99519340810254
-54.54184786755169
-41.45571068894484
-44.38544289311055
-23.682001983672848
-8.154421301594567
-11.572442206454566
10.009918364232853
26.22110322728313
41.74868390936141
57.37392233157855
53.85824368657969
67.92095826657511
78.17502098115511
75.83123521782254
84.91340505073624
91.45647364003968
91.94476234073396
93.70260166323338
93.31197070267795
90.47989623865111
88.23376821545739
88.62439917601282
81.78835736629281
76.61249713893339
69.19050888838025
62.2568093385214
63.72167544060426
52.881666285191116
44.77607385366598
46.533913176165406
34.717326619363696
25.830472266727703
16.357671473258563
6.982528419928283
9.033340962844282
-0.8300907911802854
-8.154421301594567
-6.591897459372854
-14.50217441062028
-20.361638818951704
-24.853894865339132
-29.541466392004274
-28.467231250476843
-32.56885633630884
-35.4009308003357
-34.81498435950255
-36.86579690241855
-38.23300526436255
-38.91660944533455
-39.69787136644541
-39.5025558861677
-40.479133287556266
-41.16273746852827
-41.065079728389414
-41.065079728389414
-41.065079728389414
-41.943999389639124
-42.72526131074998
-42.529945830472265
-44.48310063324941
-45.947966735332265
-45.55733577477684
-47.51049057755398
-48.97535667963683
-50.53788052185855
-52.10040436408026
-51.709773403524835
-53.760585946440834
-55.127794308384836
-54.83482108796826
-60.59662775616083
-64.9912260624094
-71.63195239185168
-77.78439002059967
-76.41718165865568
-84.3274586099031
-90.18692301823454
-88.81971465629053
-92.92133974212253
-95.75341420614939
-95.06981002517739
-95.2651255054551
-95.16746776531625
-92.23773556115053
-89.99160753795681
-90.47989623865111
-83.6438544289311
-78.46799420157168
-72.90150301365682
-67.43266956588083
-68.60456244754711
-65.47951476310368
-63.233386739909974
-63.72167544060426
-63.6240177004654
-63.6240177004654
-63.6240177004654
-63.526359960326545
-63.526359960326545
-63.526359960326545
-63.526359960326545
-63.526359960326545
-62.54978255893797
-61.768520637827116
-60.01068131532769
-58.44815747310597
-58.74113069352254
-52.97932402532997
-48.48706797894255
-49.46364538033112
-38.72129396505684
-30.615701533531702
-15.185778591592278
-1.416037232013428
-4.541084916456855
17.041275654230564
33.252460517280845
29.63912413214313
55.32310978866255
74.36636911573969
92.04242008087282
110.10910200656139
106.00747692072939
125.05073624780651
138.9181353475242
135.7930876630808
146.9260700389105
154.83634699015792
156.88715953307394
160.20752269779507
159.42626077668422
158.5473411154345
157.76607919432365
157.8637369344625
151.0276951247425
145.85183489738307
138.33218890669107
131.39848935683221
132.8633554589151
122.02334630350195
113.82009613183794
115.57793545433738
102.7847714961471
93.2143129625391
82.86259250782025
72.70618753337911
74.95231555657283
62.9404135194934
54.15121690699626
56.1043717097734
46.04562447547112
38.72129396505684
31.787594415197987
24.65857938506142
26.22110322728313
19.18974593728542
14.11154345006485
15.185778591592278
10.205233844510566
6.494239719233997
4.443427176317998
2.0996414129854277
2.5879301136797133
-0.24414435034714274
-2.490272373540856
-2.0019836728465705
-4.052796215762569
-5.517662317845426
-7.080186160067139
-8.642710002288853
-8.252079041733426
-11.181811245899137
-13.427939269092851
-12.939650568398566
-14.892805371175708
-16.357671473258563
-19.87335011825742
-22.90074006256199
-22.21713588158999
-25.24452582589456
-27.392996108949415
-26.90470740825513
-29.9320973525597
-32.08056763561456
-35.4009308003357
-38.42832074464027
-37.74471656366827
-40.772106507972836
-42.92057679102769
-42.43228809033341
-45.45967803463798
-47.60814831769284
-48.97535667963683
-50.635538261997404
-50.24490730144198
-52.19806210421912
-53.66292820630198
-53.27229724574655
-55.22545204852369
-56.690318150606544
-58.25284199282826
-59.815365835049974
-59.42473487449455
-60.49897001602197
-61.182574196993976
-60.987258716716255
-60.01068131532769
-59.32707713435569
-56.59266041046769
-54.24887464713512
-54.7371633478294
-46.04562447547112
-39.40489814602884
-40.86976424811169
-27.100022888532845
-16.84596017395285
0.8300907911802854
16.943617914091707
13.330281528953995
37.06111238269627
54.7371633478294
50.73319600213626
74.5616845960174
92.14007782101167
108.2536049439231
124.66010528725108
120.94911116197451
136.08606088349737
147.02372777904935
144.48462653543908
152.68787670710307
158.44968337529565
158.93797207598993
160.69581139848935
160.30518043793393
157.47310597390708
155.1293202105745
155.61760891126877
148.7815671015488
143.5080491340505
136.08606088349737
129.05470359349965
130.5195696955825
119.67956054016938
111.57396810864424
113.33180743114366
101.41756313420309
92.5307087815671
82.0813305867094
71.92492561226825
74.17105363546197
62.2568093385214
53.36995498588541
55.32310978866255
43.40886549172198
34.61966887922484
27.97894254978256
20.84992751964599
22.412451361867703
14.404516670481422
8.545052262149996
9.81460288395514
4.736400396734569
1.1230640115968566
-1.8066681925688564
-4.931715877012284
-4.248111696040284
-8.252079041733426
-11.181811245899137
-10.498207064927138
-16.357671473258563
-20.752269779507134
-27.392996108949415
-33.545433737697415
-32.178225375753414
-40.08850232700084
-45.947966735332265
-44.67841611352712
-50.635538261997404
-55.03013656824598
-56.006713969634546
-57.66689555199512
-57.27626459143969
-57.37392233157855
-57.27626459143969
-57.27626459143969
-55.32310978866255
-53.85824368657969
-51.31914244296941
-48.97535667963683
-49.46364538033112
-50.34256504158083
-51.02616922255284
-50.83085374227512
-53.760585946440834
-55.90905622949569
-58.350499732967116
-60.59662775616083
-60.108339055466544
-62.061493858243686
-63.526359960326545
-63.233386739909974
-65.18654154268711
-66.55374990463112
-68.11627374685283
-69.67879758907453
-69.28816662851911
-70.36240177004655
-71.04600595101854
-70.85069047074083
-71.8272678721294
-72.5108720531014
-72.31555657282368
-72.41321431296254
-72.31555657282368
-69.48348210879682
-67.23735408560312
-67.62798504615854
-60.8896009765774
-55.713740749217976
-44.38544289311055
-34.424353398947126
-36.67048142214084
-18.017853055619135
-4.052796215762569
-7.080186160067139
16.357671473258563
34.0337224383917
53.95590142671855
73.3897917143511
69.0928511482414
91.94476234073396
108.83955138475623
105.0308995193408
122.99992370489052
136.18371862363622
142.72678721293966
150.73472190432594
148.87922484168766
152.10193026626993
154.25040054932478
153.66445410849164
152.78553444724193
152.00427252613107
146.34012359807735
141.84786755168994
142.8244449530785
134.9141680018311
128.9570458533608
130.22659647516593
119.3865873197528
111.28099488822767
101.51522087434195
92.23773556115053
94.28854810406654
81.39772640573739
71.72961013199054
73.87808041504539
60.987258716716255
51.416800183108265
42.04165712977798
32.6665140764477
34.717326619363696
24.65857938506142
17.334248874647134
18.994430457007706
10.009918364232853
3.466849774929427
-1.7090104524299992
-7.177843900205997
-6.005951018539712
-10.986495765621424
-14.697489890897993
-13.81857022964828
-17.82253757534142
-20.752269779507134
-23.974975204089418
-27.002365148393988
-26.318760967421987
-30.322728313115128
-33.252460517280845
-32.56885633630884
-36.57282368200198
-39.5025558861677
-42.62760357061112
-45.75265125505455
-44.97138933394369
-48.97535667963683
-51.90508888380255
-51.22148470283055
-56.1043717097734
-59.815365835049974
-62.745098039215684
-65.8701457236591
-65.18654154268711
-70.06942854962998
-73.78042267490653
-72.90150301365682
-75.9288929579614
-78.07736324101626
-81.39772640573739
-84.42511635004196
-83.74151216906996
-86.76890211337454
-88.91737239642939
-88.33142595559625
-91.35881589990082
-93.50728618295567
-94.87449454489968
-96.43701838712138
-96.04638742656596
-97.99954222934309
-99.46440833142596
-99.07377737087053
-101.02693217364767
-102.49179827573053
-102.1011673151751
-102.19882505531396
-102.1011673151751
-101.12458991378652
-100.34332799267567
-100.53864347295338
-96.6323338673991
-93.60494392309452
-83.74151216906996
-75.44060425726711
-77.19844357976653
-61.475547417410546
-49.75661860074769
-52.295719844357976
-31.68993667505913
-16.16235599298085
3.1738765545128556
21.728847180895706
17.627222095063708
39.600213626306555
55.713740749217976
52.10040436408026
70.06942854962998
83.25322346837568
89.7962920576791
97.80422674906538
96.04638742656596
100.24567025253681
103.07774471656367
102.39414053559167
100.53864347295338
99.07377737087053
93.60494392309452
89.01503013656824
89.99160753795681
81.20241092545967
74.5616845960174
76.02655069810025
65.08888380254825
56.983291371023114
47.31517509727627
38.03768978408484
40.08850232700084
28.174258030060273
19.287403677424276
21.24055848020142
9.42397192339971
0.537117570763714
-6.884870679789426
-14.795147631036851
-13.037308308537423
-21.045242999923705
-26.90470740825513
-25.63515678644999
-34.424353398947126
-41.065079728389414
-49.17067215991455
-56.88563363088426
-55.127794308384836
-62.15915159838254
-67.23735408560312
-66.16311894407569
-70.16708628976883
-73.09681849393453
-71.43663691157397
-70.85069047074083
-70.94834821087969
-68.01861600671397
-65.77248798352025
-66.26077668421455
-59.42473487449455
-54.24887464713512
-50.635538261997404
-46.63157091630426
-47.51049057755398
-46.33859769588769
-45.55733577477684
-45.75265125505455
-47.60814831769284
-49.073014419775696
-51.61211566338598
-53.85824368657969
-53.36995498588541
-56.29968719005112
-58.54581521324483
-57.95986877241169
-60.01068131532769
-61.475547417410546
-63.03807125963226
-64.50293736171511
-64.20996414129854
-66.16311894407569
-67.62798504615854
-67.23735408560312
-69.19050888838025
-70.65537499046312
-71.24132143129626
-72.02258335240711
-71.8272678721294
-72.80384527351796
-73.48744945448996
-73.29213397421225
-74.26871137560083
-75.04997329671168
-74.85465781643397
-74.85465781643397
-74.85465781643397
-72.90150301365682
-71.33897917143511
-71.72961013199054
-66.84672312504769
-63.13572899977112
-54.346532387273975
-46.72922865644312
-48.38941023880369
-32.764171816586554
-20.947585259784848
-23.58434424353399
-2.8809033340962844
12.45136186770428
31.00633249408713
48.78004119935912
44.873731593804834
65.77248798352025
81.10475318532082
77.68673228046082
94.67917906462196
107.08171206225681
113.82009613183794
121.82803082322422
119.97253376058595
123.19523918516823
125.34370946822308
124.8554207675288
122.02334630350195
119.67956054016938
113.52712291142137
108.15594720378424
109.32784008545052
100.44098573281453
93.80025940337224
95.16746776531625
83.35088120851454
74.5616845960174
64.9912260624094
55.61608300907912
57.66689555199512
45.75265125505455
36.96345464255741
38.91660944533455
27.97894254978256
19.87335011825742
13.037308308537423
6.005951018539712
7.568474860761425
1.416037232013428
-2.783245593957427
-1.8066681925688564
-6.884870679789426
-10.498207064927138
-11.572442206454566
-13.232623788815136
-12.84199282825971
-14.892805371175708
-16.357671473258563
-15.967040512703136
-17.041275654230564
-17.724879835202564
-17.52956435492485
-17.627222095063708
-17.627222095063708
-18.506141756313422
-19.287403677424276
-21.045242999923705
-22.510109102006563
-22.21713588158999
-24.17029068436713
-25.63515678644999
-25.24452582589456
-27.295338368810558
-28.760204470893417
-30.322728313115128
-31.885252155336843
-31.494621194781413
-34.424353398947126
-36.67048142214084
-36.0845349813077
-39.11192492561227
-41.26039520866713
-42.72526131074998
-44.28778515297169
-43.89715419241627
-45.85030899519341
-47.31517509727627
-47.0222018768597
-48.97535667963683
-50.44022278171969
-52.002746623941405
-53.467612726024264
-53.17463950560769
-54.15121690699626
-54.83482108796826
-54.7371633478294
-55.61608300907912
-56.39734493018997
-57.178606851300835
-57.95986877241169
-57.764553292133975
-57.764553292133975
-57.764553292133975
-57.66689555199512
-57.66689555199512
-57.66689555199512
-54.7371633478294
-52.49103532463569
-52.97932402532997
-48.09643701838712
-44.38544289311055
-45.26436255436027
-33.545433737697415
-24.65857938506142
-10.400549324788281
2.5879301136797133
-0.24414435034714274
22.21713588158999
39.20958266575113
35.4009308003357
60.108339055466544
78.46799420157168
96.33936064698253
114.30838483253224
110.20675974670024
128.2734416723888
141.35957885099566
138.42984664682993
150.44174868390937
159.2309452964065
160.98878461890592
164.40680552376594
163.5278858625162
163.7232013427939
163.62554360265506
163.5278858625162
158.74265659571222
154.93400473029678
147.1213855191882
140.28534370946824
141.7502098115511
131.78912031738764
124.36713206683451
126.0273136491951
114.11306935225453
105.22621499961852
91.94476234073396
79.54222934309911
82.27664606698711
64.50293736171511
51.22148470283055
54.15121690699626
37.256427862973986
24.756237125200276
16.064698252841993
6.494239719233997
8.642710002288853
1.513694972152285
-3.466849774929427
-2.392614633401999
-4.541084916456855
-6.005951018539712
-4.736400396734569
-4.052796215762569
-4.150453955901427
-2.197299153124285
-0.7324330510414282
-1.0254062714579995
-1.9043259327077133
-2.68558785381857
-5.420004577706569
-7.666132600900283
-7.177843900205997
-11.08415350576028
-14.013885709925994
-13.330281528953995
-17.334248874647134
-20.263981078812847
-23.389028763256274
-26.514076447699704
-25.830472266727703
-29.834439612420844
-32.764171816586554
-32.08056763561456
-35.98687724116884
-38.91660944533455
-41.16273746852827
-43.50652323186084
-42.92057679102769
-46.92454413672083
-49.85427634088655
-49.17067215991455
-52.10040436408026
-54.346532387273975
-55.713740749217976
-57.27626459143969
-56.88563363088426
-59.815365835049974
-62.061493858243686
-61.5732051575494
-63.526359960326545
-64.9912260624094
-65.57717250324254
-66.3584344243534
-66.16311894407569
-67.13969634546426
-67.82330052643626
-67.62798504615854
-67.7256427862974
-67.62798504615854
-63.819333180743115
-60.79194323643854
-61.475547417410546
-51.80743114366369
-44.38544289311055
-45.947966735332265
-31.2993057145037
-20.16632333867399
-1.6113527122911422
15.088120851453422
11.377126726176853
35.10795757991913
52.78400854505226
48.78004119935912
73.48744945448996
91.8471046005951
105.90981918059052
120.85145342183566
117.53109025711451
131.59380483710993
141.7502098115511
139.50408178835735
146.63309681849393
151.61364156557565
151.41832608529793
152.3949034866865
152.10193026626993
148.29327840085452
145.26588845654993
145.85183489738307
139.99237048905164
135.50011444266423
127.78515297169452
120.85145342183566
122.41397726405738
111.47631036850538
103.37071793698024
105.12855725947966
93.2143129625391
84.42511635004196
74.85465781643397
65.47951476310368
67.53032730601969
55.61608300907912
46.826886396581976
48.78004119935912
37.74471656366827
29.736781872281988
21.92416266117342
14.11154345006485
15.869382772564279
8.74036774242771
3.662165255207141
4.834058136873426
-1.1230640115968566
-5.517662317845426
-9.326314183260854
-13.232623788815136
-12.353704127565424
-15.381094071869994
-17.52956435492485
-17.041275654230564
-21.045242999923705
-23.974975204089418
-26.123445487144274
-28.467231250476843
-27.97894254978256
-31.885252155336843
-34.81498435950255
-34.131380178530556
-38.1353475242237
-41.065079728389414
-43.21355001144427
-45.654993514915695
-45.069047074082555
-48.97535667963683
-51.90508888380255
-51.22148470283055
-55.22545204852369
-58.1551842526894
-60.30365453574426
-62.64744029907683
-62.15915159838254
-65.08888380254825
-67.23735408560312
-66.74906538490883
-69.67879758907453
-71.92492561226825
-73.29213397421225
-74.85465781643397
-74.46402685587854
-76.41718165865568
-77.88204776073853
-77.4914168001831
-79.44457160296025
-80.9094377050431
-78.6633096818494
-77.19844357976653
-77.4914168001831
-72.60852979324025
-68.89753566796368
-69.77645532921339
-59.03410391393912
-50.928511482413974
-35.49858854047456
-21.728847180895706
-24.756237125200276
-3.076218814373999
13.037308308537423
9.42397192339971
32.178225375753414
49.073014419775696
65.38185702296482
81.78835736629281
78.07736324101626
94.09323262378882
105.81216144045166
103.17540245670253
112.35523002975509
118.80064087891967
121.14442664225223
124.36713206683451
123.68352788586252
120.94911116197451
118.60532539864195
119.09361409933624
114.11306935225453
110.40207522697796
102.58945601586939
95.75341420614939
97.21828030823224
86.37827115281911
78.17502098115511
80.03051804379339
68.11627374685283
59.22941939421683
45.947966735332265
33.64309147783627
36.27985046158541
17.52956435492485
3.5645075150682843
6.6895551995117115
-11.08415350576028
-24.267948424505988
-31.885252155336843
-40.67444876783398
-38.72129396505684
-45.75265125505455
-50.928511482413974
-49.75661860074769
-50.928511482413974
-51.61211566338598
-48.584725719081405
-46.33859769588769
-46.826886396581976
-42.92057679102769
-39.893186846723125
-40.57679102769512
-40.38147554741741
-40.38147554741741
-44.19012741283284
-47.21751735713741
-46.533913176165406
-49.46364538033112
-51.709773403524835
-51.22148470283055
-55.127794308384836
-58.057526512550545
-60.2059967956054
-62.54978255893797
-62.061493858243686
-65.96780346379796
-68.89753566796368
-68.21393148699168
-71.1436636911574
-73.3897917143511
-75.73357747768368
-77.97970550087739
-77.4914168001831
-80.42114900434882
-82.56961928740368
-82.0813305867094
-84.03448538948653
-85.49935149156939
-88.03845273517967
-90.2845807583734
-89.7962920576791
-91.74944686045625
-93.2143129625391
-92.82368200198367
-93.80025940337224
-94.48386358434425
-96.24170290684367
-97.70656900892652
-97.3159380483711
-98.39017318989853
-99.07377737087053
-98.87846189059282
-96.92530708781567
-95.46044098573282
-90.96818493934539
-87.15953307392996
-87.94079499504082
-76.31952391851682
-67.43266956588083
-69.38582436865796
-52.6863508049134
-40.08850232700084
-22.803082322423133
-6.591897459372854
-10.205233844510566
13.427939269092851
31.00633249408713
27.100022888532845
47.998779278248264
63.42870222018769
74.26871137560083
86.1829556725414
83.4485389486534
92.62836652170596
99.17143511100939
97.70656900892652
100.83161669336995
102.98008697642481
98.58548867017625
95.75341420614939
96.33936064698253
89.50331883726253
84.3274586099031
85.40169375143053
76.51483939879454
69.87411306935225
59.91302357518883
50.635538261997404
52.6863508049134
40.772106507972836
31.885252155336843
33.838406958113985
21.92416266117342
13.13496604867628
4.638742656595713
-3.9551384756237127
-2.0019836728465705
-10.986495765621424
-17.627222095063708
-16.16235599298085
-22.21713588158999
-26.514076447699704
-30.322728313115128
-34.22903791866941
-33.3501182574197
-35.49858854047456
-36.86579690241855
-36.57282368200198
-38.525978484779124
-39.99084458686198
-40.57679102769512
-41.45571068894484
-41.26039520866713
-42.236972610055695
-42.92057679102769
-42.72526131074998
-43.70183871213855
-44.48310063324941
-46.14328221560998
-47.705806057831694
-47.31517509727627
-49.26832990005341
-50.73319600213626
-50.44022278171969
-52.39337758449683
-53.85824368657969
-56.39734493018997
-58.643472953383686
-58.1551842526894
-60.108339055466544
-61.5732051575494
-61.182574196993976
-63.13572899977112
-64.60059510185397
-66.16311894407569
-67.7256427862974
-67.33501182574197
-69.28816662851911
-70.75303273060197
-70.4600595101854
-72.41321431296254
-73.78042267490653
-74.46402685587854
-75.2452887769894
-75.04997329671168
-76.02655069810025
-76.71015487907225
-76.51483939879454
-76.51483939879454
-76.51483939879454
-76.51483939879454
-76.41718165865568
-76.41718165865568
-73.48744945448996
-71.24132143129626
-71.72961013199054
-65.8701457236591
-61.475547417410546
-50.928511482413974
-41.84634164950027
-43.79949645227741
-27.100022888532845
-14.599832150759136
-17.334248874647134
4.150453955901427
20.361638818951704
38.72129396505684
56.59266041046769
52.588693064774546
73.48744945448996
88.91737239642939
85.40169375143053
100.44098573281453
111.37865262836652
117.53109025711451
124.75776302738994
123.09758144502938
125.34370946822308
126.71091783016709
126.32028686961166
122.51163500419624
119.48424505989166
113.42946517128252
108.05828946364538
109.23018234531166
99.3667505912871
91.94476234073396
93.60494392309452
81.78835736629281
72.90150301365682
60.49897001602197
48.877698939497975
51.416800183108265
34.61966887922484
22.119478141451133
24.95155260547799
9.033340962844282
-2.68558785381857
-9.619287403677424
-17.627222095063708
-15.771725032425422
-21.92416266117342
-26.318760967421987
-25.342183566033416
-25.537499046311133
-25.439841306172273
-21.63118944075685
-18.701457236591136
-19.287403677424276
-15.381094071869994
-12.353704127565424
-13.037308308537423
-11.963073167009995
-11.181811245899137
-12.353704127565424
-13.037308308537423
-12.84199282825971
-14.795147631036851
-16.260013733119706
-15.967040512703136
-17.920195315480278
-19.385061417563133
-20.947585259784848
-22.510109102006563
-22.21713588158999
-25.146868085755703
-27.295338368810558
-26.807049668116274
-29.736781872281988
-31.9829098954757
-34.32669565880827
-36.67048142214084
-36.0845349813077
-39.11192492561227
-41.26039520866713
-40.772106507972836
-42.822919050888835
-44.19012741283284
-46.72922865644312
-49.073014419775696
-48.48706797894255
-50.53788052185855
-52.002746623941405
-51.61211566338598
-53.56527046616312
-55.03013656824598
-55.61608300907912
-56.49500267032883
-56.29968719005112
-57.27626459143969
-57.95986877241169
-57.764553292133975
-58.74113069352254
-59.42473487449455
-59.22941939421683
-59.32707713435569
-59.22941939421683
-59.22941939421683
-59.22941939421683
-59.22941939421683
-59.22941939421683
-59.13176165407798
-59.13176165407798
-59.13176165407798
-59.13176165407798
-57.178606851300835
-55.713740749217976
-56.006713969634546
-51.123826962691695
-47.412832837415124
-38.72129396505684
-31.103990234225986
-32.764171816586554
-16.16235599298085
-3.5645075150682843
-6.39658197909514
15.185778591592278
31.396963454642556
52.588693064774546
72.60852979324025
68.21393148699168
93.99557488364995
113.03883421072709
108.74189364461738
130.61722743572136
146.73075455863278
157.47310597390708
169.28969253070878
166.65293354695964
173.78194857709622
178.86015106431677
177.6882581826505
179.73907072556648
181.1062790875105
176.90699626153963
173.97726405737393
174.56321049820707
167.72716868848707
162.45365072098878
163.62554360265506
153.7621118486305
146.34012359807735
136.4766918440528
127.10154879072252
129.1523613336385
116.26153963530938
106.69108110170139
108.74189364461738
95.85107194628824
86.28061341268025
75.9288929579614
65.77248798352025
68.01861600671397
56.983291371023114
48.877698939497975
50.635538261997404
41.651026169222554
35.10795757991913
28.857862211032273
22.60776684214542
23.974975204089418
17.920195315480278
13.525597009231708
14.50217441062028
10.498207064927138
7.568474860761425
4.345769436179141
1.3183794918745708
2.0019836728465705
-1.9043259327077133
-4.834058136873426
-4.150453955901427
-8.154421301594567
-11.08415350576028
-14.209201190203707
-17.334248874647134
-16.650644693675137
-20.654612039368278
-23.58434424353399
-22.90074006256199
-26.90470740825513
-29.834439612420844
-33.93606469825284
-37.74471656366827
-36.86579690241855
-40.86976424811169
-43.79949645227741
-43.11589227130541
-47.11985961699855
-49.951934081025406
-53.17463950560769
-56.20202944991226
-55.51842526894026
-58.54581521324483
-60.694285496299685
-60.2059967956054
-62.15915159838254
-63.6240177004654
-65.18654154268711
-66.74906538490883
-66.3584344243534
-68.31158922713054
-69.77645532921339
-69.48348210879682
-70.4600595101854
-71.1436636911574
-71.92492561226825
-72.70618753337911
-72.5108720531014
-72.5108720531014
-72.5108720531014
-72.41321431296254
-68.60456244754711
-65.57717250324254
-59.62005035477226
-54.24887464713512
-55.420767528801406
-41.74868390936141
-31.396963454642556
-33.64309147783627
-13.13496604867628
2.2949568932631417
21.728847180895706
40.38147554741741
36.182192721446555
60.987258716716255
79.3469138628214
75.2452887769894
97.12062256809338
113.2341496910048
121.04676890211337
130.71488517586022
128.4687571526665
131.78912031738764
133.83993286030366
133.35164415960938
129.6406500343328
126.61326009002823
123.39055466544595
120.26550698100252
120.85145342183566
115.9685664148928
112.25757228961623
113.03883421072709
109.91378652628366
107.66765850308995
105.32387273975738
102.88242923628596
103.37071793698024
99.46440833142596
96.43701838712138
97.12062256809338
87.35484855420768
79.93286030365454
69.0928511482414
59.13176165407798
61.28023193713283
49.365987640192266
40.479133287556266
42.43228809033341
31.494621194781413
23.389028763256274
16.650644693675137
9.521629663538567
11.08415350576028
4.052796215762569
-0.9277485313191425
0.04882887006942855
-4.834058136873426
-8.44739452201114
-12.45136186770428
-16.357671473258563
-15.47875181200885
-19.48271915770199
-22.412451361867703
-21.728847180895706
-25.732814526588847
-28.66254673075456
-31.787594415197987
-34.91264209964141
-34.22903791866941
-38.1353475242237
-41.065079728389414
-40.38147554741741
-44.38544289311055
-47.31517509727627
-51.416800183108265
-55.22545204852369
-54.346532387273975
-59.32707713435569
-62.9404135194934
-62.15915159838254
-66.06546120393683
-68.99519340810254
-72.12024109254597
-75.2452887769894
-74.5616845960174
-78.46799420157168
-81.39772640573739
-80.71412222476539
-84.62043183031967
-87.55016403448539
-89.7962920576791
-92.14007782101167
-91.55413138017853
-93.50728618295567
-94.97215228503853
-94.5815213244831
-97.51125352864881
-99.65972381170367
-100.14801251239795
-100.92927443350881
-100.7339589532311
-101.71053635461966
-102.39414053559167
-102.19882505531396
-103.17540245670253
-103.85900663767453
-103.66369115739681
-103.66369115739681
-103.66369115739681
-99.75738155184253
-96.72999160753795
-97.41359578850995
-88.62439917601282
-81.98367284657053
-68.11627374685283
-55.90905622949569
-58.643472953383686
-36.96345464255741
-20.752269779507134
-24.365606164644845
1.2207217517357138
20.263981078812847
40.86976424811169
61.08491645685512
56.59266041046769
78.56565194171054
94.67917906462196
91.06584267948425
107.08171206225681
118.80064087891967
123.78118562600137
130.22659647516593
128.76173037308308
130.03128099488822
130.61722743572136
130.42191195544365
126.61326009002823
123.58587014572366
117.53109025711451
112.15991454947738
113.33180743114366
103.4683756771191
96.04638742656596
97.70656900892652
86.76890211337454
78.6633096818494
68.01861600671397
57.95986877241169
60.108339055466544
47.21751735713741
37.64705882352941
39.79552910658427
27.881284809643702
18.994430457007706
10.498207064927138
1.9043259327077133
3.7598229953459983
-5.127031357289998
-11.767757686732281
-10.302891584649425
-16.357671473258563
-20.654612039368278
-24.4632639047837
-28.369573510337986
-27.49065384908827
-31.494621194781413
-34.424353398947126
-33.74074921797513
-36.768139162279695
-39.014267185473415
-40.38147554741741
-41.943999389639124
-41.5533684290837
-44.48310063324941
-46.72922865644312
-46.240939955748836
-49.17067215991455
-51.31914244296941
-53.760585946440834
-56.006713969634546
-55.51842526894026
-58.44815747310597
-60.59662775616083
-60.108339055466544
-64.01464866102083
-66.94438086518655
-69.19050888838025
-71.53429465171283
-70.94834821087969
-73.87808041504539
-76.12420843823911
-75.53826199740597
-77.58907454032196
-79.05394064240483
-81.49538414587624
-83.83916990920882
-83.25322346837568
-85.30403601129167
-86.67124437323568
-86.37827115281911
-87.35484855420768
-88.03845273517967
-89.7962920576791
-91.26115815976196
-90.87052719920653
-90.96818493934539
-90.87052719920653
-90.87052719920653
-91.74944686045625
-92.5307087815671
-91.35881589990082
-90.57755397878996
-90.77286945906768
-87.84313725490196
-85.59700923170824
-86.08529793240254
-79.24925612268254
-73.97573815518425
-64.60059510185397
-56.20202944991226
-58.057526512550545
-45.16670481422141
-35.596246280613414
-37.74471656366827
-21.045242999923705
-8.545052262149996
9.619287403677424
26.61173418783856
22.803082322423133
43.70183871213855
59.03410391393912
55.61608300907912
73.58510719462882
86.76890211337454
96.14404516670481
106.49576562142367
104.1519798580911
111.28099488822767
116.35919737544823
115.18730449378195
114.4060425726711
113.62478065156023
105.12855725947966
98.39017318989853
99.85503929198138
89.01503013656824
80.9094377050431
82.66727702754254
70.75303273060197
61.86617837796597
52.39337758449683
43.018234531166556
45.069047074082555
33.15480277714199
24.365606164644845
26.318760967421987
16.260013733119706
8.935683222705425
2.9785610742351416
-3.2715342946517127
-1.8066681925688564
-6.884870679789426
-10.595864805065995
-9.71694514381628
-13.720912489509422
-16.650644693675137
-17.920195315480278
-19.58037689784085
-19.18974593728542
-21.14290074006256
-22.60776684214542
-22.314793621728846
-23.291371023117417
-24.072632944228275
-24.853894865339132
-25.63515678644999
-25.439841306172273
-27.392996108949415
-28.857862211032273
-28.467231250476843
-30.420386053253985
-31.885252155336843
-33.44777599755856
-35.010299839780274
-34.717326619363696
-36.67048142214084
-38.1353475242237
-37.74471656366827
-40.67444876783398
-42.92057679102769
-44.28778515297169
-45.85030899519341
-45.55733577477684
-48.48706797894255
-50.635538261997404
-50.14724956130312
-52.10040436408026
-53.56527046616312
-55.127794308384836
-56.690318150606544
-56.29968719005112
-58.25284199282826
-59.71770809491112
-59.42473487449455
-60.401312275883114
-61.08491645685512
-61.86617837796597
-62.64744029907683
-62.45212481879911
-62.45212481879911
-62.45212481879911
-62.45212481879911
-62.35446707866026
-62.35446707866026
-62.35446707866026
-62.35446707866026
-62.35446707866026
-61.37788967727169
-60.59662775616083
-60.694285496299685
-56.88563363088426
-53.85824368657969
-46.92454413672083
-40.772106507972836
-42.13931486991684
-28.467231250476843
-18.11551079575799
-20.361638818951704
0.04882887006942855
15.576409552147707
35.010299839780274
53.56527046616312
49.46364538033112
74.17105363546197
92.5307087815671
88.4290836957351
110.3044174868391
126.41794460975052
138.0392156862745
150.73472190432594
147.90264744029906
156.9848172732128
163.5278858625162
162.06301976043335
163.23491264209963
163.82085908293277
160.7934691386282
158.5473411154345
159.0356298161288
151.22301060502022
145.26588845654993
146.53543907835507
136.57434958419165
129.25001907377737
119.3865873197528
110.01144426642253
112.06225680933852
99.17143511100939
89.60097657740138
91.65178912031739
77.78439002059967
67.53032730601969
58.25284199282826
48.877698939497975
50.928511482413974
40.86976424811169
33.545433737697415
35.20561532005799
26.22110322728313
19.58037689784085
15.381094071869994
10.595864805065995
11.572442206454566
6.591897459372854
2.9785610742351416
3.7598229953459983
0.7324330510414282
-1.416037232013428
-3.7598229953459983
-6.103608758678568
-5.615320057984283
-8.545052262149996
-10.79118028534371
-10.302891584649425
-13.232623788815136
-15.381094071869994
-17.82253757534142
-20.16632333867399
-19.58037689784085
-22.60776684214542
-24.756237125200276
-24.267948424505988
-28.174258030060273
-31.103990234225986
-34.32669565880827
-37.35408560311284
-36.67048142214084
-39.69787136644541
-41.84634164950027
-41.358052948805984
-45.26436255436027
-48.19409475852598
-50.44022278171969
-52.78400854505226
-52.19806210421912
-54.24887464713512
-55.713740749217976
-55.32310978866255
-58.25284199282826
-60.401312275883114
-60.8896009765774
-61.768520637827116
-61.475547417410546
-63.42870222018769
-64.89356832227054
-64.60059510185397
-65.57717250324254
-66.26077668421455
-69.87411306935225
-72.90150301365682
-72.21789883268482
-76.12420843823911
-79.05394064240483
-78.37033646143283
-78.46799420157168
-78.46799420157168
-68.89753566796368
-61.475547417410546
-63.03807125963226
-43.604180971999696
-28.760204470893417
-32.08056763561456
-3.662165255207141
17.627222095063708
45.362020294499125
71.63195239185168
65.77248798352025
96.6323338673991
119.28892957961395
114.21072709239338
136.37903410391394
152.3949034866865
159.2309452964065
168.21545738918135
166.16464484626536
171.34050507362477
174.85618371862364
173.97726405737393
173.19600213626308
172.31708247501336
167.6295109483482
163.91851682307163
164.6997787441825
156.78950179293508
150.8323796444648
152.10193026626993
141.2619211108568
133.0586709391928
123.39055466544595
114.01541161211567
116.06622415503166
102.19882505531396
91.94476234073396
94.19089036392768
80.2258335240711
69.9717708094911
59.815365835049974
49.658960860608836
51.90508888380255
39.893186846723125
31.103990234225986
33.05714503700313
23.974975204089418
17.43190661478599
11.181811245899137
4.931715877012284
6.298924238956283
0.34180209048599985
-3.9551384756237127
-2.9785610742351416
-8.05676356145571
-11.670099946593423
-14.697489890897993
-17.82253757534142
-17.13893339436942
-21.045242999923705
-23.974975204089418
-23.389028763256274
-26.318760967421987
-28.564888990615703
-31.885252155336843
-34.91264209964141
-34.22903791866941
-38.23300526436255
-41.16273746852827
-40.479133287556266
-44.38544289311055
-47.31517509727627
-50.44022278171969
-53.56527046616312
-52.881666285191116
-56.7879758907454
-59.71770809491112
-59.03410391393912
-63.03807125963226
-65.96780346379796
-68.11627374685283
-70.4600595101854
-69.9717708094911
-72.90150301365682
-75.04997329671168
-74.5616845960174
-76.51483939879454
-77.97970550087739
-79.54222934309911
-81.10475318532082
-80.71412222476539
-82.66727702754254
-84.13214312962539
-83.74151216906996
-84.71808957045853
-85.49935149156939
-86.1829556725414
-86.96421759365225
-86.76890211337454
-86.76890211337454
-86.76890211337454
-86.76890211337454
-86.67124437323568
-86.67124437323568
-81.88601510643167
-78.17502098115511
-78.95628290226597
-70.16708628976883
-63.42870222018769
-64.89356832227054
-49.26832990005341
-37.4517433432517
-19.092088197146563
-2.197299153124285
-5.908293278400855
19.678034637979707
38.72129396505684
34.52201113908598
60.2059967956054
79.3469138628214
97.02296482795452
114.99198901350424
110.9880216678111
126.12497138933395
137.06263828488594
134.62119478141452
143.70336461432822
150.1487754634928
150.53940642404822
152.3949034866865
151.90661478599222
148.0979629205768
145.07057297627222
145.65651941710536
138.82047760738536
133.64461738002595
126.12497138933395
119.19127183947509
120.65613794155794
108.83955138475623
99.95269703212024
101.90585183489738
89.01503013656824
79.44457160296025
68.11627374685283
57.27626459143969
59.62005035477226
46.72922865644312
37.15877012283513
39.20958266575113
26.318760967421987
16.84596017395285
9.326314183260854
1.513694972152285
3.2715342946517127
-5.615320057984283
-12.256046387426567
-10.79118028534371
-17.82253757534142
-22.90074006256199
-26.514076447699704
-30.518043793392845
-29.63912413214313
-34.52201113908598
-38.23300526436255
-37.35408560311284
-40.38147554741741
-42.62760357061112
-45.947966735332265
-48.97535667963683
-48.291752498664835
-52.19806210421912
-55.127794308384836
-54.54184786755169
-57.471580071717405
-59.62005035477226
-62.9404135194934
-66.06546120393683
-65.28419928282597
-69.28816662851911
-72.21789883268482
-71.53429465171283
-74.46402685587854
-76.71015487907225
-80.03051804379339
-83.05790798809797
-82.37430380712597
-85.30403601129167
-87.45250629434653
-86.96421759365225
-88.91737239642939
-90.38223849851225
-94.77683680476082
-98.58548867017625
-97.70656900892652
-104.54261081864652
-109.62081330586709
-108.44892042420081
-115.38261997405966
-120.46082246128023
-122.21866178377967
-124.66010528725108
-123.97650110627909
-123.19523918516823
-122.31631952391852
-122.51163500419624
-119.58190280003052
-117.23811703669794
-111.08567940794995
-105.7145037003128
-106.8863965819791
-97.02296482795452
-89.60097657740138
-91.26115815976196
-79.3469138628214
-70.55771725032426
-59.13176165407798
-48.291752498664835
-50.635538261997404
-30.029755092698558
-14.599832150759136
-18.017853055619135
4.638742656595713
21.533531700617992
40.67444876783398
59.32707713435569
55.22545204852369
74.26871137560083
88.13611047531853
85.0110627908751
98.09719996948196
107.5700007629511
110.10910200656139
114.30838483253224
113.33180743114366
112.5505455100328
111.76928358892195
111.86694132906081
106.98405432211796
103.27306019684139
94.48386358434425
86.8665598535134
88.52674143587396
77.68673228046082
69.58113984893568
71.33897917143511
59.42473487449455
50.635538261997404
40.08850232700084
30.029755092698558
32.27588311589227
20.263981078812847
11.47478446631571
13.427939269092851
2.490272373540856
-5.517662317845426
-11.279468986037996
-17.627222095063708
-16.260013733119706
-22.314793621728846
-26.61173418783856
-25.63515678644999
-29.736781872281988
-32.56885633630884
-34.81498435950255
-37.15877012283513
-36.67048142214084
-37.74471656366827
-38.42832074464027
-38.23300526436255
-40.186160067139696
-41.651026169222554
-42.236972610055695
-43.018234531166556
-42.822919050888835
-44.77607385366598
-46.240939955748836
-45.947966735332265
-47.90112153810941
-49.365987640192266
-50.928511482413974
-52.39337758449683
-52.10040436408026
-55.03013656824598
-57.178606851300835
-56.690318150606544
-58.643472953383686
-60.108339055466544
-61.67086289768826
-63.233386739909974
-62.84275577935454
-64.79591058213168
-66.26077668421455
-65.96780346379796
-67.92095826657511
-69.38582436865796
-70.94834821087969
-72.41321431296254
-72.02258335240711
-73.09681849393453
-73.78042267490653
-73.58510719462882
-74.5616845960174
-75.2452887769894
-75.04997329671168
-75.04997329671168
-75.04997329671168
-76.02655069810025
-76.71015487907225
-76.51483939879454
-76.51483939879454
-76.51483939879454
-75.53826199740597
-74.75700007629511
-74.95231555657283
-71.04600595101854
-68.01861600671397
-68.70222018768597
-60.8896009765774
-54.932478828107115
-43.79949645227741
-33.838406958113985
-36.0845349813077
-16.45532921339742
-1.7090104524299992
-5.0293736171511405
17.627222095063708
34.52201113908598
53.66292820630198
72.31555657282368
68.11627374685283
88.13611047531853
102.68711375600824
99.46440833142596
113.52712291142137
123.68352788586252
127.10154879072252
132.08209353780424
130.91020065613793
131.10551613641564
131.0078583962768
131.0078583962768
126.12497138933395
122.41397726405738
114.60135805294881
107.66765850308995
109.23018234531166
98.29251544975968
90.18692301823454
91.94476234073396
80.03051804379339
71.24132143129626
61.67086289768826
52.295719844357976
54.44419012741283
42.43228809033341
33.64309147783627
35.596246280613414
25.63515678644999
18.21316853589685
13.232623788815136
7.666132600900283
8.838025482566568
2.8809033340962844
-1.416037232013428
-0.43945983062485694
-4.541084916456855
-7.373159380483711
-8.642710002288853
-10.302891584649425
-9.912260624093996
-11.963073167009995
-13.427939269092851
-13.037308308537423
-14.990463111314565
-16.45532921339742
-17.13893339436942
-17.920195315480278
-17.724879835202564
-19.678034637979707
-21.14290074006256
-20.84992751964599
-22.803082322423133
-24.267948424505988
-25.830472266727703
-27.392996108949415
-27.002365148393988
-29.9320973525597
-32.178225375753414
-31.68993667505913
-34.61966887922484
-36.86579690241855
-42.04165712977798
-46.63157091630426
-45.55733577477684
-54.346532387273975
-60.987258716716255
-59.522392614633404
-67.43266956588083
-73.29213397421225
-75.73357747768368
-79.05394064240483
-78.27267872129397
-79.3469138628214
-80.03051804379339
-79.83520256351568
-76.02655069810025
-72.99916075379568
-67.92095826657511
-63.33104448004883
-64.3076218814374
-58.350499732967116
-53.95590142671855
-54.932478828107115
-51.80743114366369
-49.56130312046998
-50.04959182116426
-49.951934081025406
-49.951934081025406
-48.97535667963683
-48.19409475852598
-48.38941023880369
-44.48310063324941
-41.5533684290837
-33.545433737697415
-26.709391927977418
-28.27191577019913
-12.646677347981994
-0.8300907911802854
-3.466849774929427
18.017853055619135
34.22903791866941
54.54184786755169
73.87808041504539
69.48348210879682
95.2651255054551
114.30838483253224
110.10910200656139
131.0078583962768
146.34012359807735
157.1801327534905
169.09437705043106
166.35996032654307
174.56321049820707
180.32501716639965
178.95780880445562
181.1062790875105
182.4734874494545
179.2507820248722
177.0046540016785
177.39528496223392
169.6803234912642
163.62554360265506
164.89509422446022
156.00823987182423
149.36751354238194
139.30876630807964
130.03128099488822
131.98443579766536
118.11703669794767
107.86297398336767
110.10910200656139
97.12062256809338
87.55016403448539
77.19844357976653
67.13969634546426
69.28816662851911
57.37392233157855
48.48706797894255
50.44022278171969
40.479133287556266
33.15480277714199
27.100022888532845
20.752269779507134
22.21713588158999
16.16235599298085
11.767757686732281
12.74433508812085
7.763790341039139
4.052796215762569
1.0254062714579995
-2.0019836728465705
-1.3183794918745708
-5.224689097428855
-8.252079041733426
-7.568474860761425
-11.47478446631571
-14.404516670481422
-17.627222095063708
-20.752269779507134
-20.068665598535134
-23.974975204089418
-26.90470740825513
-26.22110322728313
-30.22507057297627
-33.15480277714199
-36.27985046158541
-39.40489814602884
-38.72129396505684
-42.62760357061112
-45.55733577477684
-44.873731593804834
-48.877698939497975
-51.80743114366369
-53.95590142671855
-56.29968719005112
-55.81139848935683
-58.74113069352254
-60.8896009765774
-60.401312275883114
-63.42870222018769
-65.57717250324254
-66.94438086518655
-68.50690470740825
-68.11627374685283
-71.04600595101854
-73.29213397421225
-72.80384527351796
-73.78042267490653
-74.46402685587854
-76.22186617837797
-77.68673228046082
-77.39375906004425
-77.39375906004425
-77.39375906004425
-77.29610131990539
-73.48744945448996
-70.4600595101854
-62.54978255893797
-55.713740749217976
-57.178606851300835
-40.57679102769512
-28.076600289921416
-30.811017013809415
-9.228656443121995
6.884870679789426
28.076600289921416
48.19409475852598
43.70183871213855
68.60456244754711
86.8665598535134
82.7649347676814
103.76134889753567
119.09361409933624
129.93362325474936
141.84786755168994
139.11345082780193
147.31670099946592
153.0785076676585
151.7112993057145
152.88319218738079
153.56679636835278
150.53940642404822
148.29327840085452
148.68390936140995
141.84786755168994
136.6720073243305
137.74624246585793
127.88281071183337
120.46082246128023
110.59739070725567
101.31990539406424
103.37071793698024
91.35881589990082
82.56961928740368
84.52277409018082
70.65537499046312
60.30365453574426
51.123826962691695
41.74868390936141
43.79949645227741
31.885252155336843
23.096055542839704
25.049210345616846
14.990463111314565
7.666132600900283
2.5879301136797133
-2.8809033340962844
-1.6113527122911422
-7.568474860761425
-11.963073167009995
-10.986495765621424
-15.967040512703136
-19.678034637979707
-22.705424582284277
-25.830472266727703
-25.146868085755703
-29.053177691309987
-31.9829098954757
-31.2993057145037
-34.32669565880827
-36.475165941863125
-41.74868390936141
-46.33859769588769
-45.26436255436027
-54.053559166857404
-60.694285496299685
-59.22941939421683
-68.11627374685283
-74.65934233615626
-78.95628290226597
-83.6438544289311
-82.56961928740368
-84.71808957045853
-86.08529793240254
-85.79232471198596
-85.79232471198596
-85.79232471198596
-81.88601510643167
-78.95628290226597
-79.54222934309911
-76.51483939879454
-74.26871137560083
-74.75700007629511
-73.68276493476768
-72.90150301365682
-75.9288929579614
-78.07736324101626
-77.58907454032196
-79.63988708323797
-81.00709544518196
-80.71412222476539
-81.69069962615396
-82.37430380712597
-84.13214312962539
-85.59700923170824
-85.20637827115281
-85.30403601129167
-85.20637827115281
-85.20637827115281
-83.25322346837568
-81.78835736629281
-77.29610131990539
-73.48744945448996
-74.26871137560083
-62.64744029907683
-53.760585946440834
-55.713740749217976
-38.03768978408484
-24.756237125200276
-5.810635538261997
11.865415426871138
7.959105821316854
31.68993667505913
49.365987640192266
45.362020294499125
68.21393148699168
85.10872053101396
98.48783093003739
112.64820325017166
109.42549782558937
119.67956054016938
126.9062333104448
125.24605172808423
129.34767681391622
132.27740901808195
129.6406500343328
128.2734416723888
128.56641489280537
121.73037308308537
116.55451285572595
117.62874799725337
107.76531624322881
100.34332799267567
90.57755397878996
81.20241092545967
83.25322346837568
70.36240177004655
60.79194323643854
62.9404135194934
49.073014419775696
38.72129396505684
28.564888990615703
18.40848401617456
20.654612039368278
8.74036774242771
0.04882887006942855
1.9043259327077133
-8.05676356145571
-15.381094071869994
-21.338216220340275
-27.68596932936599
-26.22110322728313
-32.27588311589227
-36.67048142214084
-35.69390402075227
-39.69787136644541
-42.62760357061112
-44.77607385366598
-47.11985961699855
-46.63157091630426
-49.56130312046998
-51.709773403524835
-51.22148470283055
-53.27229724574655
-54.7371633478294
-56.29968719005112
-57.764553292133975
-57.471580071717405
-60.401312275883114
-62.54978255893797
-62.061493858243686
-64.9912260624094
-67.13969634546426
-69.58113984893568
-71.8272678721294
-71.33897917143511
-74.26871137560083
-76.41718165865568
-75.9288929579614
-78.85862516212711
-81.10475318532082
-83.4485389486534
-85.6946669718471
-85.20637827115281
-88.13611047531853
-90.2845807583734
-89.7962920576791
-91.74944686045625
-93.2143129625391
-94.77683680476082
-96.24170290684367
-95.9487296864271
-97.90188448920424
-99.26909285114824
-98.97611963073167
-99.95269703212024
-100.63630121309224
-100.44098573281453
-100.44098573281453
-100.44098573281453
-98.48783093003739
-96.92530708781567
-97.21828030823224
-91.45647364003968
-86.96421759365225
-75.53826199740597
-65.57717250324254
-67.7256427862974
-50.04959182116426
-36.768139162279695
-39.69787136644541
-18.11551079575799
-1.9043259327077133
16.357671473258563
34.22903791866941
30.322728313115128
50.24490730144198
64.89356832227054
61.5732051575494
76.61249713893339
87.55016403448539
92.72602426184481
99.17143511100939
97.70656900892652
98.97611963073167
99.65972381170367
99.46440833142596
94.67917906462196
90.96818493934539
84.13214312962539
77.97970550087739
79.24925612268254
68.4092469672694
60.30365453574426
62.061493858243686
50.24490730144198
41.358052948805984
30.908674753948272
20.84992751964599
23.096055542839704
11.08415350576028
2.2949568932631417
4.248111696040284
-5.615320057984283
-12.939650568398566
-18.994430457007706
-25.24452582589456
-23.87731746395056
-29.9320973525597
-34.22903791866941
-33.252460517280845
-36.37750820172427
-38.525978484779124
-39.893186846723125
-41.5533684290837
-41.16273746852827
-42.13931486991684
-42.92057679102769
-42.72526131074998
-42.72526131074998
-42.72526131074998
-47.51049057755398
-51.123826962691695
-50.34256504158083
-57.178606851300835
-62.35446707866026
-61.182574196993976
-68.01861600671397
-73.19447623407339
-75.83123521782254
-79.05394064240483
-78.27267872129397
-79.3469138628214
-80.03051804379339
-79.93286030365454
-77.97970550087739
-76.51483939879454
-71.04600595101854
-66.45609216449226
-67.53032730601969
-62.45212481879911
-58.74113069352254
-59.62005035477226
-58.44815747310597
-57.66689555199512
-59.71770809491112
-61.182574196993976
-60.8896009765774
-61.86617837796597
-62.54978255893797
-62.35446707866026
-63.33104448004883
-64.01464866102083
-64.79591058213168
-65.57717250324254
-65.38185702296482
-65.38185702296482
-65.38185702296482
-65.38185702296482
-65.38185702296482
-65.28419928282597
-65.28419928282597
-65.28419928282597
-65.28419928282597
-65.28419928282597
-65.18654154268711
-65.18654154268711
-64.20996414129854
-63.42870222018769
-63.6240177004654
-63.526359960326545
-63.526359960326545
-61.5732051575494
-60.108339055466544
-60.401312275883114
-57.471580071717405
-55.22545204852369
-47.11985961699855
-40.28381780727855
-41.84634164950027
-28.076600289921416
-17.724879835202564
-20.068665598535134
0.43945983062485694
15.869382772564279
36.27985046158541
55.61608300907912
51.31914244296941
76.12420843823911
94.48386358434425
90.38223849851225
111.28099488822767
126.61326009002823
137.55092698558022
149.36751354238194
146.63309681849393
153.85976958876935
158.93797207598993
157.76607919432365
157.96139467460137
157.8637369344625
152.98084992751964
149.2698558022431
150.05111772335394
141.2619211108568
134.52353704127566
135.9884031433585
124.1718165865568
115.28496223392081
105.7145037003128
96.33936064698253
98.39017318989853
85.49935149156939
75.9288929579614
77.97970550087739
66.06546120393683
57.27626459143969
48.68238345922026
40.08850232700084
41.943999389639124
32.95948729686427
26.318760967421987
27.783627069504846
21.728847180895706
17.334248874647134
13.525597009231708
9.619287403677424
10.498207064927138
7.373159380483711
5.224689097428855
5.71297779812314
2.68558785381857
0.537117570763714
0.04882887006942855
-0.7324330510414282
-0.537117570763714
-2.490272373540856
-3.9551384756237127
-3.662165255207141
-5.615320057984283
-7.080186160067139
-9.619287403677424
-11.865415426871138
-11.377126726176853
-14.404516670481422
-16.55298695353628
-16.064698252841993
-18.994430457007706
-21.24055848020142
-23.58434424353399
-25.92813000686656
-25.439841306172273
-29.346150911726557
-32.27588311589227
-31.592278934920273
-34.61966887922484
-36.768139162279695
-39.11192492561227
-41.45571068894484
-40.96742198825055
-43.89715419241627
-46.04562447547112
-45.55733577477684
-47.60814831769284
-49.073014419775696
-50.635538261997404
-52.10040436408026
-51.80743114366369
-52.78400854505226
-53.467612726024264
-53.36995498588541
-55.22545204852369
-56.690318150606544
-56.39734493018997
-56.39734493018997
-56.39734493018997
-57.37392233157855
-58.057526512550545
-57.86221103227283
-56.006713969634546
-54.44419012741283
-49.073014419775696
-44.48310063324941
-45.45967803463798
-34.717326619363696
-26.61173418783856
-28.467231250476843
-10.79118028534371
2.392614633401999
21.338216220340275
39.11192492561227
35.10795757991913
60.79194323643854
79.93286030365454
75.63591973754482
99.46440833142596
117.04280155642023
132.1797512779431
147.90264744029906
144.28931105516136
156.4965285725185
165.1880674448768
163.23491264209963
168.41077286945907
171.9264515144579
169.19203479056992
167.82482642862593
168.02014190890364
162.1606775005722
157.6684214541848
158.64499885557336
148.87922484168766
141.35957885099566
130.61722743572136
120.55848020141909
122.70695048447395
107.86297398336767
96.82764934767681
99.26909285114824
84.3274586099031
73.29213397421225
58.54581521324483
44.580758373388264
47.705806057831694
27.881284809643702
13.13496604867628
16.45532921339742
0.43945983062485694
-11.181811245899137
-19.092088197146563
-27.881284809643702
-25.92813000686656
-32.08056763561456
-36.37750820172427
-35.4009308003357
-36.57282368200198
-37.256427862973986
-33.252460517280845
-30.322728313115128
-30.908674753948272
-27.97894254978256
-25.732814526588847
-26.22110322728313
-25.146868085755703
-24.4632639047837
-27.392996108949415
-29.63912413214313
-29.150835431448844
-32.08056763561456
-34.22903791866941
-33.74074921797513
-36.768139162279695
-38.91660944533455
-41.26039520866713
-43.604180971999696
-43.11589227130541
-47.0222018768597
-49.951934081025406
-49.26832990005341
-52.295719844357976
-54.44419012741283
-56.7879758907454
-59.13176165407798
-58.54581521324483
-61.5732051575494
-63.72167544060426
-63.233386739909974
-65.18654154268711
-66.65140764476998
-68.21393148699168
-69.77645532921339
-69.38582436865796
-70.36240177004655
-71.04600595101854
-70.94834821087969
-71.92492561226825
-72.60852979324025
-73.3897917143511
-74.07339589532312
-73.87808041504539
-74.85465781643397
-75.63591973754482
-75.44060425726711
-74.46402685587854
-73.68276493476768
-71.92492561226825
-70.36240177004655
-70.65537499046312
-64.89356832227054
-60.401312275883114
-61.37788967727169
-49.658960860608836
-40.772106507972836
-24.65857938506142
-10.10757610437171
-13.330281528953995
11.181811245899137
29.63912413214313
25.537499046311133
53.07698176546884
73.68276493476768
93.8979171435111
114.21072709239338
109.62081330586709
131.59380483710993
147.70733196002135
144.09399557488365
158.15671015487908
168.41077286945907
172.7077134355688
178.37186236362248
177.10231174181735
177.29762722209506
177.1999694819562
177.10231174181735
174.17257953765164
171.9264515144579
164.6997787441825
158.64499885557336
159.9145494773785
150.93003738460365
144.28931105516136
145.75417715724421
133.93759060044252
125.05073624780651
114.50370031280995
104.44495307850767
106.59342336156253
92.72602426184481
82.37430380712597
84.62043183031967
70.75303273060197
60.49897001602197
51.22148470283055
41.84634164950027
43.89715419241627
31.9829098954757
23.19371328297856
25.146868085755703
16.064698252841993
9.521629663538567
4.248111696040284
-1.1230640115968566
0.04882887006942855
-5.908293278400855
-10.302891584649425
-9.326314183260854
-14.306858930342566
-18.017853055619135
-21.045242999923705
-24.17029068436713
-23.389028763256274
-27.392996108949415
-30.322728313115128
-29.63912413214313
-33.64309147783627
-36.57282368200198
-39.69787136644541
-42.822919050888835
-42.13931486991684
-46.04562447547112
-48.97535667963683
-48.291752498664835
-52.295719844357976
-55.22545204852369
-58.350499732967116
-61.475547417410546
-60.694285496299685
-63.72167544060426
-65.8701457236591
-65.38185702296482
-68.31158922713054
-70.55771725032426
-72.90150301365682
-75.14763103685054
-74.65934233615626
-77.58907454032196
-79.73754482337682
-79.24925612268254
-81.30006866559853
-82.66727702754254
-83.25322346837568
-84.03448538948653
-83.83916990920882
-84.81574731059739
-85.49935149156939
-85.40169375143053
-85.40169375143053
-85.30403601129167
-83.35088120851454
-81.88601510643167
-82.17898832684826
-75.44060425726711
-70.16708628976883
-71.33897917143511
-57.66689555199512
-47.31517509727627
-30.518043793392845
-15.185778591592278
-18.60379949645228
6.005951018539712
24.365606164644845
20.263981078812847
46.04562447547112
65.08888380254825
83.74151216906996
102.49179827573053
98.29251544975968
117.3357747768368
131.2031738765545
128.07812619211109
139.21110856794078
147.1213855191882
149.17219806210423
152.49256122682536
151.7112993057145
151.80895704585336
151.7112993057145
151.7112993057145
146.82841229877164
143.11741817349508
133.35164415960938
124.95307850766766
126.80857557030595
109.1325246051728
95.85107194628824
98.78080415045396
80.9094377050431
67.62798504615854
55.32310978866255
42.72526131074998
45.55733577477684
33.44777599755856
24.65857938506142
26.61173418783856
18.506141756313422
12.646677347981994
11.08415350576028
8.545052262149996
9.130998702983138
7.080186160067139
5.615320057984283
5.908293278400855
2.0996414129854277
-0.8300907911802854
-6.787212939650568
-12.158388647287708
-10.986495765621424
-15.967040512703136
-19.678034637979707
-18.799114976729992
-22.803082322423133
-25.732814526588847
-28.95551995117113
-31.9829098954757
-31.2993057145037
-35.303273060196844
-38.23300526436255
-37.549401083390556
-41.45571068894484
-44.38544289311055
-47.60814831769284
-50.635538261997404
-49.951934081025406
-53.95590142671855
-56.88563363088426
-56.20202944991226
-60.108339055466544
-63.03807125963226
-65.18654154268711
-67.62798504615854
-67.0420386053254
-70.94834821087969
-73.87808041504539
-73.19447623407339
-76.22186617837797
-78.37033646143283
-80.71412222476539
-83.05790798809797
-82.47196154726483
-84.42511635004196
-85.88998245212481
-85.59700923170824
-87.55016403448539
-88.91737239642939
-89.50331883726253
-90.38223849851225
-90.08926527809568
-92.04242008087282
-93.50728618295567
-93.11665522240024
-93.2143129625391
-93.11665522240024
-93.11665522240024
-93.11665522240024
-93.01899748226138
-91.06584267948425
-89.60097657740138
-89.89394979781795
-84.03448538948653
-79.63988708323797
-68.11627374685283
-58.25284199282826
-60.401312275883114
-40.86976424811169
-26.123445487144274
-29.346150911726557
-3.7598229953459983
15.283436331731137
38.72129396505684
61.182574196993976
56.1043717097734
82.96025024795911
102.7847714961471
98.39017318989853
119.3865873197528
134.71885252155337
144.58228427557793
155.71526665140763
153.17616540779736
159.42626077668422
163.7232013427939
162.6489662012665
162.8442816815442
162.74662394140535
158.84031433585108
155.91058213168535
156.4965285725185
149.56282902265966
144.38696879530022
145.46120393682764
135.59777218280308
128.2734416723888
118.41000991836424
109.03486686503395
111.08567940794995
98.19485770962082
88.62439917601282
90.67521171892882
76.8078126192111
66.55374990463112
56.39734493018997
46.14328221560998
48.38941023880369
36.475165941863125
27.68596932936599
29.541466392004274
19.58037689784085
12.256046387426567
5.322346837567712
-1.6113527122911422
-0.04882887006942855
-6.201266498817426
-10.498207064927138
-9.521629663538567
-14.50217441062028
-18.21316853589685
-22.119478141451133
-26.025787747005417
-25.146868085755703
-29.150835431448844
-32.08056763561456
-31.396963454642556
-35.4009308003357
-38.33066300450141
-41.45571068894484
-44.580758373388264
-43.89715419241627
-47.80346379797055
-50.73319600213626
-50.04959182116426
-54.053559166857404
-56.983291371023114
-60.108339055466544
-63.233386739909974
-62.45212481879911
-65.47951476310368
-67.62798504615854
-67.13969634546426
-71.04600595101854
-73.97573815518425
-76.12420843823911
-78.46799420157168
-77.97970550087739
-80.9094377050431
-83.05790798809797
-82.56961928740368
-85.49935149156939
-87.7454795147631
-89.1126878767071
-90.67521171892882
-90.2845807583734
-92.23773556115053
-93.70260166323338
-93.31197070267795
-95.2651255054551
-96.72999160753795
-96.33936064698253
-96.43701838712138
-96.33936064698253
-94.38620584420539
-92.92133974212253
-93.2143129625391
-86.37827115281911
-81.20241092545967
-68.99519340810254
-58.25284199282826
-60.59662775616083
-40.08850232700084
-24.560921644922562
-27.97894254978256
-3.36919203479057
14.990463111314565
34.717326619363696
54.15121690699626
49.85427634088655
