ppg
106.49576562142367
110.69504844739453
113.52712291142137
112.94117647058823
111.08567940794995
109.52315556572823
102.19882505531396
96.14404516670481
97.51125352864881
86.67124437323568
78.46799420157168
80.32349126420996
67.43266956588083
57.86221103227283
46.63157091630426
35.69390402075227
38.1353475242237
24.17029068436713
13.916227969787137
16.16235599298085
3.2715342946517127
-6.201266498817426
-14.50217441062028
-23.19371328297856
-21.24055848020142
-31.201647974364842
-38.525978484779124
-36.86579690241855
-43.018234531166556
-47.31517509727627
-51.123826962691695
-55.03013656824598
-54.15121690699626
-57.178606851300835
-59.32707713435569
-58.8387884336614
-59.91302357518883
-60.59662775616083
-61.37788967727169
-62.15915159838254
-61.96383611810483
-62.9404135194934
-63.6240177004654
-63.42870222018769
-63.42870222018769
-63.42870222018769
-64.40527962157626
-65.08888380254825
-64.89356832227054
-65.8701457236591
-66.55374990463112
-66.3584344243534
-68.31158922713054
-69.77645532921339
-70.36240177004655
-71.1436636911574
-70.94834821087969
-72.90150301365682
-74.36636911573969
-73.97573815518425
-75.9288929579614
-77.39375906004425
-77.97970550087739
-78.76096742198825
-78.56565194171054
-80.51880674448768
-81.98367284657053
-81.5930418860151
-81.69069962615396
-81.5930418860151
-82.56961928740368
-83.25322346837568
-83.05790798809797
-83.05790798809797
-83.05790798809797
-83.05790798809797
-83.05790798809797
-82.96025024795911
-82.96025024795911
-82.96025024795911
-82.86259250782025
-82.86259250782025
-82.86259250782025
-82.86259250782025
-80.9094377050431
-79.3469138628214
-76.8078126192111
-74.46402685587854
-74.95231555657283
-69.0928511482414
-64.69825284199283
-65.6748302433814
-53.95590142671855
-45.069047074082555
-30.811017013809415
-17.724879835202564
-20.654612039368278
0.04882887006942855
15.47875181200885
11.963073167009995
35.69390402075227
53.27229724574655
70.36240177004655
87.55016403448539
83.74151216906996
100.7339589532311
113.13649195086595
110.40207522697796
121.4373998626688
129.44533455405508
132.3750667582208
136.4766918440528
135.50011444266423
133.7422751201648
132.1797512779431
132.47272449835967
126.61326009002823
122.12100404364081
114.50370031280995
107.5700007629511
109.03486686503395
98.19485770962082
90.08926527809568
91.8471046005951
80.9094377050431
72.80384527351796
63.13572899977112
53.760585946440834
55.81139848935683
45.85030899519341
38.525978484779124
40.08850232700084
31.103990234225986
24.560921644922562
19.287403677424276
13.81857022964828
14.990463111314565
9.912260624093996
6.298924238956283
7.080186160067139
4.052796215762569
1.9043259327077133
-0.43945983062485694
-2.783245593957427
-2.197299153124285
-7.080186160067139
-10.79118028534371
-10.009918364232853
-17.82253757534142
-23.682001983672848
-29.053177691309987
-34.52201113908598
-33.3501182574197
-37.35408560311284
-40.28381780727855
-39.600213626306555
-40.67444876783398
-41.45571068894484
-39.307240405889985
-37.84237430380713
-38.1353475242237
-32.37354085603113
-27.881284809643702
-28.857862211032273
-24.853894865339132
-21.92416266117342
-21.63118944075685
-20.752269779507134
-20.947585259784848
-23.682001983672848
-25.92813000686656
-25.439841306172273
-28.369573510337986
-30.615701533531702
-32.95948729686427
-35.303273060196844
-34.717326619363696
-36.768139162279695
-38.23300526436255
-37.84237430380713
-39.893186846723125
-41.358052948805984
-42.92057679102769
-44.38544289311055
-44.09246967269398
-46.04562447547112
-47.51049057755398
-47.11985961699855
-49.073014419775696
-50.53788052185855
-51.22148470283055
-52.002746623941405
-51.80743114366369
-49.85427634088655
-48.38941023880369
-48.68238345922026
-43.79949645227741
-40.08850232700084
-30.420386053253985
-22.119478141451133
-23.974975204089418
-8.252079041733426
3.466849774929427
0.8300907911802854
22.412451361867703
38.62363622491798
57.95986877241169
76.51483939879454
72.41321431296254
94.28854810406654
110.40207522697796
106.78873884184024
124.66010528725108
137.8439002059968
145.3635461966888
154.15274280918592
152.10193026626993
156.3012130922408
159.13328755626765
158.44968337529565
157.6684214541848
156.78950179293508
151.22301060502022
146.63309681849393
147.6096742198825
138.7228198672465
132.08209353780424
133.44930189974824
122.6092927443351
114.50370031280995
104.8355840390631
95.46044098573282
97.51125352864881
84.62043183031967
75.04997329671168
77.10078583962768
64.20996414129854
54.639505607690545
46.240939955748836
37.549401083390556
39.5025558861677
29.541466392004274
22.21713588158999
23.779659723811704
15.771725032425422
9.912260624093996
5.517662317845426
0.7324330510414282
1.8066681925688564
-2.197299153124285
-5.0293736171511405
-4.443427176317998
-8.349736781872283
-11.279468986037996
-12.549019607843137
-14.209201190203707
-13.81857022964828
-16.748302433813993
-18.994430457007706
-18.506141756313422
-20.45929655909056
-21.92416266117342
-24.4632639047837
-26.807049668116274
-26.22110322728313
-29.2484931715877
-31.396963454642556
-30.908674753948272
-33.838406958113985
-36.0845349813077
-39.40489814602884
-42.43228809033341
-41.74868390936141
-44.77607385366598
-46.92454413672083
-46.43625543602655
-49.365987640192266
-51.61211566338598
-53.95590142671855
-56.29968719005112
-55.713740749217976
-57.764553292133975
-59.13176165407798
-58.8387884336614
-60.79194323643854
-62.2568093385214
-63.819333180743115
-65.38185702296482
-64.9912260624094
-65.96780346379796
-66.65140764476998
-66.55374990463112
-68.4092469672694
-69.87411306935225
-69.58113984893568
-69.58113984893568
-69.58113984893568
-68.60456244754711
-67.82330052643626
-67.92095826657511
-64.11230640115969
-61.08491645685512
-53.17463950560769
-46.33859769588769
-47.80346379797055
-32.178225375753414
-20.361638818951704
-22.998397802700847
-2.392614633401999
13.037308308537423
33.44777599755856
52.78400854505226
48.48706797894255
72.31555657282368
89.89394979781795
85.98764019226367
106.8863965819791
122.21866178377967
133.0586709391928
144.97291523613336
142.23849851224537
149.4651712825208
154.4457160296025
153.2738231479362
155.42229343099106
156.78950179293508
152.59021896696422
149.6604867627985
150.24643320363165
143.41039139391165
138.13687342641336
139.30876630807964
129.44533455405508
122.02334630350195
112.15991454947738
102.88242923628596
104.93324177920195
92.04242008087282
82.37430380712597
84.52277409018082
71.63195239185168
62.061493858243686
52.6863508049134
43.311207751583126
45.362020294499125
30.518043793392845
19.48271915770199
21.92416266117342
7.080186160067139
-3.8574807354848555
-13.81857022964828
-23.974975204089418
-21.728847180895706
-28.857862211032273
-33.93606469825284
-32.86182955672541
-35.98687724116884
-38.1353475242237
-36.67048142214084
-35.98687724116884
-36.182192721446555
-32.27588311589227
-29.346150911726557
-29.9320973525597
-26.025787747005417
-22.998397802700847
-23.682001983672848
-23.48668650339513
-23.58434424353399
-26.416418707560844
-28.66254673075456
-28.076600289921416
-32.08056763561456
-35.010299839780274
-38.1353475242237
-41.26039520866713
-40.479133287556266
-45.45967803463798
-49.073014419775696
-48.291752498664835
-52.295719844357976
-55.127794308384836
-57.37392233157855
-59.71770809491112
-59.13176165407798
-63.13572899977112
-66.06546120393683
-65.38185702296482
-68.31158922713054
-70.4600595101854
-71.92492561226825
-73.48744945448996
-73.09681849393453
-75.04997329671168
-76.51483939879454
-76.12420843823911
-77.19844357976653
-77.88204776073853
-78.6633096818494
-79.3469138628214
-79.15159838254368
-80.12817578393225
-80.9094377050431
-80.71412222476539
-80.71412222476539
-80.61646448462653
-79.63988708323797
-78.85862516212711
-79.05394064240483
-74.17105363546197
-70.4600595101854
-71.24132143129626
-60.59662775616083
-52.39337758449683
-38.03768978408484
-24.95155260547799
-27.881284809643702
-5.224689097428855
11.572442206454566
7.861448081177996
32.56885633630884
50.928511482413974
69.67879758907453
88.4290836957351
84.22980086976425
103.27306019684139
117.14045929655909
114.01541161211567
127.10154879072252
136.57434958419165
140.09002822919052
144.97291523613336
143.89868009460594
143.11741817349508
142.23849851224537
142.43381399252308
138.5275043869688
135.50011444266423
127.49217975127794
120.65613794155794
122.12100404364081
112.15991454947738
104.8355840390631
106.39810788128482
94.5815213244831
85.6946669718471
75.2452887769894
65.08888380254825
67.33501182574197
55.32310978866255
46.533913176165406
48.48706797894255
36.57282368200198
27.783627069504846
20.16632333867399
12.256046387426567
14.013885709925994
6.005951018539712
0.14648661020828566
1.416037232013428
-5.420004577706569
-10.595864805065995
-13.232623788815136
-16.45532921339742
-15.771725032425422
-19.678034637979707
-22.60776684214542
-22.021820401312276
-24.95155260547799
-27.1976806286717
-28.564888990615703
-30.127412832837415
-29.834439612420844
-32.764171816586554
-34.91264209964141
-34.424353398947126
-36.475165941863125
-37.84237430380713
-40.38147554741741
-42.72526131074998
-42.13931486991684
-45.16670481422141
-47.31517509727627
-46.826886396581976
-49.75661860074769
-52.002746623941405
-54.346532387273975
-56.690318150606544
-56.1043717097734
-58.1551842526894
-59.522392614633404
-59.22941939421683
-62.15915159838254
-64.3076218814374
-66.65140764476998
-68.99519340810254
-68.50690470740825
-70.4600595101854
-71.92492561226825
-71.53429465171283
-72.5108720531014
-73.29213397421225
-74.95231555657283
-76.51483939879454
-76.12420843823911
-77.10078583962768
-77.78439002059967
-77.68673228046082
-78.56565194171054
-79.3469138628214
-80.12817578393225
-80.81177996490425
-80.61646448462653
-80.61646448462653
-80.61646448462653
-80.61646448462653
-77.68673228046082
-75.44060425726711
-70.16708628976883
-65.57717250324254
-66.65140764476998
-54.932478828107115
-46.04562447547112
-47.998779278248264
-30.322728313115128
-17.041275654230564
0.9277485313191425
17.920195315480278
14.11154345006485
37.84237430380713
55.51842526894026
51.51445792324712
72.41321431296254
87.84313725490196
100.63630121309224
113.9177538719768
110.9880216678111
120.16784924086366
126.71091783016709
125.14839398794537
129.25001907377737
132.1797512779431
128.56641489280537
126.41794460975052
126.9062333104448
117.23811703669794
109.71847104600594
111.37865262836652
94.77683680476082
82.17898832684826
67.7256427862974
53.760585946440834
56.7879758907454
42.72526131074998
32.471198596169984
34.717326619363696
23.779659723811704
15.674067292286564
10.79118028534371
5.224689097428855
6.39658197909514
5.224689097428855
4.541084916456855
4.638742656595713
4.638742656595713
4.638742656595713
2.68558785381857
1.2207217517357138
1.513694972152285
-3.1738765545128556
-6.884870679789426
-6.103608758678568
-9.130998702983138
-11.279468986037996
-12.74433508812085
-14.306858930342566
-13.916227969787137
-16.84596017395285
-19.092088197146563
-18.60379949645228
-20.55695429922942
-22.021820401312276
-24.560921644922562
-26.90470740825513
-26.318760967421987
-29.346150911726557
-31.494621194781413
-31.00633249408713
-34.0337224383917
-36.182192721446555
-39.5025558861677
-42.529945830472265
-41.84634164950027
-45.85030899519341
-48.78004119935912
-48.09643701838712
-51.02616922255284
-53.27229724574655
-55.61608300907912
-57.95986877241169
-57.37392233157855
-60.401312275883114
-62.54978255893797
-62.061493858243686
-64.01464866102083
-65.47951476310368
-67.0420386053254
-68.60456244754711
-68.21393148699168
-69.19050888838025
-69.87411306935225
-69.77645532921339
-70.65537499046312
-71.43663691157397
-72.21789883268482
-72.90150301365682
-72.70618753337911
-72.80384527351796
-72.70618753337911
-72.70618753337911
-72.70618753337911
-72.70618753337911
-68.79987792782482
-65.8701457236591
-66.45609216449226
-59.62005035477226
-54.44419012741283
-55.51842526894026
-43.79949645227741
-35.010299839780274
-19.775692378118563
-5.908293278400855
-9.033340962844282
10.693522545204852
25.342183566033416
22.119478141451133
41.943999389639124
56.59266041046769
69.58113984893568
82.86259250782025
79.93286030365454
91.94476234073396
100.7339589532311
98.78080415045396
103.85900663767453
107.47234302281224
105.7145037003128
105.12855725947966
105.22621499961852
99.3667505912871
94.97215228503853
95.85107194628824
87.06187533379111
80.42114900434882
70.36240177004655
61.08491645685512
63.13572899977112
51.22148470283055
42.43228809033341
44.28778515297169
32.471198596169984
23.58434424353399
15.967040512703136
8.154421301594567
9.912260624093996
0.9277485313191425
-5.615320057984283
-4.150453955901427
-11.181811245899137
-16.260013733119706
-18.89677271686885
-22.119478141451133
-21.43587396047913
-24.4632639047837
-26.61173418783856
-26.123445487144274
-27.1976806286717
-27.881284809643702
-27.68596932936599
-27.783627069504846
-27.783627069504846
-27.68596932936599
-27.68596932936599
-27.68596932936599
-28.66254673075456
-29.443808651865414
-30.127412832837415
-30.908674753948272
-30.811017013809415
-31.787594415197987
-32.471198596169984
-32.27588311589227
-34.22903791866941
-35.69390402075227
-37.256427862973986
-38.818951705195694
-38.42832074464027
-40.479133287556266
-41.84634164950027
-41.5533684290837
-44.48310063324941
-46.63157091630426
-48.09643701838712
-49.658960860608836
-49.26832990005341
-51.22148470283055
-52.6863508049134
-52.39337758449683
-54.346532387273975
-55.81139848935683
-57.37392233157855
-58.8387884336614
-58.54581521324483
-59.522392614633404
-60.2059967956054
-60.108339055466544
-60.987258716716255
-61.768520637827116
-62.54978255893797
-63.233386739909974
-63.03807125963226
-63.13572899977112
-63.03807125963226
-63.03807125963226
-64.01464866102083
-64.69825284199283
-64.50293736171511
-64.50293736171511
-64.50293736171511
-63.526359960326545
-62.745098039215684
-62.9404135194934
-59.03410391393912
-56.1043717097734
-50.04959182116426
-44.67841611352712
-45.85030899519341
-33.15480277714199
-23.58434424353399
-25.63515678644999
-9.912260624093996
1.8066681925688564
17.334248874647134
31.9829098954757
28.66254673075456
44.67841611352712
56.39734493018997
53.760585946440834
62.9404135194934
69.48348210879682
71.8272678721294
75.04997329671168
74.36636911573969
75.44060425726711
76.12420843823911
75.9288929579614
74.95231555657283
74.17105363546197
72.41321431296254
70.85069047074083
71.24132143129626
68.21393148699168
65.96780346379796
66.45609216449226
61.5732051575494
57.86221103227283
51.02616922255284
44.873731593804834
46.240939955748836
35.4009308003357
27.295338368810558
29.053177691309987
19.18974593728542
11.767757686732281
6.787212939650568
1.2207217517357138
2.392614633401999
-3.466849774929427
-7.861448081177996
-6.884870679789426
-10.009918364232853
-12.158388647287708
-13.623254749370565
-15.185778591592278
-14.795147631036851
-16.748302433813993
-18.21316853589685
-17.920195315480278
-18.017853055619135
-17.920195315480278
-18.89677271686885
-19.678034637979707
-19.48271915770199
-19.48271915770199
-19.48271915770199
-19.48271915770199
-20.45929655909056
-21.14290074006256
-22.90074006256199
-24.4632639047837
-24.072632944228275
-26.025787747005417
-27.49065384908827
-27.1976806286717
-30.127412832837415
-32.27588311589227
-33.74074921797513
-35.303273060196844
-34.91264209964141
-37.84237430380713
-40.08850232700084
-39.600213626306555
-42.529945830472265
-44.67841611352712
-47.998779278248264
-51.123826962691695
-50.44022278171969
-53.36995498588541
-55.61608300907912
-55.03013656824598
-58.057526512550545
-60.2059967956054
-63.526359960326545
-66.55374990463112
-65.8701457236591
-68.89753566796368
-71.04600595101854
-70.55771725032426
-73.48744945448996
-75.63591973754482
-77.10078583962768
-78.6633096818494
-78.27267872129397
-80.2258335240711
-81.69069962615396
-81.30006866559853
-83.25322346837568
-84.71808957045853
-85.30403601129167
-86.08529793240254
-85.88998245212481
-86.8665598535134
-87.55016403448539
-87.35484855420768
-88.33142595559625
-89.01503013656824
-88.81971465629053
-88.81971465629053
-88.81971465629053
-88.81971465629053
-88.72205691615167
-88.72205691615167
-89.69863431754024
-90.38223849851225
-89.21034561684596
-88.52674143587396
-88.62439917601282
-88.52674143587396
-88.52674143587396
-88.52674143587396
-88.52674143587396
-88.4290836957351
-87.45250629434653
-86.67124437323568
-86.8665598535134
-86.76890211337454
-86.76890211337454
-86.76890211337454
-85.79232471198596
-85.0110627908751
-84.13214312962539
-83.35088120851454
-83.54619668879225
-83.4485389486534
-83.4485389486534
-83.35088120851454
-82.37430380712597
-81.69069962615396
-80.81177996490425
-80.03051804379339
-80.12817578393225
-78.17502098115511
-76.71015487907225
-77.00312809948882
-75.9288929579614
-75.2452887769894
-74.36636911573969
-73.58510719462882
-73.78042267490653
-72.70618753337911
-71.92492561226825
-72.12024109254597
-71.04600595101854
-70.36240177004655
-68.60456244754711
-67.0420386053254
-67.33501182574197
-66.26077668421455
-65.57717250324254
-65.6748302433814
-64.69825284199283
-63.91699092088197
-63.13572899977112
-62.2568093385214
-62.45212481879911
-60.49897001602197
-59.03410391393912
-59.32707713435569
-58.25284199282826
-57.471580071717405
-55.713740749217976
-54.24887464713512
-54.54184786755169
-53.467612726024264
-52.78400854505226
-52.881666285191116
-50.928511482413974
-49.46364538033112
-47.80346379797055
-46.240939955748836
-46.63157091630426
-44.580758373388264
-43.11589227130541
-43.40886549172198
-40.479133287556266
-38.23300526436255
-36.768139162279695
-35.20561532005799
-35.596246280613414
-33.545433737697415
-32.08056763561456
-32.37354085603113
-29.443808651865414
-27.1976806286717
-22.90074006256199
-19.092088197146563
-19.971007858396277
-12.158388647287708
-6.201266498817426
-7.568474860761425
6.005951018539712
16.357671473258563
33.15480277714199
48.48706797894255
45.069047074082555
64.89356832227054
79.54222934309911
76.31952391851682
95.16746776531625
109.03486686503395
121.24208438239108
133.7422751201648
130.91020065613793
144.8752574959945
155.03166247043563
152.68787670710307
161.77004654001678
168.3131151293202
172.51239795529108
177.1999694819562
176.12573434042878
178.17654688334477
179.54375524528876
179.2507820248722
177.29762722209506
175.73510337987335
167.4341954680705
160.5981536583505
162.06301976043335
149.2698558022431
139.69939726863507
141.7502098115511
128.85938811322194
119.19127183947509
110.79270618753338
102.1011673151751
104.05432211795224
93.99557488364995
86.67124437323568
88.23376821545739
81.20241092545967
76.02655069810025
71.43663691157397
66.74906538490883
67.7256427862974
63.6240177004654
60.694285496299685
61.37788967727169
59.22941939421683
57.764553292133975
56.20202944991226
54.639505607690545
54.932478828107115
53.85824368657969
53.17463950560769
53.27229724574655
51.31914244296941
49.85427634088655
49.17067215991455
48.38941023880369
48.584725719081405
46.533913176165406
45.069047074082555
45.362020294499125
43.40886549172198
41.943999389639124
39.40489814602884
37.06111238269627
37.549401083390556
34.52201113908598
32.37354085603113
32.86182955672541
29.834439612420844
27.68596932936599
24.267948424505988
21.24055848020142
21.92416266117342
18.89677271686885
16.650644693675137
17.13893339436942
13.232623788815136
10.302891584649425
8.05676356145571
5.71297779812314
6.201266498817426
3.1738765545128556
1.0254062714579995
1.513694972152285
-1.416037232013428
-3.5645075150682843
-5.0293736171511405
-6.591897459372854
-6.201266498817426
-8.252079041733426
-9.71694514381628
-9.326314183260854
-11.279468986037996
-12.74433508812085
-13.427939269092851
-14.209201190203707
-14.013885709925994
-14.990463111314565
-15.771725032425422
-15.576409552147707
-16.55298695353628
-17.334248874647134
-17.13893339436942
-17.13893339436942
-17.13893339436942
-15.283436331731137
-13.720912489509422
-14.11154345006485
-10.205233844510566
-7.177843900205997
0.6347753109025711
7.470817120622568
5.908293278400855
20.55695429922942
31.592278934920273
29.150835431448844
48.78004119935912
63.526359960326545
82.17898832684826
99.95269703212024
95.9487296864271
117.82406347753108
133.93759060044252
130.3242542153048
149.17219806210423
163.03959716182192
171.43816281376363
180.9109636072328
178.7624933241779
184.9149309529259
189.21187151903564
188.13763637750822
188.33295185778593
188.23529411764707
182.4734874494545
177.8835736629282
178.86015106431677
169.97329671168077
163.3325703822385
164.6997787441825
153.85976958876935
145.65651941710536
134.03524834058138
123.19523918516823
125.63668268863965
112.64820325017166
103.07774471656367
105.12855725947966
92.23773556115053
82.66727702754254
73.29213397421225
63.91699092088197
65.96780346379796
56.88563363088426
50.24490730144198
51.709773403524835
43.70183871213855
37.84237430380713
33.44777599755856
28.66254673075456
29.736781872281988
24.65857938506142
21.045242999923705
21.826504921034562
18.799114976729992
16.55298695353628
14.209201190203707
11.865415426871138
12.353704127565424
10.302891584649425
8.838025482566568
9.228656443121995
6.298924238956283
4.052796215762569
1.7090104524299992
-0.537117570763714
-0.04882887006942855
-2.9785610742351416
-5.224689097428855
-4.736400396734569
-8.642710002288853
-11.572442206454566
-14.795147631036851
-17.920195315480278
-17.13893339436942
-21.14290074006256
-24.072632944228275
-23.389028763256274
-27.392996108949415
-30.322728313115128
-33.44777599755856
-36.57282368200198
-35.889219501029984
-38.818951705195694
-41.065079728389414
-40.57679102769512
-43.50652323186084
-45.654993514915695
-48.09643701838712
-50.34256504158083
-49.85427634088655
-54.7371633478294
-58.350499732967116
-57.56923781185626
-65.38185702296482
-71.24132143129626
-75.63591973754482
-80.32349126420996
-79.24925612268254
-82.37430380712597
-84.52277409018082
-83.93682764934768
-83.05790798809797
-82.27664606698711
-76.71015487907225
-72.21789883268482
-73.19447623407339
-59.62005035477226
-49.17067215991455
-51.51445792324712
-31.885252155336843
-17.13893339436942
1.416037232013428
19.287403677424276
15.283436331731137
40.08850232700084
58.44815747310597
54.346532387273975
81.00709544518196
100.83161669336995
120.26550698100252
139.69939726863507
135.3047989623865
155.3246356908522
169.97329671168077
166.65293354695964
179.73907072556648
189.11421377889678
193.70412756542305
199.2706187533379
198.00106813153278
198.1963836118105
198.09872587167163
198.00106813153278
194.09475852597848
191.06736858167392
185.01258869306477
179.64141298542762
180.71564812695507
170.85221637293049
163.43022812237734
164.99275196459908
153.17616540779736
144.28931105516136
132.8633554589151
121.92568856336308
124.36713206683451
110.40207522697796
100.0503547722591
102.29648279545282
88.4290836957351
78.07736324101626
67.92095826657511
57.764553292133975
60.01068131532769
48.97535667963683
40.96742198825055
42.72526131074998
32.764171816586554
25.439841306172273
19.385061417563133
13.037308308537423
14.50217441062028
8.44739452201114
4.052796215762569
5.0293736171511405
0.04882887006942855
-3.5645075150682843
-7.470817120622568
-11.377126726176853
-10.498207064927138
-14.50217441062028
-17.43190661478599
-16.84596017395285
-21.728847180895706
-25.439841306172273
-28.369573510337986
-31.494621194781413
-30.811017013809415
-35.69390402075227
-39.40489814602884
-38.62363622491798
-42.529945830472265
-45.45967803463798
-49.56130312046998
-53.467612726024264
-52.588693064774546
-56.59266041046769
-59.42473487449455
-58.8387884336614
-63.72167544060426
-67.33501182574197
-69.38582436865796
-71.72961013199054
-71.24132143129626
-75.14763103685054
-78.07736324101626
-77.39375906004425
-80.32349126420996
-82.47196154726483
-83.93682764934768
-85.49935149156939
-85.10872053101396
-87.06187533379111
-88.52674143587396
-88.13611047531853
-90.08926527809568
-91.55413138017853
-92.14007782101167
-92.92133974212253
-92.72602426184481
-92.72602426184481
-92.72602426184481
-92.62836652170596
-90.77286945906768
-89.21034561684596
-83.74151216906996
-79.24925612268254
-80.2258335240711
-67.53032730601969
-57.95986877241169
-60.01068131532769
-40.479133287556266
-25.732814526588847
-6.103608758678568
12.353704127565424
8.252079041733426
35.010299839780274
54.83482108796826
50.34256504158083
75.2452887769894
93.50728618295567
108.54657816433966
124.26947432669566
120.65613794155794
133.83993286030366
143.3127336537728
141.16426337071795
148.19562066071566
153.2738231479362
153.0785076676585
154.05508506904707
153.7621118486305
149.95345998321508
146.9260700389105
147.51201647974364
140.67597467002366
135.40245670252537
127.98046845197223
120.94911116197451
122.51163500419624
110.59739070725567
101.80819409475852
103.66369115739681
91.74944686045625
82.96025024795911
71.53429465171283
60.59662775616083
63.03807125963226
50.04959182116426
40.479133287556266
42.62760357061112
31.592278934920273
23.58434424353399
14.795147631036851
6.298924238956283
8.154421301594567
0.14648661020828566
-5.615320057984283
-4.345769436179141
-11.279468986037996
-16.45532921339742
-20.068665598535134
-24.072632944228275
-23.19371328297856
-27.1976806286717
-30.029755092698558
-29.443808651865414
-33.3501182574197
-36.27985046158541
-38.525978484779124
-40.86976424811169
-40.28381780727855
-44.19012741283284
-47.11985961699855
-46.533913176165406
-49.46364538033112
-51.709773403524835
-55.03013656824598
-58.057526512550545
-57.37392233157855
-64.20996414129854
-69.28816662851911
-68.11627374685283
-78.85862516212711
-86.96421759365225
-94.67917906462196
-102.49179827573053
-100.7339589532311
-106.78873884184024
-111.08567940794995
-110.10910200656139
-112.15991454947738
-113.62478065156023
-112.25757228961623
-111.57396810864424
-111.6716258487831
-105.90981918059052
-101.41756313420309
-102.39414053559167
-97.3159380483711
-93.70260166323338
-94.48386358434425
-94.19089036392768
-94.28854810406654
-96.14404516670481
-97.60891126878766
-97.21828030823224
-100.14801251239795
-102.29648279545282
-102.68711375600824
-103.56603341725796
-103.37071793698024
-103.37071793698024
-103.27306019684139
-103.27306019684139
-99.46440833142596
-96.43701838712138
-88.4290836957351
-81.5930418860151
-83.05790798809797
-67.43266956588083
-55.61608300907912
-58.25284199282826
-36.67048142214084
-20.361638818951704
-0.14648661020828566
19.092088197146563
14.795147631036851
38.72129396505684
56.29968719005112
52.39337758449683
72.31555657282368
86.96421759365225
96.04638742656596
106.39810788128482
104.05432211795224
111.28099488822767
116.26153963530938
115.0896467536431
115.38261997405966
115.28496223392081
110.40207522697796
106.69108110170139
107.47234302281224
99.65972381170367
93.70260166323338
94.97215228503853
85.10872053101396
77.68673228046082
67.92095826657511
58.54581521324483
60.59662775616083
47.705806057831694
38.1353475242237
40.28381780727855
27.392996108949415
17.82253757534142
8.44739452201114
-0.8300907911802854
1.2207217517357138
-9.71694514381628
-17.724879835202564
-15.967040512703136
-23.974975204089418
-29.834439612420844
-34.22903791866941
-39.014267185473415
-37.94003204394598
-41.943999389639124
-44.873731593804834
-44.19012741283284
-46.240939955748836
-47.705806057831694
-49.26832990005341
-50.73319600213626
-50.44022278171969
-51.416800183108265
-52.10040436408026
-52.002746623941405
-53.85824368657969
-55.32310978866255
-56.88563363088426
-58.44815747310597
-58.057526512550545
-60.01068131532769
-61.475547417410546
-61.182574196993976
-64.11230640115969
-66.26077668421455
-68.60456244754711
-70.94834821087969
-70.36240177004655
-73.3897917143511
-75.53826199740597
-75.04997329671168
-77.97970550087739
-80.12817578393225
-82.47196154726483
-84.81574731059739
-84.22980086976425
-86.28061341268025
-87.64782177462425
-87.35484855420768
-89.30800335698481
-90.77286945906768
-91.35881589990082
-92.14007782101167
-91.94476234073396
-92.92133974212253
-93.60494392309452
-93.40962844281681
-94.38620584420539
-95.06981002517739
-95.85107194628824
-96.53467612726024
-96.33936064698253
-96.33936064698253
-96.33936064698253
-96.33936064698253
-96.24170290684367
-96.24170290684367
-94.28854810406654
-92.82368200198367
-93.11665522240024
-88.23376821545739
-84.52277409018082
-85.30403601129167
-76.51483939879454
-69.77645532921339
-56.983291371023114
-45.45967803463798
-47.998779278248264
-28.369573510337986
-13.623254749370565
-16.84596017395285
5.71297779812314
22.60776684214542
40.86976424811169
58.74113069352254
54.7371633478294
74.65934233615626
89.30800335698481
86.08529793240254
99.17143511100939
108.64423590447852
113.13649195086595
118.80064087891967
117.53109025711451
118.70298313878081
119.3865873197528
119.19127183947509
115.28496223392081
112.35523002975509
105.32387273975738
99.17143511100939
100.53864347295338
89.69863431754024
81.49538414587624
83.35088120851454
71.43663691157397
62.54978255893797
53.07698176546884
43.70183871213855
45.75265125505455
33.838406958113985
25.049210345616846
27.002365148393988
16.943617914091707
9.619287403677424
3.662165255207141
-2.5879301136797133
-1.1230640115968566
-7.177843900205997
-11.572442206454566
-10.595864805065995
-14.599832150759136
-17.52956435492485
-18.799114976729992
-20.45929655909056
-20.068665598535134
-24.95155260547799
-28.564888990615703
-27.783627069504846
-34.61966887922484
-39.79552910658427
-44.38544289311055
-49.073014419775696
-47.998779278248264
-52.002746623941405
-54.932478828107115
-54.24887464713512
-55.32310978866255
-56.006713969634546
-53.95590142671855
-52.49103532463569
-52.78400854505226
-48.877698939497975
-45.947966735332265
-46.533913176165406
-43.50652323186084
-41.358052948805984
-41.74868390936141
-41.651026169222554
-41.651026169222554
-45.45967803463798
-48.48706797894255
-47.80346379797055
-51.709773403524835
-54.639505607690545
-56.7879758907454
-59.22941939421683
-58.643472953383686
-61.5732051575494
-63.819333180743115
-63.233386739909974
-65.28419928282597
-66.74906538490883
-69.19050888838025
-71.53429465171283
-70.94834821087969
-72.02258335240711
-72.70618753337911
-72.5108720531014
-74.46402685587854
-75.9288929579614
-75.53826199740597
-75.63591973754482
-75.53826199740597
-74.5616845960174
-73.78042267490653
-73.97573815518425
-70.06942854962998
-67.13969634546426
-58.1551842526894
-50.635538261997404
-52.295719844357976
-37.549401083390556
-26.514076447699704
-28.95551995117113
-8.349736781872283
7.080186160067139
27.49065384908827
46.826886396581976
42.43228809033341
66.3584344243534
83.93682764934768
79.93286030365454
100.83161669336995
116.26153963530938
127.10154879072252
138.9181353475242
136.28137636377508
144.48462653543908
150.24643320363165
148.87922484168766
150.05111772335394
150.73472190432594
147.6096742198825
145.3635461966888
145.85183489738307
139.01579308766307
133.83993286030366
134.9141680018311
125.05073624780651
117.62874799725337
107.76531624322881
98.48783093003739
100.53864347295338
88.52674143587396
79.73754482337682
81.69069962615396
68.79987792782482
59.22941939421683
50.83085374227512
42.13931486991684
44.09246967269398
34.0337224383917
26.709391927977418
28.369573510337986
20.361638818951704
14.50217441062028
10.009918364232853
5.322346837567712
6.39658197909514
2.2949568932631417
-0.537117570763714
0.04882887006942855
-2.8809033340962844
-5.0293736171511405
-7.470817120622568
-9.81460288395514
-9.228656443121995
-11.279468986037996
-12.74433508812085
-12.45136186770428
-15.381094071869994
-17.52956435492485
-19.87335011825742
-22.21713588158999
-21.728847180895706
-24.65857938506142
-26.90470740825513
-26.416418707560844
-30.322728313115128
-33.252460517280845
-35.4009308003357
-37.84237430380713
-37.256427862973986
-41.16273746852827
-44.09246967269398
-43.40886549172198
-47.412832837415124
-50.34256504158083
-52.49103532463569
-54.83482108796826
-54.346532387273975
-57.27626459143969
-59.522392614633404
-58.936446173800256
-60.987258716716255
-62.45212481879911
-64.89356832227054
-67.23735408560312
-66.65140764476998
-67.7256427862974
-68.4092469672694
-68.21393148699168
-70.16708628976883
-71.63195239185168
-72.21789883268482
-72.99916075379568
-72.80384527351796
-73.78042267490653
-74.46402685587854
-74.26871137560083
-73.3897917143511
-72.60852979324025
-67.92095826657511
-64.20996414129854
-64.9912260624094
-55.22545204852369
-47.90112153810941
-49.46364538033112
-33.838406958113985
-22.021820401312276
-3.662165255207141
13.232623788815136
9.42397192339971
34.131380178530556
52.49103532463569
48.38941023880369
74.07339589532312
93.2143129625391
108.93720912489509
125.44136720836194
121.73037308308537
137.8439002059968
149.4651712825208
146.82841229877164
155.91058213168535
162.45365072098878
163.82085908293277
166.35996032654307
165.67635614557108
164.79743648432137
164.0161745632105
164.11383230334937
158.25436789501794
153.7621118486305
148.0979629205768
142.6291294728008
143.70336461432822
133.93759060044252
126.51560234988938
128.07812619211109
116.26153963530938
107.37468528267338
97.80422674906538
88.4290836957351
90.47989623865111
73.78042267490653
61.182574196993976
64.01464866102083
44.28778515297169
29.541466392004274
15.576409552147707
1.513694972152285
4.638742656595713
-6.494239719233997
-14.50217441062028
-12.646677347981994
-18.799114976729992
-23.19371328297856
-23.19371328297856
-24.072632944228275
-23.87731746395056
-21.045242999923705
-18.799114976729992
-19.287403677424276
-15.381094071869994
-12.45136186770428
-13.037308308537423
-12.939650568398566
-12.939650568398566
-17.724879835202564
-21.43587396047913
-20.55695429922942
-25.537499046311133
-29.150835431448844
-32.178225375753414
-35.303273060196844
-34.61966887922484
-39.5025558861677
-43.21355001144427
-42.33463035019455
-47.31517509727627
-50.928511482413974
-53.95590142671855
-57.08094911116198
-56.39734493018997
-60.30365453574426
-63.233386739909974
-62.54978255893797
-66.55374990463112
-69.48348210879682
-71.63195239185168
-73.97573815518425
-73.3897917143511
-76.41718165865568
-78.56565194171054
-78.07736324101626
-80.03051804379339
-81.49538414587624
-83.05790798809797
-84.52277409018082
-84.22980086976425
-86.1829556725414
-87.55016403448539
-87.25719081406882
-88.23376821545739
-88.91737239642939
-88.72205691615167
-88.72205691615167
-88.72205691615167
-86.76890211337454
-85.30403601129167
-85.59700923170824
-78.76096742198825
-73.58510719462882
-63.233386739909974
-54.053559166857404
-56.1043717097734
-38.42832074464027
-25.146868085755703
-28.076600289921416
-4.541084916456855
13.037308308537423
32.95948729686427
52.39337758449683
48.09643701838712
70.94834821087969
87.84313725490196
84.03448538948653
102.00350957503625
115.18730449378195
123.68352788586252
133.25398641947052
131.0078583962768
137.1602960250248
141.55489433127337
140.48065918974595
140.67597467002366
140.5783169298848
136.76966506446936
133.7422751201648
134.32822156099795
128.37109941252766
123.97650110627909
124.8554207675288
116.06622415503166
109.32784008545052
100.34332799267567
91.74944686045625
93.60494392309452
81.69069962615396
72.90150301365682
74.85465781643397
61.96383611810483
52.39337758449683
43.018234531166556
33.64309147783627
35.69390402075227
24.756237125200276
16.650644693675137
18.40848401617456
9.42397192339971
2.8809033340962844
-3.1738765545128556
-9.521629663538567
-8.05676356145571
-13.13496604867628
-16.84596017395285
-15.967040512703136
-19.971007858396277
-22.90074006256199
-26.123445487144274
-29.150835431448844
-28.467231250476843
-31.494621194781413
-33.64309147783627
-33.15480277714199
-36.182192721446555
-38.33066300450141
-40.67444876783398
-43.018234531166556
-42.529945830472265
-46.43625543602655
-49.365987640192266
-48.68238345922026
-52.588693064774546
-55.51842526894026
-58.643472953383686
-61.768520637827116
-61.08491645685512
-64.9912260624094
-67.92095826657511
-67.23735408560312
-70.26474402990769
-72.41321431296254
-74.75700007629511
-77.10078583962768
-76.51483939879454
-79.54222934309911
-81.69069962615396
-81.20241092545967
-83.15556572823682
-84.62043183031967
-86.1829556725414
-87.64782177462425
-87.35484855420768
-88.33142595559625
-89.01503013656824
-88.81971465629053
-90.77286945906768
-92.14007782101167
-91.8471046005951
-91.8471046005951
-91.8471046005951
-92.72602426184481
-93.50728618295567
-93.31197070267795
-93.31197070267795
-93.2143129625391
-91.26115815976196
-89.7962920576791
-90.08926527809568
-84.22980086976425
-79.83520256351568
-80.71412222476539
-69.0928511482414
-60.2059967956054
-45.947966735332265
-32.86182955672541
-35.69390402075227
-14.990463111314565
0.34180209048599985
-2.9785610742351416
18.701457236591136
34.81498435950255
50.34256504158083
65.96780346379796
62.45212481879911
78.46799420157168
90.18692301823454
87.55016403448539
95.75341420614939
101.51522087434195
103.07774471656367
105.51918822003509
104.93324177920195
100.24567025253681
96.53467612726024
97.3159380483711
84.71808957045853
75.04997329671168
62.84275577935454
51.22148470283055
53.760585946440834
40.772106507972836
31.201647974364842
33.3501182574197
22.314793621728846
14.306858930342566
8.44739452201114
2.0996414129854277
3.466849774929427
-0.537117570763714
-3.466849774929427
-2.783245593957427
-6.787212939650568
-9.71694514381628
-14.795147631036851
-19.385061417563133
-18.310826276035705
-24.267948424505988
-28.66254673075456
-27.68596932936599
-32.6665140764477
-36.37750820172427
-38.33066300450141
-40.772106507972836
-40.186160067139696
-42.236972610055695
-43.70183871213855
-43.311207751583126
-45.26436255436027
-46.72922865644312
-48.291752498664835
-49.85427634088655
-49.56130312046998
-51.51445792324712
-52.97932402532997
-52.588693064774546
-55.51842526894026
-57.66689555199512
-60.108339055466544
-62.35446707866026
-61.86617837796597
-64.79591058213168
-66.94438086518655
-66.45609216449226
-69.38582436865796
-71.63195239185168
-73.97573815518425
-76.31952391851682
-75.73357747768368
-78.6633096818494
-80.9094377050431
-80.32349126420996
-82.37430380712597
-83.74151216906996
-85.30403601129167
-86.8665598535134
-86.47592889295797
-88.4290836957351
-89.89394979781795
-89.50331883726253
-91.45647364003968
-92.92133974212253
-93.50728618295567
-94.28854810406654
-94.09323262378882
-95.06981002517739
-95.75341420614939
-95.55809872587167
-95.55809872587167
-95.55809872587167
-95.55809872587167
-95.46044098573282
-95.46044098573282
-94.48386358434425
-93.70260166323338
-93.80025940337224
-91.8471046005951
-90.38223849851225
-83.93682764934768
-78.6633096818494
-79.83520256351568
-68.99519340810254
-60.8896009765774
-62.64744029907683
-47.0222018768597
-35.20561532005799
-17.724879835202564
-1.6113527122911422
-5.127031357289998
17.52956435492485
34.424353398947126
30.615701533531702
51.51445792324712
66.94438086518655
79.63988708323797
93.01899748226138
90.08926527809568
100.24567025253681
107.47234302281224
105.81216144045166
109.91378652628366
112.84351873044938
110.20675974670024
108.83955138475623
109.1325246051728
103.27306019684139
98.78080415045396
99.75738155184253
90.96818493934539
84.22980086976425
75.2452887769894
66.65140764476998
68.60456244754711
56.690318150606544
47.80346379797055
49.75661860074769
37.84237430380713
29.053177691309987
21.43587396047913
13.525597009231708
15.283436331731137
6.298924238956283
-0.14648661020828566
1.2207217517357138
-4.736400396734569
-9.130998702983138
-11.963073167009995
-15.185778591592278
-14.50217441062028
-17.43190661478599
-19.678034637979707
-19.18974593728542
-20.263981078812847
-20.947585259784848
-20.752269779507134
-20.752269779507134
-20.752269779507134
-21.728847180895706
-22.510109102006563
-22.314793621728846
-22.314793621728846
-22.314793621728846
-23.291371023117417
-23.974975204089418
-23.779659723811704
-25.732814526588847
-27.1976806286717
-26.90470740825513
-28.857862211032273
-30.322728313115128
-31.885252155336843
-33.44777599755856
-33.05714503700313
-35.98687724116884
-38.23300526436255
-37.74471656366827
-39.69787136644541
-41.16273746852827
-43.70183871213855
-45.947966735332265
-45.45967803463798
-46.533913176165406
-47.21751735713741
-47.0222018768597
-48.97535667963683
-50.44022278171969
-51.02616922255284
-51.80743114366369
-51.61211566338598
-53.56527046616312
-55.03013656824598
-54.7371633478294
-55.713740749217976
-56.39734493018997
-57.178606851300835
-57.95986877241169
-57.764553292133975
-57.764553292133975
-57.764553292133975
-57.764553292133975
-57.764553292133975
-57.66689555199512
-56.690318150606544
-56.006713969634546
-56.1043717097734
-52.19806210421912
-49.26832990005341
-49.951934081025406
-42.13931486991684
-36.182192721446555
-24.072632944228275
-13.427939269092851
-15.771725032425422
-0.9277485313191425
10.009918364232853
7.568474860761425
21.43587396047913
31.68993667505913
41.84634164950027
52.002746623941405
49.658960860608836
64.50293736171511
75.53826199740597
72.99916075379568
85.98764019226367
95.46044098573282
102.88242923628596
110.69504844739453
108.93720912489509
117.92172121766994
124.46478980697337
122.99992370489052
126.12497138933395
128.17578393224994
123.87884336614023
120.94911116197451
121.53505760280765
111.86694132906081
104.44495307850767
106.00747692072939
94.19089036392768
85.30403601129167
74.85465781643397
64.69825284199283
66.94438086518655
54.932478828107115
46.14328221560998
48.09643701838712
37.15877012283513
29.053177691309987
22.21713588158999
15.185778591592278
16.748302433813993
9.71694514381628
4.541084916456855
5.71297779812314
1.6113527122911422
-1.2207217517357138
-3.36919203479057
-5.810635538261997
-5.224689097428855
-7.275501640344854
-8.74036774242771
-8.349736781872283
-10.400549324788281
-11.865415426871138
-12.45136186770428
-13.232623788815136
-13.13496604867628
-14.11154345006485
-14.795147631036851
-14.599832150759136
-16.55298695353628
-18.017853055619135
-19.58037689784085
-21.14290074006256
-20.84992751964599
-22.803082322423133
-24.267948424505988
-23.974975204089418
-26.90470740825513
-29.053177691309987
-30.518043793392845
-32.08056763561456
-31.68993667505913
-34.61966887922484
-36.86579690241855
-36.27985046158541
-38.33066300450141
-39.79552910658427
-41.358052948805984
-42.92057679102769
-42.529945830472265
-44.48310063324941
-45.947966735332265
-45.654993514915695
-47.60814831769284
-49.073014419775696
-50.635538261997404
-52.19806210421912
-51.80743114366369
-52.78400854505226
-53.467612726024264
-53.36995498588541
-54.346532387273975
-55.03013656824598
-54.83482108796826
-54.83482108796826
-54.83482108796826
-52.881666285191116
-51.416800183108265
-51.709773403524835
-46.826886396581976
-43.11589227130541
-33.44777599755856
-25.146868085755703
-26.90470740825513
-11.279468986037996
0.43945983062485694
-2.0996414129854277
19.385061417563133
35.596246280613414
53.95590142671855
71.8272678721294
67.82330052643626
89.69863431754024
105.81216144045166
102.19882505531396
119.19127183947509
131.59380483710993
139.30876630807964
148.00030518043792
146.04715037766078
150.24643320363165
153.0785076676585
152.3949034866865
152.49256122682536
152.3949034866865
147.6096742198825
143.80102235446708
144.58228427557793
137.64858472571908
132.47272449835967
133.5469596398871
123.78118562600137
116.35919737544823
107.47234302281224
98.87846189059282
100.7339589532311
88.81971465629053
79.93286030365454
81.88601510643167
69.9717708094911
61.182574196993976
51.61211566338598
42.236972610055695
44.38544289311055
33.3501182574197
25.24452582589456
27.100022888532845
18.11551079575799
11.47478446631571
6.201266498817426
0.7324330510414282
1.9043259327077133
-2.9785610742351416
-6.6895551995117115
-5.810635538261997
-9.81460288395514
-12.74433508812085
-15.967040512703136
-18.994430457007706
-18.310826276035705
-21.338216220340275
-23.58434424353399
-22.998397802700847
-27.002365148393988
-29.9320973525597
-32.08056763561456
-34.424353398947126
-33.93606469825284
-37.84237430380713
-40.772106507972836
-40.08850232700084
-44.09246967269398
-47.0222018768597
-50.14724956130312
-53.27229724574655
-52.49103532463569
-56.49500267032883
-59.42473487449455
-58.74113069352254
-61.768520637827116
-63.91699092088197
-66.26077668421455
-68.60456244754711
-68.01861600671397
-70.94834821087969
-73.19447623407339
-72.70618753337911
-74.65934233615626
-76.12420843823911
-77.68673228046082
-79.15159838254368
-78.85862516212711
-80.81177996490425
-82.17898832684826
-81.88601510643167
-82.86259250782025
-83.54619668879225
-84.3274586099031
-85.10872053101396
-84.91340505073624
-86.76890211337454
-88.23376821545739
-87.94079499504082
-89.89394979781795
-91.26115815976196
-88.03845273517967
-85.88998245212481
-86.37827115281911
-73.78042267490653
-64.11230640115969
-66.26077668421455
-44.77607385366598
-28.564888990615703
-4.443427176317998
17.82253757534142
12.84199282825971
43.50652323186084
66.26077668421455
61.182574196993976
87.15953307392996
106.2027924010071
119.09361409933624
133.35164415960938
130.12893873502708
137.45326924544136
142.43381399252308
141.35957885099566
142.43381399252308
143.11741817349508
140.09002822919052
137.8439002059968
138.23453116655222
131.39848935683221
126.22262912947281
127.29686427100023
118.41000991836424
111.76928358892195
103.66369115739681
95.85107194628824
97.60891126878766
85.6946669718471
76.8078126192111
78.76096742198825
65.8701457236591
56.29968719005112
47.0222018768597
37.549401083390556
39.69787136644541
27.68596932936599
18.89677271686885
20.84992751964599
10.888838025482567
3.5645075150682843
-2.392614633401999
-8.642710002288853
-7.275501640344854
-13.330281528953995
-17.724879835202564
-16.748302433813993
-21.728847180895706
-25.342183566033416
-28.369573510337986
-31.494621194781413
-30.811017013809415
-33.838406958113985
-35.98687724116884
-35.49858854047456
-38.42832074464027
-40.67444876783398
-43.89715419241627
-47.0222018768597
-46.33859769588769
-49.26832990005341
-51.51445792324712
-51.02616922255284
-54.932478828107115
-57.86221103227283
-60.987258716716255
-64.11230640115969
-63.33104448004883
-66.3584344243534
-68.50690470740825
-68.01861600671397
-71.92492561226825
-74.85465781643397
-77.00312809948882
-79.3469138628214
-78.85862516212711
-81.78835736629281
-83.93682764934768
-83.4485389486534
-86.37827115281911
-88.52674143587396
-89.99160753795681
-91.55413138017853
-91.1635004196231
-93.11665522240024
-94.5815213244831
-94.19089036392768
-95.16746776531625
-95.85107194628824
-96.6323338673991
-97.41359578850995
-97.21828030823224
-98.19485770962082
-98.87846189059282
-98.6831464103151
-98.6831464103151
-98.58548867017625
-98.58548867017625
-98.58548867017625
-98.48783093003739
-94.67917906462196
-91.65178912031739
-92.33539330128939
-84.52277409018082
-78.56565194171054
-67.43266956588083
-57.471580071717405
-59.71770809491112
-40.08850232700084
-25.342183566033416
-28.564888990615703
-6.884870679789426
9.228656443121995
28.564888990615703
47.11985961699855
43.018234531166556
63.03807125963226
77.68673228046082
74.36636911573969
88.4290836957351
98.6831464103151
102.98008697642481
108.64423590447852
107.37468528267338
109.52315556572823
110.89036392767224
110.59739070725567
107.76531624322881
105.51918822003509
99.26909285114824
93.8979171435111
95.06981002517739
86.1829556725414
79.54222934309911
81.00709544518196
71.04600595101854
63.72167544060426
54.83482108796826
46.240939955748836
48.09643701838712
37.256427862973986
29.150835431448844
30.908674753948272
19.971007858396277
11.865415426871138
5.127031357289998
-1.9043259327077133
-0.34180209048599985
-7.373159380483711
-12.45136186770428
-11.279468986037996
-17.334248874647134
-21.728847180895706
-25.439841306172273
-29.346150911726557
-28.467231250476843
-31.592278934920273
-33.74074921797513
-33.252460517280845
-35.20561532005799
-36.67048142214084
-38.23300526436255
-39.79552910658427
-39.5025558861677
-42.43228809033341
-44.580758373388264
-44.09246967269398
-46.04562447547112
-47.51049057755398
-50.04959182116426
-52.295719844357976
-51.80743114366369
-54.7371633478294
-56.983291371023114
-56.49500267032883
-59.42473487449455
-61.5732051575494
-63.91699092088197
-66.26077668421455
-65.6748302433814
-68.70222018768597
-70.85069047074083
-70.36240177004655
-73.29213397421225
-75.44060425726711
-76.90547035934996
-78.46799420157168
-78.07736324101626
-82.86259250782025
-86.57358663309682
-85.6946669718471
-94.48386358434425
-101.02693217364767
-107.17936980239567
-113.42946517128252
-111.96459906919966
-115.18730449378195
-117.23811703669794
-116.74982833600366
-115.87090867475395
-115.0896467536431
-111.37865262836652
-108.35126268406195
-108.93720912489509
-101.12458991378652
-95.2651255054551
-96.53467612726024
-86.67124437323568
-79.24925612268254
-73.19447623407339
-66.84672312504769
-68.31158922713054
-59.32707713435569
-52.6863508049134
-54.15121690699626
-40.479133287556266
-30.127412832837415
-16.16235599298085
-3.076218814373999
-5.908293278400855
11.767757686732281
25.049210345616846
22.021820401312276
37.94003204394598
49.658960860608836
58.54581521324483
68.01861600671397
65.8701457236591
72.02258335240711
76.41718165865568
75.44060425726711
76.51483939879454
77.19844357976653
74.17105363546197
71.92492561226825
72.41321431296254
65.57717250324254
60.401312275883114
61.5732051575494
52.6863508049134
46.04562447547112
37.94003204394598
30.127412832837415
31.885252155336843
22.90074006256199
16.260013733119706
17.724879835202564
7.861448081177996
0.537117570763714
-5.420004577706569
-11.670099946593423
-10.302891584649425
-16.357671473258563
-20.654612039368278
-19.678034637979707
-24.65857938506142
-28.369573510337986
-30.420386053253985
-32.764171816586554
-32.27588311589227
-33.3501182574197
-34.0337224383917
-33.838406958113985
-34.81498435950255
-35.596246280613414
-35.4009308003357
-35.4009308003357
-35.4009308003357
-36.37750820172427
-37.06111238269627
-36.86579690241855
-37.84237430380713
-38.62363622491798
-39.40489814602884
-40.08850232700084
-39.99084458686198
-40.96742198825055
-41.651026169222554
-41.45571068894484
-43.40886549172198
-44.873731593804834
-46.43625543602655
-47.998779278248264
-47.60814831769284
-50.53788052185855
-52.78400854505226
-52.19806210421912
-54.24887464713512
-55.713740749217976
-57.27626459143969
-58.74113069352254
-58.44815747310597
-60.401312275883114
-61.86617837796597
-61.475547417410546
-62.45212481879911
-63.233386739909974
-64.01464866102083
-64.69825284199283
-64.50293736171511
-65.47951476310368
-66.26077668421455
-66.06546120393683
-67.0420386053254
-67.7256427862974
-67.53032730601969
-67.53032730601969
-67.53032730601969
-68.50690470740825
-69.19050888838025
-68.99519340810254
-68.99519340810254
-68.99519340810254
-68.99519340810254
-68.89753566796368
-68.89753566796368
-68.89753566796368
-68.89753566796368
-68.89753566796368
-65.96780346379796
-63.72167544060426
-59.42473487449455
-55.61608300907912
-56.39734493018997
-47.60814831769284
-40.96742198825055
-42.43228809033341
-29.63912413214313
-20.068665598535134
-7.861448081177996
3.662165255207141
1.0254062714579995
15.967040512703136
27.002365148393988
24.4632639047837
37.4517433432517
46.92454413672083
52.49103532463569
58.8387884336614
57.471580071717405
60.59662775616083
62.745098039215684
62.2568093385214
61.37788967727169
60.59662775616083
55.90905622949569
52.19806210421912
52.97932402532997
46.14328221560998
40.96742198825055
42.04165712977798
34.131380178530556
28.27191577019913
20.947585259784848
14.013885709925994
15.576409552147707
8.545052262149996
3.36919203479057
4.541084916456855
-2.2949568932631417
-7.470817120622568
-11.08415350576028
-15.088120851453422
-14.11154345006485
-18.21316853589685
-21.045242999923705
-20.45929655909056
-22.510109102006563
-23.974975204089418
-24.560921644922562
-25.342183566033416
-25.146868085755703
-25.24452582589456
-25.146868085755703
-25.146868085755703
-25.146868085755703
-25.146868085755703
-24.17029068436713
-23.48668650339513
-23.58434424353399
-23.58434424353399
-23.58434424353399
-23.58434424353399
-24.4632639047837
-25.24452582589456
-26.025787747005417
-26.807049668116274
-26.61173418783856
-30.420386053253985
-33.44777599755856
-32.764171816586554
-39.600213626306555
-44.67841611352712
-49.26832990005341
-53.95590142671855
-52.881666285191116
-56.983291371023114
-59.815365835049974
-59.13176165407798
-59.32707713435569
-59.22941939421683
-56.39734493018997
-54.15121690699626
-54.639505607690545
-49.75661860074769
-46.04562447547112
-46.826886396581976
-41.84634164950027
-38.1353475242237
-38.03768978408484
-37.06111238269627
-37.256427862973986
-38.1353475242237
-38.91660944533455
-38.72129396505684
-39.69787136644541
-40.38147554741741
-40.28381780727855
-40.28381780727855
-40.28381780727855
-41.16273746852827
-41.943999389639124
-41.74868390936141
-41.74868390936141
-41.74868390936141
-40.772106507972836
-39.99084458686198
-40.186160067139696
-36.27985046158541
-33.3501182574197
-33.93606469825284
-28.076600289921416
-23.682001983672848
-16.064698252841993
-9.130998702983138
-10.693522545204852
0.04882887006942855
8.154421301594567
6.39658197909514
17.236591134508277
25.342183566033416
33.05714503700313
40.86976424811169
39.11192492561227
46.240939955748836
51.31914244296941
50.14724956130312
53.27229724574655
55.420767528801406
53.95590142671855
53.27229724574655
53.467612726024264
50.53788052185855
48.291752498664835
48.78004119935912
42.92057679102769
38.42832074464027
33.74074921797513
29.053177691309987
30.029755092698558
23.096055542839704
18.017853055619135
19.092088197146563
13.13496604867628
8.74036774242771
4.931715877012284
1.0254062714579995
1.9043259327077133
-2.0996414129854277
-5.0293736171511405
-4.345769436179141
-7.373159380483711
-9.521629663538567
-10.986495765621424
-12.549019607843137
-12.158388647287708
-13.232623788815136
-13.916227969787137
-13.720912489509422
-13.81857022964828
-13.81857022964828
-13.81857022964828
-13.81857022964828
-13.81857022964828
-12.84199282825971
-12.060730907148852
-12.256046387426567
-12.158388647287708
-12.158388647287708
-12.158388647287708
-12.158388647287708
-12.158388647287708
-12.158388647287708
-12.158388647287708
-12.158388647287708
-13.13496604867628
-13.81857022964828
-14.599832150759136
-15.381094071869994
-15.283436331731137
-15.283436331731137
-15.283436331731137
-15.283436331731137
-16.16235599298085
-16.943617914091707
-17.724879835202564
-18.506141756313422
-18.310826276035705
-19.287403677424276
-20.068665598535134
-19.87335011825742
-20.84992751964599
-21.63118944075685
-22.412451361867703
-23.096055542839704
-22.998397802700847
-23.974975204089418
-24.65857938506142
-24.4632639047837
-24.560921644922562
-24.560921644922562
-25.439841306172273
-26.22110322728313
-26.025787747005417
-26.025787747005417
-26.025787747005417
-26.025787747005417
-26.025787747005417
-26.025787747005417
-27.002365148393988
-27.68596932936599
-27.49065384908827
-27.588311589227132
-27.49065384908827
-27.49065384908827
-26.514076447699704
-25.830472266727703
-24.072632944228275
-22.510109102006563
-22.90074006256199
-18.017853055619135
-14.306858930342566
-15.088120851453422
-7.275501640344854
-1.416037232013428
6.787212939650568
14.50217441062028
12.74433508812085
23.58434424353399
31.68993667505913
29.9320973525597
39.79552910658427
47.11985961699855
52.19806210421912
57.764553292133975
56.49500267032883
59.62005035477226
61.768520637827116
61.28023193713283
60.401312275883114
59.62005035477226
56.88563363088426
54.639505607690545
55.127794308384836
50.14724956130312
46.43625543602655
47.31517509727627
40.38147554741741
35.20561532005799
29.736781872281988
24.267948424505988
25.439841306172273
18.506141756313422
13.330281528953995
14.50217441062028
8.44739452201114
4.052796215762569
0.24414435034714274
-3.5645075150682843
-2.68558785381857
-6.6895551995117115
-9.619287403677424
-8.935683222705425
-10.986495765621424
-12.45136186770428
-13.13496604867628
-13.916227969787137
-13.720912489509422
-17.52956435492485
-20.55695429922942
-19.87335011825742
-25.732814526588847
-30.127412832837415
-33.93606469825284
-37.84237430380713
-36.96345464255741
-38.1353475242237
-38.818951705195694
-38.62363622491798
-37.64705882352941
-36.96345464255741
-33.252460517280845
-30.22507057297627
-30.908674753948272
-25.049210345616846
-20.55695429922942
-21.533531700617992
-15.576409552147707
-11.181811245899137
-9.326314183260854
-6.884870679789426
-7.373159380483711
-8.252079041733426
-9.033340962844282
-8.838025482566568
-9.81460288395514
-10.498207064927138
-11.377126726176853
-12.060730907148852
-11.963073167009995
-12.939650568398566
-13.623254749370565
-13.525597009231708
-14.50217441062028
-15.185778591592278
-14.990463111314565
-15.088120851453422
-15.088120851453422
-15.967040512703136
-16.748302433813993
-16.55298695353628
-17.52956435492485
-18.310826276035705
-18.11551079575799
-18.11551079575799
-18.11551079575799
-19.092088197146563
-19.775692378118563
-19.678034637979707
-19.678034637979707
-19.678034637979707
-19.678034637979707
-19.678034637979707
-19.678034637979707
-19.678034637979707
-19.678034637979707
-19.58037689784085
-17.724879835202564
-16.260013733119706
-12.74433508812085
-9.71694514381628
-10.400549324788281
-4.443427176317998
-0.04882887006942855
-1.0254062714579995
7.666132600900283
14.306858930342566
21.43587396047913
28.467231250476843
26.90470740825513
35.79156176089113
42.43228809033341
40.86976424811169
46.92454413672083
51.31914244296941
53.17463950560769
55.61608300907912
55.03013656824598
55.127794308384836
55.127794308384836
55.127794308384836
52.19806210421912
49.951934081025406
44.77607385366598
40.186160067139696
41.16273746852827
35.20561532005799
30.811017013809415
31.787594415197987
25.830472266727703
21.338216220340275
15.674067292286564
10.205233844510566
11.47478446631571
6.39658197909514
2.783245593957427
3.5645075150682843
-1.3183794918745708
-4.931715877012284
-6.982528419928283
-9.42397192339971
-8.935683222705425
-10.009918364232853
-10.693522545204852
-10.498207064927138
-10.595864805065995
-10.498207064927138
-10.498207064927138
-10.498207064927138
-10.498207064927138
-9.521629663538567
-8.838025482566568
-9.033340962844282
-7.959105821316854
-7.275501640344854
-7.373159380483711
-7.373159380483711
-7.373159380483711
-6.39658197909514
-5.71297779812314
-5.810635538261997
-5.810635538261997
-5.810635538261997
-5.810635538261997
-5.810635538261997
-5.810635538261997
-5.810635538261997
-5.810635538261997
-5.810635538261997
-5.810635538261997
-5.810635538261997
-6.787212939650568
-7.470817120622568
-7.275501640344854
-7.373159380483711
-7.373159380483711
-7.373159380483711
-8.252079041733426
-9.033340962844282
-8.838025482566568
-8.935683222705425
-8.935683222705425
-9.81460288395514
-10.595864805065995
-10.400549324788281
-10.400549324788281
-10.400549324788281
-11.377126726176853
-12.158388647287708
-11.963073167009995
-11.963073167009995
-11.963073167009995
-11.963073167009995
-11.963073167009995
-11.963073167009995
-11.963073167009995
-11.963073167009995
-11.963073167009995
-11.963073167009995
-11.963073167009995
-11.963073167009995
-11.963073167009995
-11.963073167009995
-10.986495765621424
-10.205233844510566
-10.400549324788281
-10.400549324788281
-10.400549324788281
-10.400549324788281
-10.400549324788281
-10.302891584649425
-10.302891584649425
-10.302891584649425
-10.302891584649425
-9.42397192339971
-8.642710002288853
-8.838025482566568
-8.74036774242771
-8.74036774242771
-8.74036774242771
-8.74036774242771
-8.74036774242771
-7.763790341039139
-7.080186160067139
-7.177843900205997
-7.177843900205997
-7.177843900205997
-7.177843900205997
-7.177843900205997
-7.177843900205997
-7.177843900205997
-7.177843900205997
-7.177843900205997
-7.177843900205997
-7.177843900205997
-7.177843900205997
-7.177843900205997
-7.177843900205997
-9.033340962844282
-10.498207064927138
-10.205233844510566
-15.088120851453422
-18.701457236591136
-21.728847180895706
-24.853894865339132
-24.17029068436713
-25.24452582589456
-26.025787747005417
-25.830472266727703
-24.853894865339132
-24.17029068436713
-20.45929655909056
-17.43190661478599
-18.11551079575799
-13.232623788815136
-9.521629663538567
-10.302891584649425
-4.443427176317998
0.04882887006942855
0.8300907911802854
2.5879301136797133
2.197299153124285
2.2949568932631417
2.197299153124285
2.197299153124285
2.197299153124285
2.197299153124285
2.197299153124285
2.197299153124285
2.197299153124285
2.197299153124285
2.197299153124285
2.197299153124285
2.197299153124285
2.197299153124285
2.197299153124285
2.197299153124285
2.197299153124285
2.197299153124285
2.197299153124285
2.197299153124285
3.1738765545128556
3.9551384756237127
3.7598229953459983
3.7598229953459983
3.7598229953459983
3.7598229953459983
3.7598229953459983
3.7598229953459983
4.736400396734569
5.420004577706569
5.322346837567712
5.322346837567712
5.322346837567712
6.298924238956283
6.982528419928283
6.884870679789426
6.884870679789426
6.884870679789426
9.71694514381628
11.963073167009995
11.47478446631571
16.357671473258563
20.068665598535134
19.18974593728542
27.002365148393988
32.86182955672541
43.018234531166556
52.19806210421912
50.14724956130312
64.01464866102083
74.26871137560083
71.92492561226825
85.79232471198596
96.04638742656596
104.24963759822995
112.84351873044938
110.89036392767224
117.04280155642023
121.33974212252994
120.36316472114137
122.41397726405738
123.87884336614023
121.53505760280765
120.16784924086366
120.36316472114137
115.48027771419852
111.76928358892195
112.5505455100328
106.59342336156253
102.19882505531396
95.46044098573282
89.30800335698481
90.67521171892882
82.66727702754254
76.8078126192111
78.07736324101626
70.06942854962998
64.20996414129854
58.8387884336614
53.27229724574655
54.54184786755169
48.48706797894255
44.09246967269398
45.069047074082555
40.96742198825055
38.03768978408484
34.91264209964141
31.787594415197987
32.37354085603113
30.322728313115128
28.857862211032273
29.2484931715877
29.150835431448844
29.150835431448844
28.174258030060273
27.392996108949415
27.588311589227132
27.49065384908827
27.49065384908827
27.49065384908827
27.49065384908827
27.49065384908827
26.514076447699704
25.732814526588847
25.92813000686656
24.95155260547799
24.17029068436713
24.365606164644845
23.389028763256274
22.60776684214542
21.826504921034562
21.045242999923705
21.14290074006256
19.18974593728542
17.724879835202564
18.11551079575799
16.064698252841993
14.599832150759136
13.037308308537423
11.47478446631571
11.767757686732281
9.81460288395514
8.349736781872283
8.642710002288853
6.6895551995117115
5.224689097428855
3.662165255207141
2.0996414129854277
2.392614633401999
1.416037232013428
0.6347753109025711
0.8300907911802854
-1.0254062714579995
-2.490272373540856
-2.197299153124285
-2.2949568932631417
-2.197299153124285
-3.1738765545128556
-3.9551384756237127
-3.7598229953459983
-4.736400396734569
-5.517662317845426
-5.322346837567712
-5.322346837567712
-5.322346837567712
-5.322346837567712
-5.322346837567712
-5.322346837567712
-5.322346837567712
-5.322346837567712
-5.322346837567712
-5.322346837567712
-5.322346837567712
-5.322346837567712
-5.322346837567712
-5.322346837567712
-4.345769436179141
-3.662165255207141
-1.9043259327077133
-0.34180209048599985
-0.7324330510414282
2.0996414129854277
4.345769436179141
3.8574807354848555
10.693522545204852
15.869382772564279
23.291371023117417
30.22507057297627
28.66254673075456
39.5025558861677
47.51049057755398
45.75265125505455
55.713740749217976
63.03807125963226
68.99519340810254
75.2452887769894
73.87808041504539
76.02655069810025
77.39375906004425
77.10078583962768
73.29213397421225
70.26474402990769
64.3076218814374
58.936446173800256
60.108339055466544
54.053559166857404
49.658960860608836
50.635538261997404
46.533913176165406
43.604180971999696
42.33463035019455
40.67444876783398
41.065079728389414
40.96742198825055
40.96742198825055
40.96742198825055
39.99084458686198
39.20958266575113
36.475165941863125
34.22903791866941
34.717326619363696
29.834439612420844
26.123445487144274
26.90470740825513
22.021820401312276
18.310826276035705
16.260013733119706
13.81857022964828
14.404516670481422
11.377126726176853
9.130998702983138
9.619287403677424
8.545052262149996
7.861448081177996
8.05676356145571
7.959105821316854
7.959105821316854
7.080186160067139
6.298924238956283
6.494239719233997
7.373159380483711
8.154421301594567
7.959105821316854
7.959105821316854
7.959105821316854
6.982528419928283
6.298924238956283
6.39658197909514
6.39658197909514
6.39658197909514
5.420004577706569
4.736400396734569
4.834058136873426
3.8574807354848555
3.1738765545128556
3.2715342946517127
1.3183794918745708
-0.04882887006942855
-0.6347753109025711
-1.513694972152285
-1.3183794918745708
-3.2715342946517127
-4.736400396734569
-4.345769436179141
-5.420004577706569
-6.103608758678568
-7.861448081177996
-9.42397192339971
-9.033340962844282
-10.10757610437171
-10.79118028534371
-10.595864805065995
-11.670099946593423
-12.353704127565424
-13.13496604867628
-13.916227969787137
-13.720912489509422
-13.81857022964828
-13.720912489509422
-13.720912489509422
-14.697489890897993
-15.47875181200885
-15.283436331731137
-15.283436331731137
-15.283436331731137
-15.283436331731137
-15.283436331731137
-15.283436331731137
-15.283436331731137
-15.283436331731137
-14.306858930342566
-13.525597009231708
-13.720912489509422
-10.79118028534371
-8.642710002288853
-9.130998702983138
-3.2715342946517127
1.1230640115968566
7.763790341039139
13.916227969787137
12.549019607843137
22.314793621728846
29.736781872281988
28.076600289921416
37.94003204394598
45.26436255436027
51.31914244296941
57.56923781185626
56.20202944991226
61.28023193713283
64.89356832227054
64.01464866102083
66.06546120393683
67.53032730601969
65.28419928282597
63.819333180743115
64.11230640115969
61.182574196993976
58.936446173800256
59.42473487449455
54.54184786755169
50.83085374227512
45.85030899519341
41.26039520866713
42.236972610055695
36.27985046158541
31.885252155336843
32.86182955672541
26.90470740825513
22.412451361867703
18.701457236591136
14.697489890897993
15.576409552147707
10.595864805065995
6.982528419928283
7.763790341039139
3.7598229953459983
0.8300907911802854
-0.34180209048599985
-2.0019836728465705
-1.6113527122911422
-2.5879301136797133
-3.36919203479057
-3.1738765545128556
-3.2715342946517127
-3.2715342946517127
-3.2715342946517127
-3.2715342946517127
-3.1738765545128556
-2.2949568932631417
-1.513694972152285
-1.7090104524299992
-1.6113527122911422
-1.6113527122911422
-1.6113527122911422
-1.6113527122911422
-1.6113527122911422
-1.6113527122911422
-1.6113527122911422
-1.6113527122911422
-1.6113527122911422
-1.6113527122911422
-2.5879301136797133
-3.36919203479057
-3.1738765545128556
-4.150453955901427
-4.931715877012284
-4.736400396734569
-5.71297779812314
-6.494239719233997
-6.298924238956283
-6.298924238956283
-6.298924238956283
-7.275501640344854
-8.05676356145571
-7.861448081177996
-8.838025482566568
-9.521629663538567
-10.400549324788281
-11.181811245899137
-10.986495765621424
-10.986495765621424
-10.986495765621424
-10.986495765621424
-11.963073167009995
-12.646677347981994
-12.45136186770428
-12.549019607843137
-12.549019607843137
-12.549019607843137
-12.549019607843137
-12.549019607843137
-12.549019607843137
-12.549019607843137
-12.45136186770428
-12.45136186770428
-12.45136186770428
-15.381094071869994
-17.52956435492485
-17.041275654230564
-20.947585259784848
-23.974975204089418
-25.146868085755703
-26.807049668116274
-26.416418707560844
-24.560921644922562
-23.096055542839704
-23.389028763256274
-16.650644693675137
-11.47478446631571
-2.0996414129854277
6.201266498817426
4.345769436179141
19.092088197146563
30.127412832837415
27.68596932936599
40.57679102769512
50.14724956130312
56.59266041046769
63.72167544060426
62.15915159838254
66.26077668421455
69.0928511482414
68.50690470740825
68.60456244754711
68.50690470740825
65.6748302433814
63.42870222018769
63.91699092088197
59.91302357518883
56.983291371023114
57.56923781185626
51.709773403524835
47.31517509727627
42.529945830472265
37.84237430380713
38.818951705195694
32.86182955672541
28.467231250476843
29.443808651865414
24.4632639047837
20.752269779507134
15.869382772564279
11.181811245899137
12.256046387426567
8.154421301594567
5.224689097428855
5.908293278400855
2.8809033340962844
0.7324330510414282
-1.6113527122911422
-3.9551384756237127
-3.36919203479057
-5.420004577706569
-6.884870679789426
-6.591897459372854
-7.568474860761425
-8.252079041733426
-9.130998702983138
-9.912260624093996
-9.71694514381628
-10.693522545204852
-11.377126726176853
-11.279468986037996
-11.279468986037996
-11.279468986037996
-12.256046387426567
-12.939650568398566
-12.74433508812085
-13.81857022964828
-14.50217441062028
-14.306858930342566
-15.283436331731137
-16.064698252841993
-16.84596017395285
-17.627222095063708
-17.43190661478599
-18.40848401617456
-19.18974593728542
-18.994430457007706
-20.947585259784848
-22.412451361867703
-22.021820401312276
-22.119478141451133
-22.119478141451133
-23.096055542839704
-23.779659723811704
-23.58434424353399
-24.560921644922562
-25.342183566033416
-25.146868085755703
-25.146868085755703
-25.146868085755703
-25.146868085755703
-25.146868085755703
-25.146868085755703
-26.123445487144274
-26.807049668116274
-26.61173418783856
-26.709391927977418
-26.61173418783856
-26.61173418783856
-26.61173418783856
-26.61173418783856
-27.588311589227132
-28.27191577019913
-29.053177691309987
-29.834439612420844
-29.63912413214313
-29.736781872281988
-29.736781872281988
-29.736781872281988
-30.615701533531702
-31.396963454642556
-30.22507057297627
-29.541466392004274
-29.63912413214313
-26.807049668116274
-24.560921644922562
-25.049210345616846
-19.18974593728542
-14.697489890897993
-8.05676356145571
-1.9043259327077133
-3.2715342946517127
5.517662317845426
12.158388647287708
10.693522545204852
19.58037689784085
26.22110322728313
30.420386053253985
35.20561532005799
34.131380178530556
38.1353475242237
41.065079728389414
40.38147554741741
40.57679102769512
40.479133287556266
38.62363622491798
37.06111238269627
37.4517433432517
32.56885633630884
28.857862211032273
29.63912413214313
23.779659723811704
19.287403677424276
14.599832150759136
9.912260624093996
10.888838025482567
4.931715877012284
0.537117570763714
1.513694972152285
-3.36919203479057
-7.080186160067139
-10.986495765621424
-14.892805371175708
-14.013885709925994
-18.017853055619135
-20.947585259784848
-20.263981078812847
-23.291371023117417
-25.439841306172273
-25.92813000686656
-26.807049668116274
-26.61173418783856
-26.61173418783856
-26.61173418783856
-26.61173418783856
-25.63515678644999
-24.853894865339132
-24.072632944228275
-23.291371023117417
-23.48668650339513
-22.412451361867703
-21.728847180895706
-21.826504921034562
-19.87335011825742
-18.40848401617456
-18.799114976729992
-18.701457236591136
-18.701457236591136
-17.724879835202564
-16.943617914091707
-17.13893339436942
-17.13893339436942
-17.13893339436942
-18.017853055619135
-18.799114976729992
-18.60379949645228
-18.60379949645228
-18.60379949645228
-18.60379949645228
-19.58037689784085
-20.263981078812847
-21.045242999923705
-21.826504921034562
-21.728847180895706
-24.560921644922562
-26.807049668116274
-26.318760967421987
-32.08056763561456
-36.57282368200198
-40.28381780727855
-44.19012741283284
-43.311207751583126
-45.45967803463798
-46.826886396581976
-46.533913176165406
-46.63157091630426
-46.533913176165406
-43.70183871213855
-41.45571068894484
-41.943999389639124
-36.0845349813077
-31.592278934920273
-32.56885633630884
-27.588311589227132
-23.87731746395056
-21.826504921034562
-19.48271915770199
-19.971007858396277
-19.87335011825742
-19.87335011825742
-19.87335011825742
-17.920195315480278
-16.45532921339742
-11.963073167009995
-8.252079041733426
-9.033340962844282
-3.1738765545128556
1.2207217517357138
0.24414435034714274
9.033340962844282
15.674067292286564
22.705424582284277
29.736781872281988
28.174258030060273
37.15877012283513
43.70183871213855
42.236972610055695
47.31517509727627
50.928511482413974
52.97932402532997
55.420767528801406
54.83482108796826
53.95590142671855
53.17463950560769
53.36995498588541
49.46364538033112
46.533913176165406
43.311207751583126
40.186160067139696
40.86976424811169
35.010299839780274
30.518043793392845
31.494621194781413
25.537499046311133
21.14290074006256
17.334248874647134
13.427939269092851
14.306858930342566
8.349736781872283
3.9551384756237127
4.931715877012284
0.8300907911802854
-2.0019836728465705
-4.150453955901427
-6.591897459372854
-6.005951018539712
-8.05676356145571
-9.521629663538567
-9.130998702983138
-10.205233844510566
-10.888838025482567
-10.79118028534371
-10.79118028534371
-10.79118028534371
-10.79118028534371
-10.79118028534371
-10.79118028534371
-9.81460288395514
-9.033340962844282
-8.252079041733426
-7.470817120622568
-7.666132600900283
-7.568474860761425
-7.666132600900283
-7.568474860761425
-7.568474860761425
-7.568474860761425
-7.568474860761425
-7.568474860761425
-7.568474860761425
-7.568474860761425
-7.568474860761425
-7.568474860761425
-8.545052262149996
-9.326314183260854
-10.10757610437171
-10.888838025482567
-10.693522545204852
-11.670099946593423
-12.353704127565424
-12.256046387426567
-13.232623788815136
-13.916227969787137
-14.697489890897993
-15.47875181200885
-15.283436331731137
-15.381094071869994
-15.381094071869994
-15.381094071869994
-16.260013733119706
-17.041275654230564
-16.84596017395285
-16.943617914091707
-16.84596017395285
-17.82253757534142
-18.60379949645228
-18.40848401617456
-18.40848401617456
-18.40848401617456
-18.40848401617456
-18.40848401617456
-18.40848401617456
-18.40848401617456
-18.40848401617456
-18.40848401617456
-17.43190661478599
-16.650644693675137
-14.892805371175708
-13.427939269092851
-13.720912489509422
-8.838025482566568
-5.224689097428855
-6.005951018539712
1.7090104524299992
7.666132600900283
15.869382772564279
23.58434424353399
21.826504921034562
32.764171816586554
40.772106507972836
39.014267185473415
48.877698939497975
56.20202944991226
61.28023193713283
66.84672312504769
65.57717250324254
68.70222018768597
70.85069047074083
70.36240177004655
70.36240177004655
70.36240177004655
67.53032730601969
65.18654154268711
65.6748302433814
62.745098039215684
60.49897001602197
60.987258716716255
56.1043717097734
52.39337758449683
48.38941023880369
44.48310063324941
45.362020294499125
40.38147554741741
36.67048142214084
37.4517433432517
32.471198596169984
28.857862211032273
24.853894865339132
20.947585259784848
21.826504921034562
17.82253757534142
14.892805371175708
15.47875181200885
11.572442206454566
8.545052262149996
6.39658197909514
3.9551384756237127
4.541084916456855
3.466849774929427
2.783245593957427
2.8809033340962844
1.9043259327077133
1.1230640115968566
1.3183794918745708
1.3183794918745708
1.3183794918745708
1.3183794918745708
1.3183794918745708
1.3183794918745708
1.3183794918745708
1.3183794918745708
1.3183794918745708
1.3183794918745708
1.3183794918745708
-1.513694972152285
-3.662165255207141
-3.1738765545128556
-8.05676356145571
-11.767757686732281
-15.674067292286564
-19.58037689784085
-18.701457236591136
-21.826504921034562
-23.974975204089418
-23.48668650339513
-23.58434424353399
-23.58434424353399
-21.63118944075685
-20.16632333867399
-20.45929655909056
-16.55298695353628
-13.623254749370565
-14.209201190203707
-10.302891584649425
-7.373159380483711
-7.080186160067139
-6.103608758678568
-6.298924238956283
-7.275501640344854
-7.959105821316854
-7.861448081177996
-7.861448081177996
-7.861448081177996
-8.838025482566568
-9.521629663538567
-9.42397192339971
-9.42397192339971
-9.42397192339971
-9.42397192339971
-10.400549324788281
-11.08415350576028
-10.888838025482567
-10.986495765621424
-10.986495765621424
-10.009918364232853
-9.228656443121995
-9.42397192339971
-7.470817120622568
-6.005951018539712
-1.513694972152285
2.197299153124285
1.3183794918745708
9.130998702983138
14.990463111314565
13.720912489509422
23.58434424353399
30.908674753948272
38.818951705195694
46.533913176165406
44.873731593804834
53.760585946440834
60.401312275883114
58.936446173800256
64.89356832227054
69.28816662851911
71.1436636911574
73.58510719462882
72.99916075379568
72.12024109254597
71.33897917143511
71.53429465171283
68.60456244754711
66.3584344243534
63.03807125963226
59.91302357518883
60.59662775616083
56.59266041046769
53.66292820630198
54.24887464713512
49.365987640192266
45.654993514915695
41.651026169222554
37.74471656366827
38.62363622491798
33.64309147783627
29.9320973525597
30.71335927367056
25.830472266727703
22.119478141451133
19.092088197146563
15.967040512703136
16.650644693675137
13.623254749370565
11.377126726176853
11.865415426871138
8.935683222705425
6.6895551995117115
6.201266498817426
5.420004577706569
5.615320057984283
4.541084916456855
3.8574807354848555
4.052796215762569
3.9551384756237127
3.9551384756237127
2.9785610742351416
2.2949568932631417
2.490272373540856
2.392614633401999
2.392614633401999
2.392614633401999
1.416037232013428
0.7324330510414282
0.04882887006942855
-0.7324330510414282
-0.537117570763714
-2.490272373540856
-4.052796215762569
-3.662165255207141
-5.615320057984283
-7.080186160067139
-7.763790341039139
-8.545052262149996
-8.349736781872283
-10.302891584649425
-11.767757686732281
-11.47478446631571
-13.427939269092851
-14.892805371175708
-15.576409552147707
-16.357671473258563
-16.16235599298085
-17.13893339436942
-17.920195315480278
-17.724879835202564
-18.701457236591136
-19.385061417563133
-20.16632333867399
-20.947585259784848
-20.84992751964599
-21.826504921034562
-22.510109102006563
-22.314793621728846
-22.412451361867703
-22.314793621728846
-23.291371023117417
-24.072632944228275
-23.87731746395056
-24.853894865339132
-25.537499046311133
-25.439841306172273
-25.439841306172273
-25.439841306172273
-25.439841306172273
-25.439841306172273
-25.439841306172273
-24.4632639047837
-23.682001983672848
-23.87731746395056
-20.947585259784848
-18.701457236591136
-14.404516670481422
-10.595864805065995
-11.47478446631571
-3.662165255207141
2.197299153124285
0.8300907911802854
10.693522545204852
18.11551079575799
26.025787747005417
33.74074921797513
31.9829098954757
39.99084458686198
45.85030899519341
44.580758373388264
49.56130312046998
53.27229724574655
53.36995498588541
54.24887464713512
54.053559166857404
52.19806210421912
50.635538261997404
50.928511482413974
47.998779278248264
45.75265125505455
41.45571068894484
37.64705882352941
38.525978484779124
33.545433737697415
29.834439612420844
30.615701533531702
25.732814526588847
22.021820401312276
18.017853055619135
14.11154345006485
14.990463111314565
10.009918364232853
6.39658197909514
7.177843900205997
3.1738765545128556
0.24414435034714274
-2.783245593957427
-5.908293278400855
-5.224689097428855
-11.08415350576028
-15.576409552147707
-14.599832150759136
-20.45929655909056
-24.95155260547799
-29.63912413214313
-34.32669565880827
-33.252460517280845
-34.424353398947126
-35.10795757991913
-34.91264209964141
-34.0337224383917
-33.252460517280845
-29.63912413214313
-26.61173418783856
-27.1976806286717
-21.338216220340275
-16.943617914091707
-17.920195315480278
-11.963073167009995
-7.568474860761425
-6.591897459372854
-4.931715877012284
-5.322346837567712
-6.103608758678568
-6.884870679789426
-6.6895551995117115
-8.642710002288853
-10.10757610437171
-10.79118028534371
-11.572442206454566
-11.377126726176853
-12.353704127565424
-13.13496604867628
-12.939650568398566
-13.916227969787137
-14.697489890897993
-14.50217441062028
-14.50217441062028
-14.50217441062028
-15.47875181200885
-16.260013733119706
-16.064698252841993
-16.064698252841993
-16.064698252841993
-17.041275654230564
-17.724879835202564
-17.627222095063708
-17.627222095063708
-17.627222095063708
-17.627222095063708
-18.506141756313422
-19.287403677424276
-20.068665598535134
-20.84992751964599
-20.654612039368278
-21.63118944075685
-22.412451361867703
-22.21713588158999
-22.21713588158999
-22.21713588158999
-22.21713588158999
-22.21713588158999
-22.21713588158999
-20.263981078812847
-18.799114976729992
-19.092088197146563
-15.185778591592278
-12.256046387426567
-6.201266498817426
-0.9277485313191425
-2.0996414129854277
6.6895551995117115
13.330281528953995
11.865415426871138
20.752269779507134
27.392996108949415
33.545433737697415
39.79552910658427
38.33066300450141
43.40886549172198
47.11985961699855
46.240939955748836
48.291752498664835
49.75661860074769
48.48706797894255
47.80346379797055
47.90112153810941
44.97138933394369
42.72526131074998
43.21355001144427
39.307240405889985
36.37750820172427
33.15480277714199
30.029755092698558
30.71335927367056
25.830472266727703
22.119478141451133
22.90074006256199
18.89677271686885
15.967040512703136
11.865415426871138
7.959105821316854
8.838025482566568
4.834058136873426
1.9043259327077133
2.5879301136797133
-1.3183794918745708
-4.248111696040284
-5.517662317845426
-7.177843900205997
-6.787212939650568
-8.74036774242771
-10.205233844510566
-9.912260624093996
-10.009918364232853
-9.912260624093996
-9.912260624093996
-9.912260624093996
-9.912260624093996
-9.912260624093996
-9.912260624093996
-9.912260624093996
-9.912260624093996
-9.912260624093996
-9.912260624093996
-9.912260624093996
-9.912260624093996
-10.888838025482567
-11.572442206454566
-11.47478446631571
-11.47478446631571
-11.47478446631571
-12.45136186770428
-13.13496604867628
-13.037308308537423
-14.013885709925994
-14.697489890897993
-14.50217441062028
-15.47875181200885
-16.260013733119706
-16.064698252841993
-16.16235599298085
-16.064698252841993
-17.041275654230564
-17.82253757534142
-17.627222095063708
-17.627222095063708
-17.627222095063708
-18.60379949645228
-19.287403677424276
-19.18974593728542
-19.18974593728542
-19.18974593728542
-19.18974593728542
-20.068665598535134
-20.84992751964599
-20.654612039368278
-20.752269779507134
-20.654612039368278
-20.654612039368278
-20.654612039368278
-20.654612039368278
-21.63118944075685
-22.314793621728846
-22.21713588158999
-22.21713588158999
-22.21713588158999
-22.21713588158999
-22.21713588158999
-22.21713588158999
-22.21713588158999
-22.21713588158999
-19.287403677424276
-17.041275654230564
-17.52956435492485
-12.646677347981994
-8.935683222705425
-9.81460288395514
-2.0019836728465705
3.8574807354848555
12.060730907148852
19.775692378118563
18.017853055619135
27.97894254978256
35.303273060196844
33.64309147783627
42.62760357061112
49.17067215991455
53.467612726024264
58.25284199282826
57.178606851300835
59.22941939421683
60.694285496299685
60.30365453574426
60.401312275883114
60.401312275883114
58.44815747310597
56.88563363088426
57.27626459143969
53.36995498588541
50.34256504158083
51.02616922255284
43.21355001144427
37.256427862973986
30.908674753948272
24.65857938506142
26.123445487144274
20.947585259784848
17.334248874647134
18.11551079575799
14.11154345006485
11.181811245899137
9.912260624093996
8.349736781872283
8.642710002288853
9.521629663538567
10.302891584649425
10.10757610437171
11.08415350576028
11.865415426871138
10.693522545204852
10.009918364232853
10.205233844510566
8.252079041733426
6.787212939650568
7.080186160067139
6.005951018539712
5.322346837567712
5.420004577706569
5.420004577706569
5.420004577706569
4.443427176317998
3.7598229953459983
3.8574807354848555
3.8574807354848555
3.8574807354848555
2.8809033340962844
2.197299153124285
2.2949568932631417
1.3183794918745708
0.6347753109025711
0.7324330510414282
-0.14648661020828566
-0.8300907911802854
-2.5879301136797133
-4.150453955901427
-3.7598229953459983
-4.834058136873426
-5.517662317845426
-5.420004577706569
-7.275501640344854
-8.838025482566568
-9.42397192339971
-10.205233844510566
-10.009918364232853
-11.963073167009995
-13.427939269092851
-13.13496604867628
-14.11154345006485
-14.892805371175708
-15.674067292286564
-16.45532921339742
-16.260013733119706
-17.236591134508277
-18.017853055619135
-17.82253757534142
-17.82253757534142
-17.82253757534142
-18.799114976729992
-19.48271915770199
-19.385061417563133
-19.385061417563133
-19.385061417563133
-19.385061417563133
-19.385061417563133
-19.385061417563133
-19.385061417563133
-19.287403677424276
-19.287403677424276
-18.40848401617456
-17.627222095063708
-17.82253757534142
-16.748302433813993
-16.064698252841993
-13.330281528953995
-11.08415350576028
-11.572442206454566
-5.71297779812314
-1.3183794918745708
-2.2949568932631417
6.39658197909514
13.037308308537423
21.14290074006256
28.857862211032273
27.1976806286717
36.0845349813077
42.72526131074998
41.26039520866713
49.17067215991455
55.03013656824598
58.44815747310597
62.45212481879911
61.5732051575494
63.6240177004654
65.08888380254825
64.69825284199283
62.84275577935454
61.37788967727169
59.71770809491112
58.1551842526894
58.54581521324483
54.639505607690545
51.61211566338598
52.295719844357976
48.291752498664835
45.362020294499125
43.11589227130541
40.67444876783398
41.26039520866713
37.256427862973986
34.32669565880827
35.010299839780274
30.029755092698558
26.318760967421987
23.291371023117417
20.16632333867399
20.84992751964599
16.84596017395285
13.916227969787137
14.599832150759136
11.572442206454566
9.42397192339971
7.959105821316854
6.39658197909514
6.6895551995117115
4.736400396734569
3.2715342946517127
3.5645075150682843
2.5879301136797133
1.8066681925688564
1.0254062714579995
0.24414435034714274
0.43945983062485694
-0.43945983062485694
-1.2207217517357138
-1.0254062714579995
-2.0019836728465705
-2.783245593957427
-3.5645075150682843
-4.345769436179141
-4.150453955901427
-5.127031357289998
-5.908293278400855
-5.71297779812314
-7.666132600900283
-9.130998702983138
-10.693522545204852
-12.256046387426567
-11.963073167009995
-13.916227969787137
-15.381094071869994
-14.990463111314565
-16.064698252841993
-16.748302433813993
-18.506141756313422
-20.068665598535134
-19.678034637979707
-20.752269779507134
-21.43587396047913
-21.24055848020142
-23.19371328297856
-24.65857938506142
-25.24452582589456
-26.123445487144274
-25.92813000686656
-25.92813000686656
-25.92813000686656
-25.92813000686656
-26.90470740825513
-27.588311589227132
-27.392996108949415
-27.49065384908827
-27.392996108949415
-27.392996108949415
-27.392996108949415
-27.392996108949415
-28.369573510337986
-29.053177691309987
-28.95551995117113
-28.95551995117113
-28.95551995117113
-28.95551995117113
-28.95551995117113
-28.857862211032273
-28.857862211032273
-28.857862211032273
-27.002365148393988
-25.439841306172273
-25.830472266727703
-24.756237125200276
-23.974975204089418
-24.17029068436713
-23.19371328297856
-22.412451361867703
-17.82253757534142
-14.11154345006485
-14.892805371175708
-7.080186160067139
-1.1230640115968566
-2.490272373540856
8.252079041733426
16.357671473258563
25.049210345616846
33.545433737697415
31.68993667505913
40.67444876783398
47.21751735713741
45.75265125505455
51.80743114366369
56.20202944991226
56.1043717097734
57.08094911116198
56.88563363088426
53.07698176546884
50.04959182116426
50.73319600213626
46.72922865644312
43.79949645227741
39.600213626306555
35.79156176089113
36.57282368200198
31.592278934920273
27.97894254978256
28.760204470893417
23.779659723811704
20.16632333867399
16.16235599298085
12.256046387426567
13.13496604867628
8.154421301594567
4.443427176317998
5.322346837567712
1.3183794918745708
-1.513694972152285
-3.7598229953459983
-6.103608758678568
-5.615320057984283
-7.666132600900283
-9.033340962844282
-8.74036774242771
-9.81460288395514
-10.498207064927138
-10.302891584649425
-10.400549324788281
-10.400549324788281
-10.400549324788281
-10.302891584649425
-10.302891584649425
-10.302891584649425
-10.302891584649425
-11.279468986037996
-12.060730907148852
-11.865415426871138
-11.865415426871138
-11.865415426871138
-11.865415426871138
-12.84199282825971
-13.525597009231708
-14.306858930342566
-15.088120851453422
-14.990463111314565
-16.943617914091707
-18.40848401617456
-18.017853055619135
-19.092088197146563
-19.775692378118563
-21.533531700617992
-22.998397802700847
-22.705424582284277
-23.682001983672848
-24.4632639047837
-24.267948424505988
-25.24452582589456
-25.92813000686656
-26.709391927977418
-27.49065384908827
-27.295338368810558
-28.369573510337986
-29.053177691309987
-28.857862211032273
-29.834439612420844
-30.615701533531702
-30.420386053253985
-30.420386053253985
-30.420386053253985
-31.396963454642556
-32.08056763561456
-31.885252155336843
-31.9829098954757
-31.885252155336843
-31.885252155336843
-31.885252155336843
-31.885252155336843
-31.885252155336843
-31.885252155336843
-31.885252155336843
-31.885252155336843
-31.885252155336843
-31.885252155336843
-31.787594415197987
-31.787594415197987
-28.95551995117113
-26.709391927977418
-27.1976806286717
-22.314793621728846
-18.60379949645228
-12.74433508812085
-7.373159380483711
-8.545052262149996
1.1230640115968566
8.545052262149996
6.884870679789426
16.84596017395285
24.17029068436713
30.127412832837415
36.475165941863125
35.010299839780274
41.065079728389414
45.45967803463798
44.48310063324941
46.533913176165406
47.998779278248264
46.63157091630426
45.947966735332265
46.14328221560998
43.21355001144427
40.96742198825055
41.45571068894484
37.549401083390556
34.52201113908598
31.396963454642556
28.27191577019913
28.95551995117113
23.974975204089418
20.361638818951704
21.14290074006256
15.185778591592278
10.79118028534371
6.982528419928283
3.076218814373999
3.9551384756237127
0.04882887006942855
-2.8809033340962844
-2.2949568932631417
-5.224689097428855
-7.470817120622568
-8.838025482566568
-10.498207064927138
-10.10757610437171
-11.181811245899137
-11.865415426871138
-11.670099946593423
-11.767757686732281
-11.670099946593423
-11.670099946593423
-11.670099946593423
-11.670099946593423
-10.79118028534371
-10.009918364232853
-10.205233844510566
-10.10757610437171
-10.10757610437171
-10.10757610437171
-10.10757610437171
-10.10757610437171
-10.10757610437171
-10.10757610437171
-10.10757610437171
-11.08415350576028
-11.767757686732281
-11.670099946593423
-11.670099946593423
-11.670099946593423
-12.646677347981994
-13.330281528953995
-13.13496604867628
-14.11154345006485
-14.892805371175708
-15.674067292286564
-16.45532921339742
-16.260013733119706
-17.236591134508277
-18.017853055619135
-17.82253757534142
-18.799114976729992
-19.48271915770199
-19.385061417563133
-19.385061417563133
-19.385061417563133
-22.21713588158999
-24.4632639047837
-23.974975204089418
-28.857862211032273
-32.471198596169984
-35.49858854047456
-38.62363622491798
-37.94003204394598
-39.99084458686198
-41.45571068894484
-41.065079728389414
-41.16273746852827
-41.065079728389414
-39.20958266575113
-37.64705882352941
-38.03768978408484
-33.15480277714199
-29.443808651865414
-30.22507057297627
-26.22110322728313
-23.291371023117417
-21.045242999923705
-18.701457236591136
-19.18974593728542
-17.236591134508277
-15.771725032425422
-16.064698252841993
-11.181811245899137
-7.470817120622568
-1.6113527122911422
3.662165255207141
2.490272373540856
12.256046387426567
19.58037689784085
18.017853055619135
27.881284809643702
35.20561532005799
42.13931486991684
49.17067215991455
47.60814831769284
53.66292820630198
58.057526512550545
57.08094911116198
60.108339055466544
62.2568093385214
61.768520637827116
61.86617837796597
61.768520637827116
59.91302357518883
58.350499732967116
58.74113069352254
55.713740749217976
53.467612726024264
50.14724956130312
47.11985961699855
47.705806057831694
43.79949645227741
40.772106507972836
41.45571068894484
36.475165941863125
32.86182955672541
29.834439612420844
26.61173418783856
27.295338368810558
22.412451361867703
18.701457236591136
19.58037689784085
15.47875181200885
12.549019607843137
9.42397192339971
6.298924238956283
6.982528419928283
4.931715877012284
3.466849774929427
3.7598229953459983
1.8066681925688564
0.34180209048599985
-1.1230640115968566
-2.68558785381857
-2.392614633401999
-2.392614633401999
-2.392614633401999
-2.392614633401999
-3.36919203479057
-4.150453955901427
-3.9551384756237127
-3.9551384756237127
-3.9551384756237127
-4.931715877012284
-5.71297779812314
-5.517662317845426
-6.494239719233997
-7.177843900205997
-7.080186160067139
-7.080186160067139
-7.080186160067139
-9.033340962844282
-10.498207064927138
-10.10757610437171
-11.181811245899137
-11.865415426871138
-12.646677347981994
-13.427939269092851
-13.232623788815136
-14.306858930342566
-14.990463111314565
-14.795147631036851
-16.748302433813993
-18.21316853589685
-17.920195315480278
-17.920195315480278
-17.920195315480278
-18.89677271686885
-19.678034637979707
-19.48271915770199
-20.45929655909056
-21.14290074006256
-21.045242999923705
-21.045242999923705
-21.045242999923705
-21.92416266117342
-22.705424582284277
-22.510109102006563
-22.60776684214542
-22.510109102006563
-23.48668650339513
-24.267948424505988
-24.072632944228275
-24.072632944228275
-24.072632944228275
-24.072632944228275
-24.072632944228275
-24.072632944228275
-24.072632944228275
-24.072632944228275
-24.072632944228275
-23.096055542839704
-22.314793621728846
-22.510109102006563
-18.60379949645228
-15.674067292286564
-10.595864805065995
-6.005951018539712
-6.982528419928283
1.7090104524299992
8.349736781872283
6.884870679789426
16.748302433813993
24.072632944228275
32.95948729686427
41.45571068894484
39.600213626306555
47.60814831769284
53.467612726024264
52.19806210421912
57.178606851300835
60.79194323643854
61.86617837796597
63.526359960326545
63.13572899977112
62.2568093385214
61.475547417410546
61.67086289768826
59.71770809491112
58.1551842526894
54.639505607690545
51.61211566338598
52.295719844357976
48.291752498664835
45.362020294499125
45.947966735332265
41.943999389639124
39.014267185473415
34.91264209964141
31.00633249408713
31.885252155336843
26.90470740825513
23.19371328297856
24.072632944228275
20.068665598535134
17.13893339436942
13.916227969787137
10.79118028534371
11.47478446631571
7.470817120622568
4.541084916456855
5.224689097428855
3.1738765545128556
1.7090104524299992
0.14648661020828566
-1.3183794918745708
-1.0254062714579995
-2.0019836728465705
-2.783245593957427
-2.5879301136797133
-3.5645075150682843
-4.345769436179141
-4.150453955901427
-4.150453955901427
-4.150453955901427
-6.982528419928283
-9.228656443121995
-8.74036774242771
-14.599832150759136
-18.994430457007706
-22.803082322423133
-26.709391927977418
-25.830472266727703
-28.857862211032273
-31.103990234225986
-30.615701533531702
-30.71335927367056
-30.615701533531702
-28.760204470893417
-27.1976806286717
-27.588311589227132
-22.705424582284277
-18.994430457007706
-19.775692378118563
-15.771725032425422
-12.84199282825971
-12.549019607843137
-11.670099946593423
-11.865415426871138
-13.720912489509422
-15.185778591592278
-14.892805371175708
-15.869382772564279
-16.650644693675137
-17.43190661478599
-18.21316853589685
-18.017853055619135
-18.017853055619135
-18.017853055619135
-18.017853055619135
-18.994430457007706
-19.678034637979707
-19.48271915770199
-19.58037689784085
-19.58037689784085
-20.45929655909056
-21.24055848020142
-21.045242999923705
-21.045242999923705
-21.045242999923705
-21.045242999923705
-21.045242999923705
-21.045242999923705
-21.045242999923705
-21.045242999923705
-21.045242999923705
-20.068665598535134
-19.287403677424276
-16.650644693675137
-14.306858930342566
-14.892805371175708
-9.033340962844282
-4.541084916456855
-5.517662317845426
3.1738765545128556
9.81460288395514
16.943617914091707
23.87731746395056
22.314793621728846
32.27588311589227
39.600213626306555
37.94003204394598
45.947966735332265
51.80743114366369
54.24887464713512
57.471580071717405
56.7879758907454
57.86221103227283
58.54581521324483
58.350499732967116
57.471580071717405
56.690318150606544
52.97932402532997
49.951934081025406
50.635538261997404
46.63157091630426
43.70183871213855
44.28778515297169
39.40489814602884
35.69390402075227
30.811017013809415
26.123445487144274
27.1976806286717
22.119478141451133
18.506141756313422
19.287403677424276
14.306858930342566
10.693522545204852
6.6895551995117115
2.783245593957427
3.662165255207141
-0.24414435034714274
-3.1738765545128556
-2.490272373540856
-5.517662317845426
-7.763790341039139
-9.130998702983138
-10.693522545204852
-10.400549324788281
-11.377126726176853
-12.158388647287708
-11.963073167009995
-11.963073167009995
-11.963073167009995
-11.963073167009995
-11.963073167009995
-11.963073167009995
-11.963073167009995
-11.963073167009995
-11.963073167009995
-11.963073167009995
-11.963073167009995
-12.939650568398566
-13.623254749370565
-13.525597009231708
-13.525597009231708
-13.525597009231708
-13.525597009231708
-14.404516670481422
-15.185778591592278
-15.967040512703136
-16.748302433813993
-16.55298695353628
-18.506141756313422
-19.971007858396277
-19.678034637979707
-20.654612039368278
-21.43587396047913
-22.21713588158999
-22.90074006256199
-22.803082322423133
-24.65857938506142
-26.22110322728313
-25.830472266727703
-26.90470740825513
-27.588311589227132
-28.369573510337986
-29.150835431448844
-28.95551995117113
-29.9320973525597
-30.615701533531702
-30.518043793392845
-30.518043793392845
-30.518043793392845
-31.396963454642556
-32.178225375753414
-31.9829098954757
-32.95948729686427
-33.74074921797513
-33.545433737697415
-33.545433737697415
-33.545433737697415
-33.545433737697415
-33.545433737697415
-33.545433737697415
-33.44777599755856
-33.44777599755856
-33.44777599755856
-32.471198596169984
-31.787594415197987
-29.053177691309987
-26.807049668116274
-27.295338368810558
-21.43587396047913
-16.943617914091707
-17.920195315480278
-10.10757610437171
-4.248111696040284
2.9785610742351416
9.912260624093996
8.44739452201114
17.334248874647134
23.974975204089418
22.510109102006563
28.467231250476843
32.86182955672541
35.69390402075227
38.91660944533455
38.1353475242237
38.33066300450141
38.23300526436255
38.23300526436255
36.37750820172427
34.81498435950255
31.396963454642556
28.27191577019913
28.95551995117113
24.072632944228275
20.361638818951704
21.14290074006256
16.16235599298085
12.549019607843137
7.568474860761425
2.9785610742351416
3.9551384756237127
-2.783245593957427
-7.959105821316854
-6.787212939650568
-15.674067292286564
-22.314793621728846
-27.49065384908827
-33.05714503700313
-31.787594415197987
-35.889219501029984
-38.72129396505684
-38.1353475242237
-38.23300526436255
-38.1353475242237
-35.303273060196844
-33.05714503700313
-33.545433737697415
-28.66254673075456
-24.95155260547799
-25.732814526588847
-20.84992751964599
-17.13893339436942
-15.088120851453422
-12.646677347981994
-13.232623788815136
-13.037308308537423
-13.13496604867628
-13.13496604867628
-13.13496604867628
-13.037308308537423
-13.037308308537423
-13.037308308537423
-13.037308308537423
-14.013885709925994
-14.795147631036851
-14.599832150759136
-15.576409552147707
-16.260013733119706
-17.13893339436942
-17.82253757534142
-17.724879835202564
-18.701457236591136
-19.385061417563133
-19.18974593728542
-20.263981078812847
-20.947585259784848
-21.728847180895706
-22.510109102006563
-22.314793621728846
-23.291371023117417
-24.072632944228275
-23.87731746395056
-24.853894865339132
-25.537499046311133
-25.439841306172273
-25.439841306172273
-25.439841306172273
-26.318760967421987
-27.100022888532845
-26.90470740825513
-26.90470740825513
-26.90470740825513
-26.90470740825513
-26.90470740825513
-26.90470740825513
-26.90470740825513
-26.90470740825513
-26.90470740825513
-25.92813000686656
-25.146868085755703
-25.342183566033416
-25.24452582589456
-25.24452582589456
-24.365606164644845
-23.58434424353399
-23.682001983672848
-23.682001983672848
-23.682001983672848
-22.705424582284277
-21.92416266117342
-22.119478141451133
-21.14290074006256
-20.361638818951704
-20.55695429922942
-16.650644693675137
-13.720912489509422
-8.642710002288853
-4.052796215762569
-5.0293736171511405
3.662165255207141
10.302891584649425
8.838025482566568
18.701457236591136
26.025787747005417
32.95948729686427
39.99084458686198
38.42832074464027
46.43625543602655
52.295719844357976
50.928511482413974
55.03013656824598
57.95986877241169
58.25284199282826
59.13176165407798
58.8387884336614
56.983291371023114
55.51842526894026
55.81139848935683
51.90508888380255
48.877698939497975
44.77607385366598
40.86976424811169
41.74868390936141
35.79156176089113
31.396963454642556
32.37354085603113
27.392996108949415
23.682001983672848
18.799114976729992
14.11154345006485
15.185778591592278
10.10757610437171
6.494239719233997
7.275501640344854
3.2715342946517127
0.34180209048599985
-1.8066681925688564
-4.150453955901427
-3.5645075150682843
-5.615320057984283
-7.080186160067139
-6.787212939650568
-7.763790341039139
-8.545052262149996
-8.349736781872283
-8.349736781872283
-8.349736781872283
-8.349736781872283
-8.349736781872283
-8.349736781872283
-7.373159380483711
-6.6895551995117115
-6.787212939650568
-6.787212939650568
-6.787212939650568
-6.787212939650568
-6.787212939650568
-6.787212939650568
-7.763790341039139
-8.44739452201114
-8.349736781872283
-8.349736781872283
-8.349736781872283
-9.326314183260854
-10.009918364232853
-9.81460288395514
-10.888838025482567
-11.572442206454566
-12.353704127565424
-13.13496604867628
-12.939650568398566
-13.916227969787137
-14.697489890897993
-14.50217441062028
-15.47875181200885
-16.260013733119706
-17.041275654230564
-17.82253757534142
-17.627222095063708
-18.60379949645228
-19.287403677424276
-19.18974593728542
-19.18974593728542
-19.18974593728542
-20.16632333867399
-20.84992751964599
-20.654612039368278
-20.752269779507134
-20.654612039368278
-20.654612039368278
-20.654612039368278
-20.654612039368278
-20.654612039368278
-20.654612039368278
-20.654612039368278
-20.654612039368278
-20.654612039368278
-20.654612039368278
-20.654612039368278
-20.654612039368278
-20.654612039368278
-20.654612039368278
-20.654612039368278
-18.701457236591136
-17.236591134508277
-17.52956435492485
-14.599832150759136
-12.353704127565424
-7.080186160067139
-2.5879301136797133
-3.5645075150682843
2.2949568932631417
6.6895551995117115
5.71297779812314
11.670099946593423
16.064698252841993
20.752269779507134
25.439841306172273
24.4632639047837
32.27588311589227
38.1353475242237
36.86579690241855
44.77607385366598
50.635538261997404
55.03013656824598
59.71770809491112
58.643472953383686
63.6240177004654
67.33501182574197
66.45609216449226
69.48348210879682
71.63195239185168
70.16708628976883
69.58113984893568
69.67879758907453
64.79591058213168
61.08491645685512
61.86617837796597
56.983291371023114
53.27229724574655
49.26832990005341
45.362020294499125
46.240939955748836
40.28381780727855
35.889219501029984
36.86579690241855
31.787594415197987
28.174258030060273
25.146868085755703
22.021820401312276
22.705424582284277
18.701457236591136
15.771725032425422
16.357671473258563
13.330281528953995
11.181811245899137
9.71694514381628
8.154421301594567
8.545052262149996
6.494239719233997
5.0293736171511405
5.420004577706569
4.345769436179141
3.662165255207141
3.7598229953459983
3.7598229953459983
3.7598229953459983
2.783245593957427
2.0019836728465705
2.197299153124285
2.197299153124285
2.197299153124285
1.2207217517357138
0.43945983062485694
0.6347753109025711
-0.24414435034714274
-1.0254062714579995
-0.8300907911802854
-1.8066681925688564
-2.5879301136797133
-4.248111696040284
-5.810635538261997
-5.517662317845426
-7.470817120622568
-8.935683222705425
-8.545052262149996
-10.595864805065995
-12.060730907148852
-13.623254749370565
-15.185778591592278
-14.795147631036851
-16.84596017395285
-18.21316853589685
-17.920195315480278
-20.84992751964599
-23.096055542839704
-24.4632639047837
-26.025787747005417
-25.732814526588847
-27.68596932936599
-29.150835431448844
-28.760204470893417
-29.834439612420844
-30.518043793392845
-31.2993057145037
-32.08056763561456
-31.885252155336843
-31.9829098954757
-31.885252155336843
-31.885252155336843
-31.885252155336843
-31.885252155336843
-31.885252155336843
-31.885252155336843
-31.885252155336843
-29.9320973525597
-28.467231250476843
-28.760204470893417
-25.830472266727703
-23.58434424353399
-19.287403677424276
-15.47875181200885
-16.357671473258563
-7.568474860761425
-0.9277485313191425
-2.392614633401999
8.349736781872283
16.45532921339742
27.100022888532845
37.06111238269627
34.81498435950255
46.826886396581976
55.61608300907912
53.66292820630198
64.50293736171511
72.60852979324025
77.4914168001831
83.05790798809797
81.78835736629281
83.93682764934768
85.30403601129167
85.0110627908751
84.03448538948653
83.25322346837568
80.51880674448768
78.27267872129397
78.76096742198825
73.87808041504539
70.16708628976883
70.94834821087969
64.9912260624094
60.59662775616083
54.83482108796826
49.365987640192266
50.53788052185855
43.604180971999696
38.42832074464027
39.600213626306555
33.64309147783627
29.150835431448844
23.48668650339513
18.017853055619135
19.287403677424276
14.209201190203707
10.498207064927138
11.377126726176853
6.39658197909514
2.68558785381857
-0.14648661020828566
-3.36919203479057
-2.5879301136797133
-4.736400396734569
-6.103608758678568
-5.810635538261997
-7.763790341039139
-9.228656443121995
-10.888838025482567
-12.45136186770428
-12.060730907148852
-13.037308308537423
-13.81857022964828
-13.623254749370565
-15.576409552147707
-17.041275654230564
-17.627222095063708
-18.506141756313422
-18.310826276035705
-19.287403677424276
-19.971007858396277
-19.87335011825742
-21.826504921034562
-23.291371023117417
-23.87731746395056
-24.65857938506142
-24.4632639047837
-25.439841306172273
-26.22110322728313
-26.025787747005417
-27.002365148393988
-27.783627069504846
-28.564888990615703
-29.2484931715877
-29.150835431448844
-29.150835431448844
-29.150835431448844
-29.150835431448844
-29.150835431448844
-29.053177691309987
-28.174258030060273
-27.392996108949415
-27.49065384908827
-29.443808651865414
-30.908674753948272
-30.518043793392845
-33.44777599755856
-35.69390402075227
-38.03768978408484
-40.38147554741741
-39.79552910658427
-39.893186846723125
-39.893186846723125
-39.893186846723125
-38.91660944533455
-38.1353475242237
-34.52201113908598
-31.494621194781413
-32.178225375753414
-26.22110322728313
-21.826504921034562
-22.803082322423133
-17.82253757534142
-14.11154345006485
-10.205233844510566
-6.298924238956283
-7.080186160067139
-3.076218814373999
-0.14648661020828566
-0.8300907911802854
5.908293278400855
11.08415350576028
18.506141756313422
25.439841306172273
23.87731746395056
33.74074921797513
41.065079728389414
39.5025558861677
48.38941023880369
55.03013656824598
59.22941939421683
64.01464866102083
62.9404135194934
64.9912260624094
66.45609216449226
66.06546120393683
66.16311894407569
66.16311894407569
63.233386739909974
60.987258716716255
61.475547417410546
57.56923781185626
54.54184786755169
55.22545204852369
50.24490730144198
46.533913176165406
42.62760357061112
38.72129396505684
39.5025558861677
34.52201113908598
30.908674753948272
31.68993667505913
25.732814526588847
21.338216220340275
17.52956435492485
13.623254749370565
14.50217441062028
10.498207064927138
7.568474860761425
8.154421301594567
5.127031357289998
2.9785610742351416
1.513694972152285
0.04882887006942855
0.34180209048599985
-1.6113527122911422
-3.076218814373999
-2.68558785381857
-2.783245593957427
-2.783245593957427
-3.7598229953459983
-4.443427176317998
-4.345769436179141
-4.345769436179141
-4.345769436179141
-4.345769436179141
-4.345769436179141
-4.345769436179141
-4.345769436179141
-4.345769436179141
-4.345769436179141
-5.322346837567712
-6.005951018539712
-5.810635538261997
-5.908293278400855
-5.908293278400855
-6.884870679789426
-7.568474860761425
-7.373159380483711
-8.44739452201114
-9.130998702983138
-8.935683222705425
-10.888838025482567
-12.353704127565424
-13.037308308537423
-13.81857022964828
-13.623254749370565
-14.599832150759136
-15.381094071869994
-15.185778591592278
-16.16235599298085
-16.943617914091707
-17.724879835202564
-18.506141756313422
-18.310826276035705
-19.287403677424276
-19.971007858396277
-19.87335011825742
-20.84992751964599
-21.533531700617992
-21.338216220340275
-21.43587396047913
-21.338216220340275
-22.314793621728846
-23.096055542839704
-22.90074006256199
-22.90074006256199
-22.90074006256199
-23.87731746395056
-24.560921644922562
-24.4632639047837
-25.439841306172273
-26.123445487144274
-25.92813000686656
-26.025787747005417
-25.92813000686656
-25.049210345616846
-24.267948424505988
-24.4632639047837
-21.533531700617992
-19.287403677424276
-19.775692378118563
-14.892805371175708
-11.181811245899137
-4.345769436179141
1.7090104524299992
0.34180209048599985
10.10757610437171
17.52956435492485
15.869382772564279
25.732814526588847
33.15480277714199
39.11192492561227
45.362020294499125
43.99481193255512
50.04959182116426
54.346532387273975
53.36995498588541
54.54184786755169
55.22545204852369
54.053559166857404
53.36995498588541
53.467612726024264
50.635538261997404
48.38941023880369
48.877698939497975
43.89715419241627
40.186160067139696
36.27985046158541
32.37354085603113
33.252460517280845
27.295338368810558
22.90074006256199
23.87731746395056
17.920195315480278
13.427939269092851
9.71694514381628
5.71297779812314
6.591897459372854
1.6113527122911422
-1.9043259327077133
-1.1230640115968566
-4.150453955901427
-6.39658197909514
-8.74036774242771
-11.08415350576028
-10.498207064927138
-11.572442206454566
-12.353704127565424
-12.158388647287708
-13.13496604867628
-13.916227969787137
-13.720912489509422
-13.720912489509422
-13.720912489509422
-13.720912489509422
-13.720912489509422
-13.720912489509422
-14.697489890897993
-15.381094071869994
-15.185778591592278
-15.283436331731137
-15.283436331731137
-18.11551079575799
-20.361638818951704
-19.87335011825742
-24.65857938506142
-28.369573510337986
-33.252460517280845
-37.94003204394598
-36.86579690241855
-39.014267185473415
-40.38147554741741
-40.08850232700084
-41.065079728389414
-41.84634164950027
-38.818951705195694
-36.57282368200198
-37.06111238269627
-33.15480277714199
-30.127412832837415
-30.811017013809415
-26.807049668116274
-23.87731746395056
-23.58434424353399
-22.705424582284277
-22.90074006256199
-23.779659723811704
-24.4632639047837
-24.365606164644845
-25.342183566033416
-26.025787747005417
-26.807049668116274
-27.588311589227132
-27.392996108949415
-28.369573510337986
-29.150835431448844
-28.95551995117113
-29.9320973525597
-30.615701533531702
-30.518043793392845
-30.518043793392845
-30.518043793392845
-31.494621194781413
-32.178225375753414
-31.9829098954757
-31.9829098954757
-31.9829098954757
-31.9829098954757
-31.9829098954757
-31.9829098954757
-32.95948729686427
-33.64309147783627
-33.44777599755856
-33.545433737697415
-33.44777599755856
-33.44777599755856
-33.44777599755856
-33.44777599755856
-33.44777599755856
-33.44777599755856
-33.44777599755856
-33.44777599755856
-33.44777599755856
-33.3501182574197
-33.3501182574197
-33.3501182574197
-32.37354085603113
-31.68993667505913
-31.787594415197987
-31.787594415197987
-31.787594415197987
-30.811017013809415
-30.029755092698558
-30.22507057297627
-29.2484931715877
-28.467231250476843
-28.564888990615703
-27.588311589227132
-26.90470740825513
-26.025787747005417
-25.24452582589456
-25.439841306172273
-25.439841306172273
-25.439841306172273
-25.439841306172273
-24.4632639047837
-23.682001983672848
-22.90074006256199
-22.119478141451133
-22.21713588158999
-22.21713588158999
-22.21713588158999
-22.21713588158999
-22.21713588158999
-22.21713588158999
-23.096055542839704
-23.87731746395056
-23.682001983672848
-23.779659723811704
-23.682001983672848
-23.682001983672848
-23.682001983672848
-23.682001983672848
-23.682001983672848
-23.682001983672848
-23.682001983672848
-24.65857938506142
-25.342183566033416
-25.146868085755703
-25.24452582589456
-25.24452582589456
-25.146868085755703
-25.146868085755703
-25.146868085755703
-25.146868085755703
-25.146868085755703
-25.146868085755703
-25.146868085755703
-25.146868085755703
-25.146868085755703
-25.146868085755703
-25.146868085755703
-25.146868085755703
-25.049210345616846
-25.049210345616846
-25.049210345616846
-25.049210345616846
-25.049210345616846
-25.049210345616846
-25.049210345616846
-25.049210345616846
-25.049210345616846
-25.049210345616846
-25.049210345616846
-25.049210345616846
-24.072632944228275
-23.291371023117417
-23.48668650339513
-23.389028763256274
-23.389028763256274
-23.389028763256274
-22.412451361867703
-21.728847180895706
-20.84992751964599
-20.068665598535134
-20.263981078812847
-20.263981078812847
-20.263981078812847
-20.263981078812847
-19.287403677424276
-18.506141756313422
-15.771725032425422
-13.525597009231708
-14.013885709925994
-9.130998702983138
-5.420004577706569
-6.298924238956283
1.416037232013428
7.373159380483711
16.55298695353628
24.95155260547799
23.096055542839704
35.889219501029984
45.45967803463798
43.311207751583126
56.20202944991226
65.77248798352025
73.09681849393453
81.00709544518196
79.24925612268254
85.30403601129167
89.69863431754024
88.62439917601282
90.77286945906768
92.14007782101167
89.89394979781795
88.4290836957351
88.72205691615167
84.81574731059739
81.88601510643167
82.47196154726483
76.61249713893339
72.12024109254597
67.33501182574197
62.64744029907683
63.72167544060426
56.7879758907454
51.61211566338598
52.6863508049134
46.72922865644312
42.33463035019455
37.549401083390556
32.86182955672541
33.93606469825284
29.834439612420844
26.90470740825513
27.588311589227132
23.58434424353399
20.654612039368278
19.385061417563133
17.724879835202564
18.11551079575799
14.209201190203707
11.279468986037996
11.865415426871138
7.959105821316854
4.931715877012284
1.8066681925688564
-1.2207217517357138
-0.537117570763714
-1.6113527122911422
-2.2949568932631417
-2.197299153124285
-1.2207217517357138
-0.537117570763714
2.0996414129854277
4.345769436179141
3.8574807354848555
7.763790341039139
10.693522545204852
10.10757610437171
14.013885709925994
16.943617914091707
17.236591134508277
18.11551079575799
17.920195315480278
16.064698252841993
14.599832150759136
14.892805371175708
12.939650568398566
11.47478446631571
9.81460288395514
8.252079041733426
8.642710002288853
6.6895551995117115
5.127031357289998
5.517662317845426
3.466849774929427
2.0019836728465705
0.43945983062485694
-1.0254062714579995
-0.6347753109025711
-2.68558785381857
-4.150453955901427
-3.7598229953459983
-4.834058136873426
-5.517662317845426
-6.298924238956283
-7.080186160067139
-6.884870679789426
-7.959105821316854
-8.642710002288853
-8.44739452201114
-9.42397192339971
-10.205233844510566
-10.986495765621424
-11.767757686732281
-11.572442206454566
-11.670099946593423
-11.572442206454566
-11.572442206454566
-11.572442206454566
-11.572442206454566
-12.549019607843137
-13.330281528953995
-13.13496604867628
-13.13496604867628
-13.13496604867628
-13.13496604867628
-13.13496604867628
-13.13496604867628
-13.13496604867628
-13.13496604867628
-13.13496604867628
-13.13496604867628
-13.13496604867628
-13.13496604867628
-11.181811245899137
-9.71694514381628
-5.224689097428855
-1.513694972152285
-2.2949568932631417
4.443427176317998
9.619287403677424
8.44739452201114
18.310826276035705
25.63515678644999
35.4009308003357
44.67841611352712
42.62760357061112
53.56527046616312
61.67086289768826
59.815365835049974
68.79987792782482
75.34294651712825
78.6633096818494
82.66727702754254
81.69069962615396
83.83916990920882
85.20637827115281
84.91340505073624
83.93682764934768
83.15556572823682
81.39772640573739
79.83520256351568
80.2258335240711
77.19844357976653
74.95231555657283
75.44060425726711
70.55771725032426
66.84672312504769
63.819333180743115
60.694285496299685
61.37788967727169
56.39734493018997
52.6863508049134
53.467612726024264
48.48706797894255
44.873731593804834
40.86976424811169
36.96345464255741
37.84237430380713
33.74074921797513
30.811017013809415
31.494621194781413
28.467231250476843
26.22110322728313
23.87731746395056
21.533531700617992
22.021820401312276
19.971007858396277
18.506141756313422
18.89677271686885
16.84596017395285
15.381094071869994
14.795147631036851
13.916227969787137
14.11154345006485
12.158388647287708
10.693522545204852
10.986495765621424
10.009918364232853
9.228656443121995
8.44739452201114
7.666132600900283
7.861448081177996
6.884870679789426
6.103608758678568
6.298924238956283
5.322346837567712
4.541084916456855
2.783245593957427
1.3183794918745708
1.6113527122911422
0.6347753109025711
-0.04882887006942855
0.04882887006942855
-0.8300907911802854
-1.6113527122911422
-3.36919203479057
-4.834058136873426
-4.541084916456855
-5.517662317845426
-6.298924238956283
-6.103608758678568
-8.05676356145571
-9.521629663538567
-10.205233844510566
-10.986495765621424
-10.79118028534371
-11.767757686732281
-12.549019607843137
-12.353704127565424
-14.306858930342566
-15.771725032425422
-16.357671473258563
-17.236591134508277
-17.041275654230564
-18.017853055619135
-18.701457236591136
-18.506141756313422
-19.58037689784085
-20.263981078812847
-21.045242999923705
-21.826504921034562
-21.63118944075685
-21.63118944075685
-21.63118944075685
-21.63118944075685
-21.63118944075685
-21.63118944075685
-19.678034637979707
-18.21316853589685
-18.60379949645228
-14.697489890897993
-11.670099946593423
-12.353704127565424
-4.541084916456855
1.2207217517357138
9.521629663538567
17.236591134508277
15.47875181200885
24.4632639047837
31.00633249408713
29.541466392004274
35.596246280613414
39.99084458686198
42.822919050888835
45.947966735332265
45.26436255436027
48.291752498664835
50.44022278171969
49.951934081025406
53.85824368657969
56.7879758907454
58.936446173800256
61.28023193713283
60.79194323643854
63.72167544060426
65.96780346379796
65.38185702296482
68.4092469672694
70.55771725032426
68.11627374685283
66.74906538490883
67.0420386053254
63.13572899977112
60.108339055466544
60.79194323643854
55.81139848935683
52.10040436408026
49.073014419775696
45.947966735332265
46.63157091630426
41.651026169222554
38.03768978408484
38.818951705195694
33.838406958113985
30.127412832837415
28.076600289921416
25.63515678644999
26.22110322728313
23.19371328297856
21.045242999923705
21.533531700617992
19.48271915770199
18.017853055619135
16.357671473258563
14.795147631036851
15.185778591592278
14.11154345006485
13.427939269092851
13.525597009231708
11.670099946593423
10.10757610437171
9.521629663538567
8.74036774242771
8.838025482566568
7.861448081177996
7.177843900205997
7.275501640344854
5.322346837567712
3.8574807354848555
2.2949568932631417
0.7324330510414282
1.1230640115968566
0.04882887006942855
-0.537117570763714
-0.43945983062485694
-2.392614633401999
-3.8574807354848555
-5.420004577706569
-6.982528419928283
-6.591897459372854
-8.642710002288853
-10.10757610437171
-9.71694514381628
-11.767757686732281
-13.232623788815136
-14.795147631036851
-16.357671473258563
-15.967040512703136
-17.920195315480278
-19.385061417563133
-19.092088197146563
-20.068665598535134
-20.84992751964599
-21.63118944075685
-22.412451361867703
-22.21713588158999
-24.17029068436713
-25.63515678644999
-25.24452582589456
-26.318760967421987
-27.002365148393988
-27.783627069504846
-28.564888990615703
-28.369573510337986
-29.346150911726557
-30.127412832837415
-29.9320973525597
-30.908674753948272
-31.592278934920273
-31.494621194781413
-31.494621194781413
-31.494621194781413
-29.541466392004274
-28.076600289921416
-28.369573510337986
-24.4632639047837
-21.533531700617992
-14.50217441062028
-8.44739452201114
-9.81460288395514
0.04882887006942855
7.373159380483711
5.71297779812314
16.55298695353628
24.65857938506142
32.37354085603113
40.186160067139696
38.42832074464027
45.45967803463798
50.635538261997404
49.46364538033112
54.44419012741283
58.057526512550545
58.25284199282826
59.13176165407798
58.936446173800256
56.983291371023114
55.51842526894026
55.81139848935683
53.85824368657969
52.295719844357976
48.78004119935912
45.75265125505455
46.43625543602655
41.45571068894484
37.84237430380713
38.62363622491798
33.64309147783627
29.9320973525597
26.025787747005417
22.119478141451133
22.90074006256199
18.017853055619135
14.306858930342566
15.088120851453422
11.08415350576028
8.154421301594567
5.0293736171511405
1.9043259327077133
2.5879301136797133
-1.3183794918745708
-4.248111696040284
-3.5645075150682843
-5.615320057984283
-7.080186160067139
-7.763790341039139
-8.545052262149996
-8.349736781872283
-9.326314183260854
-10.10757610437171
-9.912260624093996
-10.888838025482567
-11.670099946593423
-12.45136186770428
-13.232623788815136
-13.037308308537423
-14.013885709925994
-14.697489890897993
-14.599832150759136
-15.576409552147707
-16.260013733119706
-18.017853055619135
-19.58037689784085
