ppg
81.88601510643167
76.02655069810025
71.53429465171283
65.8701457236591
60.401312275883114
61.5732051575494
53.66292820630198
47.705806057831694
49.073014419775696
40.186160067139696
33.545433737697415
27.295338368810558
21.045242999923705
22.412451361867703
14.50217441062028
8.642710002288853
9.912260624093996
3.8574807354848555
-0.43945983062485694
-4.150453955901427
-8.154421301594567
-7.275501640344854
-10.302891584649425
-12.45136186770428
-11.963073167009995
-14.013885709925994
-15.47875181200885
-17.041275654230564
-18.60379949645228
-18.21316853589685
-20.263981078812847
-21.728847180895706
-21.338216220340275
-23.291371023117417
-24.756237125200276
-26.416418707560844
-27.881284809643702
-27.588311589227132
-29.541466392004274
-31.00633249408713
-30.615701533531702
-32.6665140764477
-34.131380178530556
-35.69390402075227
-37.256427862973986
-36.86579690241855
-39.79552910658427
-41.943999389639124
-41.45571068894484
-43.50652323186084
-44.97138933394369
-46.533913176165406
-47.998779278248264
-47.705806057831694
-49.658960860608836
-51.123826962691695
-50.73319600213626
-51.80743114366369
-52.49103532463569
-53.27229724574655
-54.053559166857404
-53.85824368657969
-54.83482108796826
-55.51842526894026
-55.32310978866255
-56.29968719005112
-57.08094911116198
-56.88563363088426
-56.88563363088426
-56.88563363088426
-57.764553292133975
-58.54581521324483
-58.350499732967116
-58.350499732967116
-58.350499732967116
-58.350499732967116
-58.25284199282826
-58.25284199282826
-57.27626459143969
-56.49500267032883
-56.690318150606544
-53.760585946440834
-51.51445792324712
-45.362020294499125
-39.99084458686198
-41.16273746852827
-31.2993057145037
-23.974975204089418
-25.63515678644999
-11.865415426871138
-1.513694972152285
12.256046387426567
25.439841306172273
22.510109102006563
40.28381780727855
53.56527046616312
50.635538261997404
66.45609216449226
78.17502098115511
86.08529793240254
94.77683680476082
92.82368200198367
99.95269703212024
105.0308995193408
103.85900663767453
106.8863965819791
109.03486686503395
107.5700007629511
106.8863965819791
106.98405432211796
104.05432211795224
101.80819409475852
102.29648279545282
96.43701838712138
91.94476234073396
86.1829556725414
80.81177996490425
81.98367284657053
73.09681849393453
66.45609216449226
67.92095826657511
58.936446173800256
52.295719844357976
45.16670481422141
38.1353475242237
39.69787136644541
31.68993667505913
25.830472266727703
27.100022888532845
20.16632333867399
14.990463111314565
10.400549324788281
5.71297779812314
6.787212939650568
2.68558785381857
-0.14648661020828566
0.43945983062485694
-3.466849774929427
-6.39658197909514
-7.666132600900283
-9.228656443121995
-8.935683222705425
-10.888838025482567
-12.353704127565424
-12.060730907148852
-17.82253757534142
-22.21713588158999
-28.857862211032273
-35.010299839780274
-33.64309147783627
-41.5533684290837
-47.51049057755398
-46.14328221560998
-51.22148470283055
-54.83482108796826
-55.90905622949569
-57.56923781185626
-57.178606851300835
-56.29968719005112
-55.51842526894026
-55.61608300907912
-51.80743114366369
-48.78004119935912
-46.533913176165406
-44.19012741283284
-44.67841611352712
-44.580758373388264
-44.580758373388264
-44.580758373388264
-46.43625543602655
-47.90112153810941
-50.44022278171969
-52.6863508049134
-52.19806210421912
-54.24887464713512
-55.61608300907912
-55.32310978866255
-56.29968719005112
-56.983291371023114
-57.764553292133975
-58.54581521324483
-58.350499732967116
-59.32707713435569
-60.108339055466544
-59.91302357518883
-60.8896009765774
-61.5732051575494
-61.37788967727169
-61.37788967727169
-61.37788967727169
-60.401312275883114
-59.62005035477226
-59.815365835049974
-56.88563363088426
-54.639505607690545
-50.34256504158083
-46.533913176165406
-47.31517509727627
-37.549401083390556
-30.22507057297627
-31.787594415197987
-17.13893339436942
-6.103608758678568
8.545052262149996
22.510109102006563
19.385061417563133
39.11192492561227
53.85824368657969
50.53788052185855
69.38582436865796
83.35088120851454
94.5815213244831
106.30045014114596
103.66369115739681
114.69901579308767
122.70695048447395
120.94911116197451
127.00389105058366
131.30083161669336
131.30083161669336
132.1797512779431
131.8867780575265
131.0078583962768
130.22659647516593
130.3242542153048
125.44136720836194
121.73037308308537
116.74982833600366
112.06225680933852
113.03883421072709
106.10513466086825
100.92927443350881
102.1011673151751
93.2143129625391
86.57358663309682
79.3469138628214
72.31555657282368
73.87808041504539
64.01464866102083
56.59266041046769
58.25284199282826
48.291752498664835
40.96742198825055
34.91264209964141
28.564888990615703
30.029755092698558
22.998397802700847
17.82253757534142
18.994430457007706
13.916227969787137
10.302891584649425
7.275501640344854
4.150453955901427
4.834058136873426
1.8066681925688564
-0.24414435034714274
0.14648661020828566
-2.783245593957427
-4.931715877012284
-7.373159380483711
-9.71694514381628
-9.130998702983138
-12.158388647287708
-14.306858930342566
-13.81857022964828
-16.84596017395285
-18.994430457007706
-22.314793621728846
-25.439841306172273
-24.756237125200276
-27.68596932936599
-29.9320973525597
-29.443808651865414
-33.3501182574197
-36.27985046158541
-38.42832074464027
-40.86976424811169
-40.28381780727855
-43.21355001144427
-45.45967803463798
-44.97138933394369
-47.90112153810941
-50.04959182116426
-52.39337758449683
-54.7371633478294
-54.24887464713512
-56.20202944991226
-57.66689555199512
-57.37392233157855
-59.32707713435569
-60.79194323643854
-62.35446707866026
-63.819333180743115
-63.526359960326545
-64.50293736171511
-65.18654154268711
-64.9912260624094
-65.96780346379796
-66.74906538490883
-67.43266956588083
-68.21393148699168
-68.01861600671397
-68.01861600671397
-68.01861600671397
-68.01861600671397
-68.01861600671397
-67.92095826657511
-65.08888380254825
-62.84275577935454
-63.33104448004883
-58.350499732967116
-54.7371633478294
-55.51842526894026
-45.75265125505455
-38.33066300450141
-25.63515678644999
-14.11154345006485
-16.650644693675137
0.9277485313191425
14.209201190203707
11.279468986037996
30.029755092698558
43.99481193255512
58.057526512550545
72.12024109254597
68.99519340810254
83.93682764934768
94.87449454489968
92.43305104142824
101.51522087434195
108.05828946364538
110.40207522697796
113.62478065156023
112.94117647058823
114.01541161211567
114.60135805294881
114.50370031280995
111.57396810864424
109.32784008545052
106.00747692072939
102.88242923628596
103.4683756771191
97.60891126878766
93.11665522240024
94.09323262378882
83.35088120851454
75.14763103685054
64.60059510185397
54.44419012741283
56.690318150606544
42.822919050888835
32.56885633630884
34.81498435950255
23.779659723811704
15.674067292286564
9.912260624093996
3.5645075150682843
4.931715877012284
0.8300907911802854
-2.0019836728465705
-1.3183794918745708
-2.490272373540856
-3.1738765545128556
-2.0996414129854277
-1.3183794918745708
-1.513694972152285
-2.392614633401999
-3.1738765545128556
-2.9785610742351416
-6.884870679789426
-9.81460288395514
-12.060730907148852
-14.404516670481422
-13.81857022964828
-16.84596017395285
-18.994430457007706
-18.506141756313422
-21.533531700617992
-23.682001983672848
-27.002365148393988
-30.127412832837415
-29.443808651865414
-33.3501182574197
-36.27985046158541
-35.596246280613414
-38.62363622491798
-40.772106507972836
-43.21355001144427
-45.45967803463798
-44.97138933394369
-48.877698939497975
-51.80743114366369
-51.123826962691695
-54.15121690699626
-56.29968719005112
-57.66689555199512
-59.32707713435569
-58.936446173800256
-61.86617837796597
-64.01464866102083
-63.526359960326545
-64.60059510185397
-65.28419928282597
-66.94438086518655
-68.50690470740825
-68.11627374685283
-69.0928511482414
-69.87411306935225
-69.67879758907453
-70.65537499046312
-71.33897917143511
-72.12024109254597
-72.90150301365682
-72.70618753337911
-73.68276493476768
-74.36636911573969
-74.17105363546197
-74.17105363546197
-74.17105363546197
-75.04997329671168
-75.83123521782254
-75.63591973754482
-73.68276493476768
-72.21789883268482
-72.5108720531014
-68.60456244754711
-65.57717250324254
-57.66689555199512
-50.83085374227512
-52.295719844357976
-39.5025558861677
-29.9320973525597
-32.08056763561456
-16.357671473258563
-4.541084916456855
8.935683222705425
22.21713588158999
19.287403677424276
35.20561532005799
46.92454413672083
44.28778515297169
57.27626459143969
66.74906538490883
71.33897917143511
76.90547035934996
75.63591973754482
78.76096742198825
80.9094377050431
80.42114900434882
80.51880674448768
80.42114900434882
76.61249713893339
73.58510719462882
74.26871137560083
69.28816662851911
65.57717250324254
66.3584344243534
59.522392614633404
54.346532387273975
47.80346379797055
41.651026169222554
43.018234531166556
35.010299839780274
29.150835431448844
30.420386053253985
22.510109102006563
16.650644693675137
10.302891584649425
4.052796215762569
5.420004577706569
-0.537117570763714
-4.931715877012284
-3.9551384756237127
-8.935683222705425
-12.549019607843137
-15.576409552147707
-18.701457236591136
-18.017853055619135
-20.068665598535134
-21.533531700617992
-21.14290074006256
-23.19371328297856
-24.65857938506142
-24.267948424505988
-24.365606164644845
-24.365606164644845
-25.24452582589456
-26.025787747005417
-25.830472266727703
-26.807049668116274
-27.588311589227132
-28.369573510337986
-29.053177691309987
-28.95551995117113
-29.9320973525597
-30.615701533531702
-30.420386053253985
-32.37354085603113
-33.838406958113985
-35.4009308003357
-36.96345464255741
-36.57282368200198
-38.62363622491798
-40.08850232700084
-39.69787136644541
-40.772106507972836
-41.45571068894484
-43.21355001144427
-44.67841611352712
-44.28778515297169
-45.362020294499125
-46.04562447547112
-45.85030899519341
-46.826886396581976
-47.60814831769284
-48.38941023880369
-49.073014419775696
-48.97535667963683
-48.97535667963683
-48.877698939497975
-48.877698939497975
-48.877698939497975
-48.877698939497975
-48.877698939497975
-48.877698939497975
-48.877698939497975
-49.75661860074769
-50.53788052185855
-50.34256504158083
-51.31914244296941
-52.002746623941405
-51.80743114366369
-51.80743114366369
-51.80743114366369
-51.80743114366369
-51.80743114366369
-51.80743114366369
-50.83085374227512
-50.04959182116426
-46.33859769588769
-43.40886549172198
-43.99481193255512
-36.182192721446555
-30.322728313115128
-31.592278934920273
-22.705424582284277
-16.064698252841993
-7.080186160067139
1.3183794918745708
-0.43945983062485694
11.377126726176853
20.16632333867399
18.21316853589685
32.95948729686427
43.99481193255512
56.7879758907454
69.19050888838025
66.3584344243534
79.44457160296025
88.91737239642939
86.76890211337454
98.6831464103151
107.47234302281224
111.18333714808881
116.06622415503166
114.89433127336538
115.0896467536431
114.99198901350424
114.99198901350424
109.23018234531166
104.73792629892424
97.12062256809338
90.18692301823454
91.65178912031739
82.66727702754254
76.12420843823911
77.4914168001831
67.62798504615854
60.2059967956054
51.31914244296941
42.822919050888835
44.67841611352712
34.717326619363696
27.392996108949415
28.95551995117113
20.947585259784848
15.088120851453422
9.71694514381628
4.248111696040284
5.420004577706569
0.43945983062485694
-3.1738765545128556
-2.2949568932631417
-7.275501640344854
-10.986495765621424
-13.037308308537423
-15.381094071869994
-14.892805371175708
-18.799114976729992
-21.728847180895706
-21.045242999923705
-24.072632944228275
-26.22110322728313
-29.541466392004274
-32.6665140764477
-31.9829098954757
-35.889219501029984
-38.818951705195694
-38.1353475242237
-42.13931486991684
-45.069047074082555
-47.21751735713741
-49.658960860608836
-49.073014419775696
-52.002746623941405
-54.24887464713512
-53.760585946440834
-55.713740749217976
-57.178606851300835
-58.74113069352254
-60.30365453574426
-59.91302357518883
-59.91302357518883
-59.91302357518883
-59.91302357518883
-59.91302357518883
-59.91302357518883
-59.815365835049974
-59.815365835049974
-59.815365835049974
-59.815365835049974
-59.815365835049974
-59.71770809491112
-58.74113069352254
-58.057526512550545
-57.178606851300835
-56.39734493018997
-56.59266041046769
-56.49500267032883
-56.49500267032883
-56.49500267032883
-55.51842526894026
-54.7371633478294
-54.932478828107115
-54.83482108796826
-54.83482108796826
-53.85824368657969
-53.07698176546884
-53.27229724574655
-52.19806210421912
-51.51445792324712
-48.78004119935912
-46.533913176165406
-47.0222018768597
-42.04165712977798
-38.42832074464027
-39.20958266575113
-30.420386053253985
-23.779659723811704
-12.84199282825971
-2.783245593957427
-5.0293736171511405
11.572442206454566
24.072632944228275
21.338216220340275
39.11192492561227
52.295719844357976
65.57717250324254
78.85862516212711
75.83123521782254
89.89394979781795
100.0503547722591
97.80422674906538
106.8863965819791
113.42946517128252
115.67559319447624
118.99595635919738
118.21469443808652
117.3357747768368
116.55451285572595
116.6521705958648
112.84351873044938
109.8161287861448
104.73792629892424
100.0503547722591
101.02693217364767
93.11665522240024
87.25719081406882
88.52674143587396
79.63988708323797
72.99916075379568
64.89356832227054
57.08094911116198
58.8387884336614
49.85427634088655
43.21355001144427
44.67841611352712
36.67048142214084
30.811017013809415
25.439841306172273
19.87335011825742
21.14290074006256
15.088120851453422
10.693522545204852
11.670099946593423
8.642710002288853
6.39658197909514
4.052796215762569
1.7090104524299992
2.197299153124285
0.14648661020828566
-1.1230640115968566
-0.8300907911802854
-2.783245593957427
-4.248111696040284
-5.908293278400855
-7.470817120622568
-7.080186160067139
-9.033340962844282
-10.498207064927138
-10.205233844510566
-12.158388647287708
-13.623254749370565
-16.16235599298085
-18.506141756313422
-17.920195315480278
-21.92416266117342
-24.853894865339132
-24.17029068436713
-27.1976806286717
-29.346150911726557
-31.68993667505913
-34.0337224383917
-33.545433737697415
-36.475165941863125
-38.72129396505684
-38.1353475242237
-41.16273746852827
-43.311207751583126
-44.77607385366598
-46.33859769588769
-45.947966735332265
-47.90112153810941
-49.365987640192266
-49.073014419775696
-52.881666285191116
-55.81139848935683
-60.8896009765774
-65.47951476310368
-64.40527962157626
-69.38582436865796
-73.09681849393453
-72.21789883268482
-74.26871137560083
-75.73357747768368
-75.34294651712825
-75.44060425726711
-75.34294651712825
-72.5108720531014
-70.26474402990769
-70.75303273060197
-64.89356832227054
-60.401312275883114
-55.61608300907912
-50.928511482413974
-52.002746623941405
-47.90112153810941
-44.97138933394369
-45.55733577477684
-40.67444876783398
-36.96345464255741
-29.150835431448844
-22.314793621728846
-23.87731746395056
-11.08415350576028
-1.513694972152285
-3.662165255207141
12.060730907148852
23.779659723811704
38.33066300450141
52.295719844357976
49.17067215991455
65.08888380254825
76.8078126192111
74.17105363546197
87.15953307392996
96.6323338673991
102.19882505531396
108.54657816433966
107.08171206225681
110.20675974670024
112.35523002975509
111.86694132906081
110.9880216678111
110.20675974670024
106.49576562142367
103.4683756771191
104.05432211795224
97.21828030823224
92.04242008087282
93.11665522240024
85.20637827115281
79.24925612268254
72.02258335240711
64.9912260624094
66.55374990463112
56.59266041046769
49.26832990005341
50.83085374227512
41.84634164950027
35.303273060196844
29.053177691309987
22.803082322423133
24.17029068436713
17.236591134508277
12.060730907148852
13.232623788815136
8.154421301594567
4.541084916456855
2.490272373540856
0.04882887006942855
0.537117570763714
-1.3183794918745708
-2.783245593957427
-2.490272373540856
-3.466849774929427
-4.248111696040284
-5.0293736171511405
-5.810635538261997
-5.615320057984283
-7.568474860761425
-9.033340962844282
-8.74036774242771
-9.71694514381628
-10.498207064927138
-12.256046387426567
-13.720912489509422
-13.427939269092851
-16.357671473258563
-18.506141756313422
-18.017853055619135
-20.068665598535134
-21.533531700617992
-24.072632944228275
-26.318760967421987
-25.830472266727703
-27.783627069504846
-29.2484931715877
-28.95551995117113
-31.885252155336843
-34.0337224383917
-35.49858854047456
-37.06111238269627
-36.67048142214084
-39.600213626306555
-41.84634164950027
-41.358052948805984
-42.33463035019455
-43.018234531166556
-44.77607385366598
-46.33859769588769
-45.947966735332265
-46.92454413672083
-47.705806057831694
-47.51049057755398
-48.48706797894255
-49.17067215991455
-48.97535667963683
-49.073014419775696
-48.97535667963683
-49.951934081025406
-50.73319600213626
-50.53788052185855
-50.53788052185855
-50.53788052185855
-50.44022278171969
-50.44022278171969
-50.44022278171969
-49.46364538033112
-48.68238345922026
-48.877698939497975
-46.92454413672083
-45.45967803463798
-40.96742198825055
-37.15877012283513
-38.03768978408484
-29.2484931715877
-22.510109102006563
-23.974975204089418
-11.279468986037996
-1.7090104524299992
10.400549324788281
22.021820401312276
19.385061417563133
36.182192721446555
48.68238345922026
45.947966735332265
60.79194323643854
71.8272678721294
80.81177996490425
90.2845807583734
88.13611047531853
95.2651255054551
100.34332799267567
99.17143511100939
101.22224765392538
102.68711375600824
100.44098573281453
98.97611963073167
99.26909285114824
94.38620584420539
90.67521171892882
91.45647364003968
84.52277409018082
79.3469138628214
71.92492561226825
64.89356832227054
66.45609216449226
57.471580071717405
50.83085374227512
52.295719844357976
42.43228809033341
35.010299839780274
28.076600289921416
21.045242999923705
22.60776684214542
15.576409552147707
10.400549324788281
11.572442206454566
5.615320057984283
1.2207217517357138
-0.6347753109025711
-3.076218814373999
-2.490272373540856
-5.517662317845426
-7.666132600900283
-7.177843900205997
-8.252079041733426
-8.935683222705425
-10.693522545204852
-12.256046387426567
-11.865415426871138
-12.939650568398566
-13.623254749370565
-13.525597009231708
-17.334248874647134
-20.263981078812847
-26.318760967421987
-31.68993667505913
-30.420386053253985
-38.33066300450141
-44.19012741283284
-42.92057679102769
-47.0222018768597
-49.85427634088655
-50.14724956130312
-51.02616922255284
-50.83085374227512
-48.97535667963683
-47.412832837415124
-47.80346379797055
-43.89715419241627
-40.86976424811169
-36.768139162279695
-32.86182955672541
-33.74074921797513
-32.56885633630884
-31.885252155336843
-31.9829098954757
-33.838406958113985
-35.4009308003357
-35.98687724116884
-36.768139162279695
-36.57282368200198
-37.549401083390556
-38.33066300450141
-38.1353475242237
-39.11192492561227
-39.79552910658427
-40.57679102769512
-41.358052948805984
-41.16273746852827
-41.16273746852827
-41.16273746852827
-41.16273746852827
-41.16273746852827
-41.16273746852827
-41.16273746852827
-41.065079728389414
-41.065079728389414
-41.065079728389414
-41.065079728389414
-41.065079728389414
-39.11192492561227
-37.64705882352941
-35.10795757991913
-32.764171816586554
-33.252460517280845
-27.392996108949415
-22.998397802700847
-23.974975204089418
-14.209201190203707
-6.787212939650568
3.8574807354848555
13.916227969787137
11.670099946593423
26.416418707560844
37.4517433432517
35.010299839780274
50.83085374227512
62.54978255893797
72.31555657282368
82.56961928740368
80.2258335240711
89.30800335698481
95.85107194628824
94.38620584420539
99.46440833142596
103.07774471656367
102.19882505531396
102.39414053559167
102.29648279545282
99.3667505912871
97.12062256809338
97.60891126878766
92.72602426184481
89.01503013656824
82.17898832684826
76.02655069810025
77.29610131990539
68.4092469672694
61.768520637827116
63.233386739909974
54.24887464713512
47.705806057831694
40.479133287556266
33.545433737697415
35.010299839780274
26.123445487144274
19.48271915770199
20.947585259784848
14.892805371175708
10.498207064927138
6.6895551995117115
2.783245593957427
3.662165255207141
-0.24414435034714274
-3.1738765545128556
-2.5879301136797133
-4.638742656595713
-6.103608758678568
-6.6895551995117115
-7.470817120622568
-7.373159380483711
-8.349736781872283
-9.033340962844282
-8.838025482566568
-9.912260624093996
-10.595864805065995
-12.353704127565424
-13.81857022964828
-13.525597009231708
-15.47875181200885
-16.943617914091707
-16.650644693675137
-18.60379949645228
-20.068665598535134
-22.60776684214542
-24.853894865339132
-24.365606164644845
-27.392996108949415
-29.541466392004274
-29.053177691309987
-31.9829098954757
-34.22903791866941
-35.596246280613414
-37.15877012283513
-36.86579690241855
-38.818951705195694
-40.28381780727855
-39.893186846723125
-41.84634164950027
-43.311207751583126
-44.873731593804834
-46.43625543602655
-46.14328221560998
-47.11985961699855
-47.80346379797055
-47.60814831769284
-48.584725719081405
-49.365987640192266
-50.14724956130312
-50.928511482413974
-50.73319600213626
-51.709773403524835
-52.39337758449683
-52.19806210421912
-53.17463950560769
-53.85824368657969
-53.760585946440834
-53.760585946440834
-53.760585946440834
-53.66292820630198
-53.66292820630198
-53.66292820630198
-53.66292820630198
-53.66292820630198
-51.709773403524835
-50.24490730144198
-50.53788052185855
-45.654993514915695
-41.943999389639124
-42.72526131074998
-34.91264209964141
-29.053177691309987
-19.775692378118563
-11.377126726176853
-13.232623788815136
1.416037232013428
12.45136186770428
10.009918364232853
26.807049668116274
39.307240405889985
50.83085374227512
62.54978255893797
59.91302357518883
72.90150301365682
82.37430380712597
80.2258335240711
88.33142595559625
94.09323262378882
95.65575646601053
98.19485770962082
97.60891126878766
97.70656900892652
97.60891126878766
97.60891126878766
93.70260166323338
90.77286945906768
84.71808957045853
79.3469138628214
80.51880674448768
72.5108720531014
66.65140764476998
67.92095826657511
57.08094911116198
48.97535667963683
37.4517433432517
26.61173418783856
28.95551995117113
16.064698252841993
6.494239719233997
8.642710002288853
-0.34180209048599985
-6.884870679789426
-9.326314183260854
-12.549019607843137
-11.865415426871138
-11.963073167009995
-11.963073167009995
-11.963073167009995
-9.130998702983138
-6.884870679789426
-3.5645075150682843
-0.43945983062485694
-1.1230640115968566
0.8300907911802854
2.2949568932631417
2.0019836728465705
1.0254062714579995
0.34180209048599985
-1.3183794918745708
-2.8809033340962844
-2.490272373540856
-4.541084916456855
-6.005951018539712
-5.615320057984283
-7.568474860761425
-9.130998702983138
-11.572442206454566
-13.916227969787137
-13.427939269092851
-15.381094071869994
-16.84596017395285
-16.55298695353628
-19.48271915770199
-21.63118944075685
-24.072632944228275
-26.416418707560844
-25.830472266727703
-27.881284809643702
-29.346150911726557
-28.95551995117113
-31.885252155336843
-34.131380178530556
-35.49858854047456
-37.06111238269627
-36.768139162279695
-38.72129396505684
-40.186160067139696
-39.79552910658427
-40.86976424811169
-41.5533684290837
-43.311207751583126
-44.77607385366598
-44.48310063324941
-45.45967803463798
-46.14328221560998
-46.04562447547112
-47.0222018768597
-47.705806057831694
-48.48706797894255
-49.26832990005341
-49.073014419775696
-49.073014419775696
-49.073014419775696
-49.073014419775696
-49.951934081025406
-50.73319600213626
-49.56130312046998
-48.877698939497975
-48.97535667963683
-46.04562447547112
-43.79949645227741
-44.28778515297169
-39.40489814602884
-35.69390402075227
-27.002365148393988
-19.385061417563133
-21.045242999923705
-8.252079041733426
1.2207217517357138
-0.8300907911802854
13.916227969787137
24.95155260547799
37.74471656366827
50.14724956130312
47.412832837415124
61.37788967727169
71.53429465171283
69.28816662851911
80.2258335240711
88.33142595559625
92.23773556115053
97.02296482795452
95.9487296864271
97.99954222934309
99.46440833142596
99.07377737087053
97.21828030823224
95.65575646601053
91.26115815976196
87.45250629434653
88.23376821545739
81.30006866559853
76.12420843823911
77.29610131990539
69.38582436865796
63.42870222018769
56.1043717097734
49.17067215991455
50.635538261997404
41.74868390936141
35.10795757991913
36.57282368200198
28.564888990615703
22.705424582284277
17.334248874647134
11.865415426871138
13.037308308537423
7.959105821316854
4.345769436179141
5.127031357289998
1.1230640115968566
-1.7090104524299992
-2.9785610742351416
-4.541084916456855
-4.248111696040284
-6.201266498817426
-7.666132600900283
-7.373159380483711
-8.349736781872283
-9.033340962844282
-10.79118028534371
-12.353704127565424
-11.963073167009995
-14.013885709925994
-15.47875181200885
-15.088120851453422
-16.16235599298085
-16.84596017395285
-19.58037689784085
-21.826504921034562
-21.338216220340275
-23.291371023117417
-24.756237125200276
-24.4632639047837
-27.392996108949415
-29.541466392004274
-31.885252155336843
-34.22903791866941
-33.74074921797513
-36.67048142214084
-38.91660944533455
-38.42832074464027
-41.358052948805984
-43.50652323186084
-45.947966735332265
-48.19409475852598
-47.705806057831694
-49.658960860608836
-51.123826962691695
-50.83085374227512
-52.78400854505226
-54.24887464713512
-54.83482108796826
-55.61608300907912
-55.420767528801406
-56.39734493018997
-57.08094911116198
-56.983291371023114
-57.95986877241169
-58.643472953383686
-59.42473487449455
-60.2059967956054
-60.01068131532769
-60.01068131532769
-60.01068131532769
-59.91302357518883
-58.936446173800256
-58.25284199282826
-58.350499732967116
-58.350499732967116
-58.25284199282826
-56.39734493018997
-54.83482108796826
-55.127794308384836
-51.22148470283055
-48.291752498664835
-42.236972610055695
-36.86579690241855
-38.03768978408484
-29.2484931715877
-22.60776684214542
-24.072632944228275
-15.088120851453422
-8.44739452201114
-2.2949568932631417
3.8574807354848555
2.490272373540856
9.42397192339971
14.599832150759136
13.427939269092851
21.338216220340275
27.1976806286717
32.56885633630884
38.03768978408484
36.768139162279695
43.70183871213855
48.877698939497975
47.705806057831694
52.6863508049134
56.39734493018997
58.44815747310597
60.79194323643854
60.2059967956054
57.471580071717405
55.22545204852369
55.713740749217976
48.877698939497975
43.70183871213855
37.15877012283513
31.00633249408713
32.37354085603113
24.365606164644845
18.506141756313422
19.775692378118563
11.865415426871138
6.005951018539712
2.490272373540856
-1.416037232013428
-0.537117570763714
-5.420004577706569
-9.130998702983138
-8.349736781872283
-10.400549324788281
-11.865415426871138
-11.47478446631571
-11.572442206454566
-11.572442206454566
-11.572442206454566
-11.572442206454566
-11.572442206454566
-10.595864805065995
-9.81460288395514
-9.033340962844282
-8.252079041733426
-8.44739452201114
-8.44739452201114
-8.44739452201114
-8.44739452201114
-8.44739452201114
-8.44739452201114
-9.326314183260854
-10.10757610437171
-9.912260624093996
-11.865415426871138
-13.330281528953995
-13.037308308537423
-14.013885709925994
-14.795147631036851
-16.45532921339742
-18.017853055619135
-17.627222095063708
-18.701457236591136
-19.385061417563133
-19.287403677424276
-20.263981078812847
-20.947585259784848
-21.728847180895706
-22.510109102006563
-22.314793621728846
-24.267948424505988
-25.732814526588847
-25.439841306172273
-26.416418707560844
-27.100022888532845
-28.857862211032273
-30.420386053253985
-30.029755092698558
-31.103990234225986
-31.787594415197987
-31.592278934920273
-32.56885633630884
-33.3501182574197
-34.131380178530556
-34.91264209964141
-34.717326619363696
-34.717326619363696
-34.717326619363696
-34.717326619363696
-34.717326619363696
-34.61966887922484
-32.764171816586554
-31.201647974364842
-31.592278934920273
-28.66254673075456
-26.416418707560844
-26.90470740825513
-21.045242999923705
-16.55298695353628
-8.05676356145571
-0.34180209048599985
-2.0996414129854277
11.572442206454566
21.826504921034562
19.58037689784085
34.424353398947126
45.362020294499125
58.25284199282826
70.65537499046312
67.82330052643626
80.81177996490425
90.38223849851225
88.23376821545739
98.19485770962082
105.51918822003509
109.52315556572823
114.30838483253224
113.2341496910048
115.38261997405966
116.74982833600366
116.35919737544823
114.50370031280995
112.94117647058823
108.44892042420081
104.64026855878538
105.51918822003509
99.56206607156481
95.06981002517739
96.04638742656596
88.13611047531853
82.27664606698711
73.97573815518425
66.26077668421455
67.92095826657511
58.936446173800256
52.295719844357976
53.760585946440834
43.89715419241627
36.475165941863125
30.518043793392845
24.17029068436713
25.537499046311133
19.48271915770199
15.088120851453422
16.064698252841993
12.060730907148852
9.130998702983138
6.884870679789426
4.541084916456855
5.0293736171511405
3.9551384756237127
3.2715342946517127
3.466849774929427
2.392614633401999
1.7090104524299992
1.9043259327077133
1.8066681925688564
1.8066681925688564
0.8300907911802854
0.14648661020828566
0.34180209048599985
-0.6347753109025711
-1.3183794918745708
-3.076218814373999
-4.638742656595713
-4.248111696040284
-7.177843900205997
-9.42397192339971
-8.935683222705425
-11.865415426871138
-14.11154345006485
-17.43190661478599
-20.45929655909056
-19.775692378118563
-22.803082322423133
-24.95155260547799
-24.4632639047837
-28.369573510337986
-31.2993057145037
-34.52201113908598
-37.64705882352941
-36.86579690241855
-40.86976424811169
-43.79949645227741
-43.11589227130541
-46.14328221560998
-48.291752498664835
-49.658960860608836
-51.31914244296941
-50.928511482413974
-52.881666285191116
-54.346532387273975
-53.95590142671855
-57.86221103227283
-60.79194323643854
-64.89356832227054
-68.70222018768597
-67.82330052643626
-72.80384527351796
-76.41718165865568
-75.63591973754482
-76.71015487907225
-77.39375906004425
-73.3897917143511
-70.4600595101854
-71.04600595101854
-61.37788967727169
-53.95590142671855
-55.51842526894026
-40.86976424811169
-29.834439612420844
-13.13496604867628
2.197299153124285
-1.1230640115968566
19.58037689784085
35.010299839780274
31.494621194781413
50.44022278171969
64.3076218814374
77.4914168001831
90.77286945906768
87.7454795147631
102.68711375600824
113.62478065156023
111.18333714808881
120.26550698100252
126.80857557030595
130.12893873502708
134.03524834058138
133.15632867933166
134.2305638208591
134.9141680018311
134.71885252155337
131.8867780575265
129.54299229419394
125.24605172808423
121.33974212252994
122.21866178377967
116.26153963530938
111.76928358892195
112.74586099031052
104.8355840390631
98.87846189059282
91.65178912031739
84.62043183031967
86.08529793240254
77.19844357976653
70.55771725032426
72.02258335240711
62.061493858243686
54.7371633478294
48.68238345922026
42.33463035019455
43.79949645227741
36.768139162279695
31.592278934920273
32.764171816586554
27.68596932936599
24.072632944228275
21.045242999923705
17.82253757534142
18.60379949645228
15.576409552147707
13.330281528953995
13.81857022964828
9.912260624093996
6.982528419928283
4.736400396734569
2.392614633401999
2.8809033340962844
-0.9277485313191425
-3.8574807354848555
-3.2715342946517127
-6.298924238956283
-8.44739452201114
-12.74433508812085
-16.55298695353628
-15.674067292286564
-19.678034637979707
-22.60776684214542
-21.92416266117342
-25.92813000686656
-28.857862211032273
-31.00633249408713
-33.44777599755856
-32.86182955672541
-35.889219501029984
-38.03768978408484
-37.549401083390556
-40.479133287556266
-42.72526131074998
-44.09246967269398
-45.654993514915695
-45.26436255436027
-47.31517509727627
-48.78004119935912
-48.38941023880369
-50.34256504158083
-51.80743114366369
-53.36995498588541
-54.932478828107115
-54.54184786755169
-55.61608300907912
-56.29968719005112
-56.1043717097734
-57.08094911116198
-57.764553292133975
-58.54581521324483
-59.32707713435569
-59.13176165407798
-59.13176165407798
-59.13176165407798
-59.13176165407798
-59.13176165407798
-59.03410391393912
-56.20202944991226
-53.95590142671855
-54.44419012741283
-47.60814831769284
-42.43228809033341
-43.604180971999696
-33.74074921797513
-26.318760967421987
-13.623254749370565
-2.197299153124285
-4.736400396734569
12.939650568398566
26.22110322728313
23.19371328297856
41.065079728389414
54.24887464713512
67.53032730601969
80.81177996490425
77.78439002059967
89.89394979781795
98.6831464103151
96.6323338673991
104.73792629892424
110.49973296711681
112.06225680933852
114.50370031280995
113.9177538719768
114.01541161211567
113.9177538719768
113.9177538719768
110.9880216678111
108.74189364461738
103.4683756771191
98.87846189059282
99.85503929198138
92.92133974212253
87.7454795147631
88.91737239642939
81.00709544518196
75.04997329671168
67.7256427862974
60.79194323643854
62.2568093385214
53.36995498588541
46.72922865644312
48.19409475852598
39.20958266575113
32.56885633630884
27.392996108949415
21.826504921034562
23.096055542839704
17.041275654230564
12.646677347981994
13.623254749370565
8.642710002288853
4.931715877012284
2.8809033340962844
0.537117570763714
1.0254062714579995
-1.8066681925688564
-4.052796215762569
-3.5645075150682843
-6.494239719233997
-8.74036774242771
-11.08415350576028
-13.427939269092851
-12.939650568398566
-16.84596017395285
-19.775692378118563
-19.092088197146563
-22.119478141451133
-24.267948424505988
-27.68596932936599
-30.71335927367056
-30.029755092698558
-33.93606469825284
-36.86579690241855
-36.27985046158541
-43.018234531166556
-48.19409475852598
-56.59266041046769
-64.20996414129854
-62.54978255893797
-71.43663691157397
-78.07736324101626
-76.61249713893339
-81.5930418860151
-85.20637827115281
-85.40169375143053
-86.28061341268025
-85.98764019226367
-84.13214312962539
-82.66727702754254
-82.96025024795911
-77.10078583962768
-72.60852979324025
-68.79987792782482
-64.89356832227054
-65.77248798352025
-63.6240177004654
-62.15915159838254
-62.45212481879911
-63.33104448004883
-64.01464866102083
-64.79591058213168
-65.57717250324254
-65.38185702296482
-65.38185702296482
-65.38185702296482
-65.38185702296482
-64.40527962157626
-63.6240177004654
-59.91302357518883
-56.88563363088426
-57.56923781185626
-49.75661860074769
-43.79949645227741
-45.16670481422141
-33.3501182574197
-24.560921644922562
-11.181811245899137
1.0254062714579995
-1.6113527122911422
16.064698252841993
29.346150911726557
26.318760967421987
43.21355001144427
55.713740749217976
67.23735408560312
78.95628290226597
76.31952391851682
87.35484855420768
95.36278324559396
93.60494392309452
98.6831464103151
102.29648279545282
103.37071793698024
105.0308995193408
104.64026855878538
102.7847714961471
101.22224765392538
101.51522087434195
96.6323338673991
92.92133974212253
87.94079499504082
83.35088120851454
84.3274586099031
76.41718165865568
70.55771725032426
71.8272678721294
62.9404135194934
56.29968719005112
48.19409475852598
40.38147554741741
42.13931486991684
34.0337224383917
28.174258030060273
29.541466392004274
21.533531700617992
15.674067292286564
11.279468986037996
6.494239719233997
7.568474860761425
2.5879301136797133
-1.0254062714579995
-0.24414435034714274
-4.248111696040284
-7.177843900205997
-8.349736781872283
-10.009918364232853
-9.619287403677424
-12.549019607843137
-14.795147631036851
-14.306858930342566
-16.357671473258563
-17.724879835202564
-20.263981078812847
-22.60776684214542
-22.119478141451133
-24.072632944228275
-25.537499046311133
-25.24452582589456
-28.174258030060273
-30.322728313115128
-32.6665140764477
-35.010299839780274
-34.52201113908598
-38.42832074464027
-41.358052948805984
-40.67444876783398
-43.70183871213855
-45.85030899519341
-48.19409475852598
-50.53788052185855
-50.04959182116426
-52.002746623941405
-53.467612726024264
-53.17463950560769
-56.006713969634546
-58.25284199282826
-59.62005035477226
-61.182574196993976
-60.8896009765774
-61.86617837796597
-62.54978255893797
-62.35446707866026
-64.3076218814374
-65.77248798352025
-66.3584344243534
-67.13969634546426
-66.94438086518655
-67.92095826657511
-68.70222018768597
-68.50690470740825
-69.48348210879682
-70.16708628976883
-69.9717708094911
-69.9717708094911
-69.9717708094911
-69.9717708094911
-69.87411306935225
-69.87411306935225
-67.0420386053254
-64.79591058213168
-60.49897001602197
-56.59266041046769
-57.471580071717405
-48.68238345922026
-41.943999389639124
-43.40886549172198
-30.71335927367056
-21.14290074006256
-7.959105821316854
4.345769436179141
1.513694972152285
18.40848401617456
30.908674753948272
28.076600289921416
43.99481193255512
55.713740749217976
64.50293736171511
73.97573815518425
71.92492561226825
79.93286030365454
85.79232471198596
84.42511635004196
87.55016403448539
89.69863431754024
89.21034561684596
89.30800335698481
89.21034561684596
86.37827115281911
84.13214312962539
84.52277409018082
79.63988708323797
75.9288929579614
69.0928511482414
62.9404135194934
64.3076218814374
56.29968719005112
50.44022278171969
51.709773403524835
42.822919050888835
36.182192721446555
30.029755092698558
23.779659723811704
25.146868085755703
17.13893339436942
11.279468986037996
12.549019607843137
6.591897459372854
2.197299153124285
-0.537117570763714
-3.7598229953459983
-3.076218814373999
-6.103608758678568
-8.252079041733426
-7.763790341039139
-11.670099946593423
-14.599832150759136
-20.654612039368278
-26.025787747005417
-24.756237125200276
-31.787594415197987
-36.86579690241855
-35.69390402075227
-39.79552910658427
-42.72526131074998
-43.018234531166556
-43.79949645227741
-43.604180971999696
-42.72526131074998
-41.943999389639124
-42.13931486991684
-39.20958266575113
-36.96345464255741
-34.52201113908598
-32.178225375753414
-32.764171816586554
-33.545433737697415
-34.32669565880827
-34.131380178530556
-37.06111238269627
-39.20958266575113
-40.67444876783398
-42.236972610055695
-41.84634164950027
-44.77607385366598
-47.0222018768597
-46.43625543602655
-47.51049057755398
-48.19409475852598
-49.951934081025406
-51.416800183108265
-51.123826962691695
-52.10040436408026
-52.881666285191116
-52.6863508049134
-53.66292820630198
-54.346532387273975
-55.127794308384836
-55.90905622949569
-55.713740749217976
-55.713740749217976
-55.713740749217976
-55.713740749217976
-55.61608300907912
-55.61608300907912
-55.61608300907912
-55.61608300907912
-55.61608300907912
-54.639505607690545
-53.85824368657969
-53.95590142671855
-51.123826962691695
-48.877698939497975
-43.604180971999696
-39.014267185473415
-39.99084458686198
-30.22507057297627
-22.803082322423133
-24.4632639047837
-11.670099946593423
-2.0996414129854277
10.888838025482567
23.291371023117417
20.55695429922942
35.49858854047456
46.43625543602655
43.99481193255512
57.86221103227283
68.11627374685283
74.46402685587854
81.5930418860151
79.93286030365454
85.10872053101396
88.72205691615167
87.84313725490196
88.91737239642939
89.60097657740138
86.57358663309682
84.3274586099031
84.81574731059739
79.93286030365454
76.22186617837797
77.00312809948882
70.06942854962998
64.89356832227054
58.44815747310597
52.19806210421912
53.56527046616312
44.67841611352712
38.03768978408484
39.5025558861677
30.518043793392845
23.87731746395056
17.724879835202564
11.47478446631571
12.84199282825971
5.908293278400855
0.7324330510414282
1.9043259327077133
-3.076218814373999
-6.6895551995117115
-8.74036774242771
-11.181811245899137
-10.595864805065995
-12.646677347981994
-14.11154345006485
-13.81857022964828
-14.795147631036851
-15.47875181200885
-17.236591134508277
-18.799114976729992
-18.40848401617456
-19.48271915770199
-20.16632333867399
-19.971007858396277
-21.92416266117342
-23.389028763256274
-24.95155260547799
-26.514076447699704
-26.22110322728313
-28.174258030060273
-29.63912413214313
-29.346150911726557
-32.178225375753414
-34.424353398947126
-36.768139162279695
-39.11192492561227
-38.62363622491798
-41.5533684290837
-43.70183871213855
-43.21355001144427
-46.240939955748836
-48.38941023880369
-50.73319600213626
-53.07698176546884
-52.49103532463569
-56.39734493018997
-59.32707713435569
-58.74113069352254
-61.67086289768826
-63.819333180743115
-65.28419928282597
-66.84672312504769
-66.45609216449226
-69.38582436865796
-71.53429465171283
-71.04600595101854
-73.97573815518425
-76.22186617837797
-77.58907454032196
-79.15159838254368
-78.76096742198825
-80.71412222476539
-82.17898832684826
-81.78835736629281
-82.86259250782025
-83.54619668879225
-85.30403601129167
-86.76890211337454
-86.37827115281911
-86.47592889295797
-86.37827115281911
-86.37827115281911
-85.40169375143053
-84.62043183031967
-80.9094377050431
-77.88204776073853
-78.56565194171054
-70.75303273060197
-64.79591058213168
-66.06546120393683
-55.32310978866255
-47.11985961699855
-34.61966887922484
-23.096055542839704
-25.63515678644999
-8.838025482566568
3.5645075150682843
0.8300907911802854
16.650644693675137
28.467231250476843
39.20958266575113
50.14724956130312
47.705806057831694
56.7879758907454
63.33104448004883
61.86617837796597
65.96780346379796
68.89753566796368
69.19050888838025
70.06942854962998
69.77645532921339
66.94438086518655
64.69825284199283
65.18654154268711
57.37392233157855
51.51445792324712
39.40489814602884
28.760204470893417
31.103990234225986
17.13893339436942
6.884870679789426
9.130998702983138
-1.7090104524299992
-9.81460288395514
-14.697489890897993
-20.263981078812847
-18.994430457007706
-22.119478141451133
-24.365606164644845
-23.87731746395056
-22.021820401312276
-20.45929655909056
-17.041275654230564
-14.013885709925994
-14.599832150759136
-13.525597009231708
-12.84199282825971
-12.939650568398566
-13.916227969787137
-14.599832150759136
-14.50217441062028
-14.50217441062028
-14.50217441062028
-15.47875181200885
-16.16235599298085
-15.967040512703136
-16.943617914091707
-17.724879835202564
-18.506141756313422
-19.287403677424276
-19.092088197146563
-21.045242999923705
-22.510109102006563
-22.21713588158999
-23.19371328297856
-23.87731746395056
-25.63515678644999
-27.1976806286717
-26.807049668116274
-28.760204470893417
-30.22507057297627
-29.9320973525597
-30.908674753948272
-31.68993667505913
-33.3501182574197
-34.91264209964141
-34.52201113908598
-34.61966887922484
-34.61966887922484
-34.61966887922484
-35.49858854047456
-36.27985046158541
-36.0845349813077
-36.0845349813077
-36.0845349813077
-36.0845349813077
-36.0845349813077
-36.0845349813077
-36.96345464255741
-37.74471656366827
-37.549401083390556
-37.549401083390556
-37.549401083390556
-37.549401083390556
-37.549401083390556
-37.549401083390556
-38.42832074464027
-39.20958266575113
-39.014267185473415
-39.014267185473415
-39.014267185473415
-38.03768978408484
-37.256427862973986
-37.4517433432517
-34.52201113908598
-32.27588311589227
-26.123445487144274
-20.752269779507134
-21.92416266117342
-12.158388647287708
-4.736400396734569
-6.39658197909514
8.154421301594567
19.18974593728542
32.08056763561456
44.48310063324941
41.651026169222554
57.56923781185626
69.28816662851911
66.65140764476998
80.61646448462653
90.77286945906768
98.09719996948196
106.00747692072939
104.1519798580911
109.32784008545052
112.84351873044938
112.06225680933852
113.13649195086595
113.82009613183794
111.6716258487831
110.20675974670024
110.49973296711681
104.64026855878538
100.24567025253681
101.12458991378652
94.19089036392768
89.01503013656824
82.56961928740368
76.31952391851682
77.68673228046082
68.70222018768597
62.061493858243686
63.526359960326545
53.66292820630198
46.240939955748836
40.28381780727855
33.93606469825284
35.303273060196844
28.369573510337986
23.19371328297856
24.365606164644845
19.287403677424276
15.674067292286564
13.623254749370565
11.181811245899137
11.670099946593423
8.74036774242771
6.494239719233997
6.982528419928283
4.931715877012284
3.466849774929427
1.9043259327077133
0.34180209048599985
0.7324330510414282
-2.0996414129854277
-4.345769436179141
-3.8574807354848555
-5.908293278400855
-7.373159380483711
-9.81460288395514
-12.158388647287708
-11.670099946593423
-15.576409552147707
-18.506141756313422
-17.82253757534142
-20.84992751964599
-22.998397802700847
-25.439841306172273
-27.783627069504846
-27.1976806286717
-31.103990234225986
-34.0337224383917
-33.44777599755856
-36.37750820172427
-38.62363622491798
-39.99084458686198
-41.5533684290837
-41.26039520866713
-43.21355001144427
-44.67841611352712
-44.28778515297169
-46.240939955748836
-47.705806057831694
-49.26832990005341
-50.83085374227512
-50.44022278171969
-51.51445792324712
-52.19806210421912
-52.002746623941405
-52.002746623941405
-52.002746623941405
-52.97932402532997
-53.66292820630198
-53.467612726024264
-53.56527046616312
-53.467612726024264
-53.467612726024264
-52.49103532463569
-51.709773403524835
-49.951934081025406
-48.48706797894255
-48.78004119935912
-43.89715419241627
-40.186160067139696
-40.96742198825055
-31.2993057145037
-23.87731746395056
-12.158388647287708
-1.416037232013428
-3.7598229953459983
13.81857022964828
27.100022888532845
24.17029068436713
41.943999389639124
55.22545204852369
64.60059510185397
74.95231555657283
72.60852979324025
83.6438544289311
91.65178912031739
89.7962920576791
98.78080415045396
105.32387273975738
111.47631036850538
117.72640573739223
116.26153963530938
121.33974212252994
124.95307850766766
124.07415884641794
129.93362325474936
134.32822156099795
135.20714122224766
136.86732280460822
136.4766918440528
134.62119478141452
133.0586709391928
133.35164415960938
126.51560234988938
121.33974212252994
114.79667353322652
108.54657816433966
109.91378652628366
100.0503547722591
92.62836652170596
94.19089036392768
84.3274586099031
76.90547035934996
69.9717708094911
62.84275577935454
64.40527962157626
55.420767528801406
48.78004119935912
50.24490730144198
42.33463035019455
36.37750820172427
31.9829098954757
27.1976806286717
28.27191577019913
22.314793621728846
17.920195315480278
18.89677271686885
14.795147631036851
11.865415426871138
7.763790341039139
3.8574807354848555
4.736400396734569
0.7324330510414282
-2.0996414129854277
-1.416037232013428
-6.39658197909514
-10.009918364232853
-13.037308308537423
-16.16235599298085
-15.47875181200885
-20.361638818951704
-24.072632944228275
-23.19371328297856
-27.1976806286717
-30.127412832837415
-34.22903791866941
-38.1353475242237
-37.256427862973986
-42.236972610055695
-45.85030899519341
-45.069047074082555
-49.951934081025406
-53.66292820630198
-58.54581521324483
-63.13572899977112
-62.061493858243686
-67.0420386053254
-70.75303273060197
-69.87411306935225
-75.73357747768368
-80.12817578393225
-83.93682764934768
-87.84313725490196
-86.96421759365225
-91.8471046005951
-95.46044098573282
-94.67917906462196
-97.70656900892652
-99.85503929198138
-102.19882505531396
-104.44495307850767
-103.95666437781338
-105.90981918059052
-107.37468528267338
-106.98405432211796
-107.96063172350652
-108.64423590447852
-108.44892042420081
-108.44892042420081
-108.44892042420081
-103.66369115739681
-99.85503929198138
-100.63630121309224
-92.82368200198367
-86.8665598535134
-74.85465781643397
-64.11230640115969
-66.45609216449226
-47.80346379797055
-33.74074921797513
-36.86579690241855
-16.16235599298085
-0.6347753109025711
14.892805371175708
30.518043793392845
27.002365148393988
43.99481193255512
56.49500267032883
53.66292820630198
65.77248798352025
74.46402685587854
80.12817578393225
86.47592889295797
85.0110627908751
90.08926527809568
93.70260166323338
92.92133974212253
93.99557488364995
94.67917906462196
93.50728618295567
92.82368200198367
92.92133974212253
89.99160753795681
87.7454795147631
88.23376821545739
83.25322346837568
79.54222934309911
73.68276493476768
68.31158922713054
69.48348210879682
62.45212481879911
57.37392233157855
58.44815747310597
49.56130312046998
42.92057679102769
36.768139162279695
30.518043793392845
31.885252155336843
24.853894865339132
19.775692378118563
20.84992751964599
14.892805371175708
10.498207064927138
6.6895551995117115
2.783245593957427
3.662165255207141
-1.2207217517357138
-4.931715877012284
-4.150453955901427
-8.05676356145571
-10.986495765621424
-15.185778591592278
-18.994430457007706
-18.11551079575799
-22.119478141451133
-25.049210345616846
-24.365606164644845
-28.369573510337986
-31.2993057145037
-35.4009308003357
-39.20958266575113
-38.33066300450141
-42.33463035019455
-45.26436255436027
-44.580758373388264
-48.584725719081405
-51.51445792324712
-54.639505607690545
-57.764553292133975
-57.08094911116198
-60.01068131532769
-62.15915159838254
-61.67086289768826
-65.57717250324254
-68.50690470740825
-69.77645532921339
-71.33897917143511
-70.94834821087969
-72.02258335240711
-72.70618753337911
-72.5108720531014
-73.48744945448996
-74.17105363546197
-73.09681849393453
-72.31555657282368
-72.5108720531014
-71.43663691157397
-70.65537499046312
-70.85069047074083
-72.70618753337911
-74.17105363546197
-78.56565194171054
-82.37430380712597
-81.49538414587624
-85.40169375143053
-88.33142595559625
-87.64782177462425
-88.72205691615167
-89.40566109712367
-85.40169375143053
-82.47196154726483
-83.05790798809797
-73.3897917143511
-65.96780346379796
-67.53032730601969
-50.928511482413974
-38.42832074464027
-20.16632333867399
-3.1738765545128556
-6.982528419928283
14.795147631036851
30.908674753948272
27.295338368810558
48.19409475852598
63.526359960326545
79.24925612268254
94.77683680476082
91.26115815976196
108.2536049439231
120.65613794155794
117.92172121766994
128.9570458533608
136.96498054474708
140.87129015030138
145.65651941710536
144.58228427557793
145.65651941710536
146.34012359807735
146.14480811779964
143.21507591363394
140.96894789044023
137.64858472571908
134.52353704127566
135.1094834821088
129.25001907377737
124.75776302738994
125.63668268863965
118.70298313878081
113.52712291142137
106.98405432211796
100.83161669336995
102.1011673151751
94.19089036392768
88.23376821545739
89.50331883726253
81.5930418860151
75.73357747768368
69.28816662851911
63.03807125963226
64.40527962157626
57.471580071717405
52.295719844357976
53.36995498588541
48.38941023880369
44.67841611352712
40.67444876783398
36.768139162279695
37.64705882352941
34.61966887922484
32.37354085603113
32.86182955672541
28.95551995117113
26.025787747005417
22.803082322423133
19.678034637979707
20.361638818951704
16.357671473258563
13.427939269092851
14.11154345006485
11.08415350576028
8.935683222705425
5.517662317845426
2.490272373540856
3.1738765545128556
0.14648661020828566
-2.0019836728465705
-1.513694972152285
-4.443427176317998
-6.6895551995117115
-9.033340962844282
-11.377126726176853
-10.79118028534371
-13.81857022964828
-15.967040512703136
-15.47875181200885
-17.52956435492485
-18.994430457007706
-20.55695429922942
-22.119478141451133
-21.728847180895706
-24.65857938506142
-26.90470740825513
-26.416418707560844
-28.369573510337986
-29.834439612420844
-32.37354085603113
-34.717326619363696
-34.131380178530556
-37.15877012283513
-39.307240405889985
-38.818951705195694
-41.74868390936141
-43.99481193255512
-47.31517509727627
-50.34256504158083
-49.658960860608836
-53.56527046616312
-56.49500267032883
-55.81139848935683
-59.815365835049974
-62.745098039215684
-65.8701457236591
-68.89753566796368
-68.21393148699168
-73.09681849393453
-76.8078126192111
-75.9288929579614
-79.93286030365454
-82.86259250782025
-85.98764019226367
-89.01503013656824
-88.33142595559625
-92.33539330128939
-95.16746776531625
-94.48386358434425
-96.53467612726024
-97.99954222934309
-99.56206607156481
-101.02693217364767
-100.63630121309224
-100.7339589532311
-100.63630121309224
-100.63630121309224
-99.65972381170367
-98.87846189059282
-97.12062256809338
-95.55809872587167
-95.85107194628824
-92.92133974212253
-90.67521171892882
-91.06584267948425
-88.13611047531853
-85.88998245212481
-82.47196154726483
-79.44457160296025
-80.03051804379339
-76.02655069810025
-73.09681849393453
-73.78042267490653
-70.75303273060197
-68.50690470740825
-66.06546120393683
-63.72167544060426
-64.20996414129854
-61.28023193713283
-59.03410391393912
-59.522392614633404
-57.471580071717405
-56.006713969634546
-54.346532387273975
-52.78400854505226
-53.07698176546884
-51.123826962691695
-49.658960860608836
-49.951934081025406
-48.877698939497975
-48.19409475852598
-46.43625543602655
-44.873731593804834
-45.16670481422141
-44.19012741283284
-43.40886549172198
-43.50652323186084
-41.5533684290837
-40.08850232700084
-39.5025558861677
-38.62363622491798
-38.818951705195694
-36.86579690241855
-35.4009308003357
-35.69390402075227
-34.61966887922484
-33.93606469825284
-33.05714503700313
-32.27588311589227
-32.471198596169984
-30.518043793392845
-29.053177691309987
-29.346150911726557
-31.201647974364842
-32.6665140764477
-35.20561532005799
-37.4517433432517
-36.96345464255741
-40.86976424811169
-43.79949645227741
-43.11589227130541
-43.21355001144427
-43.21355001144427
-41.26039520866713
-39.79552910658427
-40.08850232700084
-35.303273060196844
-31.592278934920273
-32.37354085603113
-25.439841306172273
-20.361638818951704
-13.81857022964828
-7.666132600900283
-9.033340962844282
-0.14648661020828566
6.39658197909514
4.931715877012284
14.795147631036851
22.21713588158999
34.81498435950255
46.33859769588769
43.79949645227741
63.42870222018769
78.07736324101626
74.85465781643397
96.53467612726024
112.64820325017166
129.05470359349965
145.46120393682764
141.7502098115511
159.7192339971008
172.80537117570765
169.87563897154192
181.88754100862135
190.57907988097963
194.38773174639505
199.17296101319906
198.00106813153278
199.17296101319906
199.7589074540322
199.56359197375448
196.63385976958878
194.38773174639505
190.09079118028535
186.18448157473105
186.9657434958419
179.05546654459448
173.09834439612422
174.36789501792936
165.3833829251545
158.74265659571222
150.63706416418708
142.8244449530785
144.48462653543908
133.5469596398871
125.44136720836194
127.19920653086137
117.23811703669794
109.8161287861448
102.88242923628596
95.75341420614939
97.3159380483711
89.30800335698481
83.4485389486534
84.71808957045853
78.6633096818494
74.26871137560083
69.48348210879682
64.79591058213168
65.77248798352025
60.79194323643854
57.08094911116198
57.86221103227283
52.881666285191116
49.17067215991455
45.26436255436027
41.358052948805984
42.13931486991684
37.15877012283513
33.545433737697415
34.32669565880827
28.369573510337986
23.974975204089418
19.18974593728542
14.50217441062028
15.576409552147707
9.619287403677424
5.224689097428855
6.201266498817426
1.2207217517357138
-2.392614633401999
-7.275501640344854
-11.963073167009995
-10.888838025482567
-15.869382772564279
-19.58037689784085
-18.701457236591136
-24.65857938506142
-29.053177691309987
-31.885252155336843
-35.010299839780274
-34.32669565880827
-39.20958266575113
-42.92057679102769
-42.04165712977798
-45.16670481422141
-47.31517509727627
-50.635538261997404
-53.66292820630198
-52.97932402532997
-56.006713969634546
-58.1551842526894
-57.66689555199512
-60.59662775616083
-62.745098039215684
-64.20996414129854
-65.77248798352025
-65.38185702296482
-68.31158922713054
-70.4600595101854
-69.9717708094911
-72.02258335240711
-73.3897917143511
-74.95231555657283
-76.51483939879454
-76.12420843823911
-78.07736324101626
-79.54222934309911
-79.15159838254368
-81.10475318532082
-82.56961928740368
-83.15556572823682
-83.93682764934768
-83.74151216906996
-84.71808957045853
-85.49935149156939
-85.30403601129167
-85.30403601129167
-85.20637827115281
-84.22980086976425
-83.4485389486534
-83.6438544289311
-80.71412222476539
-78.46799420157168
-78.95628290226597
-72.12024109254597
-66.94438086518655
-57.56923781185626
-49.073014419775696
-50.928511482413974
-37.15877012283513
-26.807049668116274
-29.150835431448844
-11.377126726176853
1.7090104524299992
14.990463111314565
28.27191577019913
25.342183566033416
41.26039520866713
52.97932402532997
50.34256504158083
62.35446707866026
71.1436636911574
76.8078126192111
83.15556572823682
81.69069962615396
84.91340505073624
86.96421759365225
86.47592889295797
86.57358663309682
86.47592889295797
83.6438544289311
81.39772640573739
81.88601510643167
77.88204776073853
74.95231555657283
75.53826199740597
69.67879758907453
65.18654154268711
59.522392614633404
54.053559166857404
55.22545204852369
47.31517509727627
41.45571068894484
42.72526131074998
35.69390402075227
30.615701533531702
24.072632944228275
17.920195315480278
19.287403677424276
13.232623788815136
8.838025482566568
9.81460288395514
1.0254062714579995
-5.517662317845426
-13.623254749370565
-21.338216220340275
-19.678034637979707
-28.66254673075456
-35.20561532005799
-33.74074921797513
-38.818951705195694
-42.43228809033341
-42.529945830472265
-43.50652323186084
-43.311207751583126
-41.358052948805984
-39.893186846723125
-40.186160067139696
-35.303273060196844
-31.592278934920273
-28.66254673075456
-25.439841306172273
-26.123445487144274
-26.025787747005417
-26.025787747005417
-26.025787747005417
-29.834439612420844
-32.764171816586554
-35.010299839780274
-37.35408560311284
-36.768139162279695
-39.79552910658427
-41.943999389639124
-41.45571068894484
-44.38544289311055
-46.63157091630426
-48.97535667963683
-51.31914244296941
-50.73319600213626
-53.66292820630198
-55.90905622949569
-55.420767528801406
-57.37392233157855
-58.8387884336614
-60.401312275883114
-61.96383611810483
-61.5732051575494
-62.54978255893797
-63.33104448004883
-63.13572899977112
-64.11230640115969
-64.79591058213168
-64.60059510185397
-64.60059510185397
-64.60059510185397
-65.57717250324254
-66.26077668421455
-66.06546120393683
-66.06546120393683
-66.06546120393683
-66.06546120393683
-65.96780346379796
-65.96780346379796
-66.94438086518655
-67.62798504615854
-67.43266956588083
-67.43266956588083
-67.43266956588083
-67.43266956588083
-67.43266956588083
-67.43266956588083
-67.33501182574197
-67.33501182574197
-67.33501182574197
-64.40527962157626
-62.15915159838254
-56.983291371023114
-52.39337758449683
-53.36995498588541
-43.604180971999696
-36.182192721446555
-37.84237430380713
-25.049210345616846
-15.47875181200885
-2.2949568932631417
10.009918364232853
7.275501640344854
23.096055542839704
34.81498435950255
32.27588311589227
45.16670481422141
54.7371633478294
61.182574196993976
68.31158922713054
66.74906538490883
71.8272678721294
75.44060425726711
74.5616845960174
76.61249713893339
78.07736324101626
75.83123521782254
74.36636911573969
74.65934233615626
69.77645532921339
66.06546120393683
66.84672312504769
60.987258716716255
56.49500267032883
50.83085374227512
45.362020294499125
46.533913176165406
38.62363622491798
32.764171816586554
34.0337224383917
25.146868085755703
18.506141756313422
12.353704127565424
6.103608758678568
7.470817120622568
-0.34180209048599985
-6.298924238956283
-4.931715877012284
-10.986495765621424
-15.381094071869994
-18.21316853589685
-21.338216220340275
-20.654612039368278
-23.682001983672848
-25.830472266727703
-25.342183566033416
-26.416418707560844
-27.100022888532845
-28.857862211032273
-30.420386053253985
-30.029755092698558
-31.00633249408713
-31.787594415197987
-31.592278934920273
-32.56885633630884
-33.3501182574197
-35.010299839780274
-36.57282368200198
-36.182192721446555
-39.11192492561227
-41.358052948805984
-40.772106507972836
-42.822919050888835
-44.28778515297169
-46.826886396581976
-49.073014419775696
-48.584725719081405
-50.53788052185855
-52.002746623941405
-51.709773403524835
-54.54184786755169
-56.7879758907454
-58.1551842526894
-59.71770809491112
-59.42473487449455
-60.401312275883114
-61.08491645685512
-60.8896009765774
-61.86617837796597
-62.64744029907683
-63.42870222018769
-64.11230640115969
-63.91699092088197
-64.89356832227054
-65.6748302433814
-65.47951476310368
-65.47951476310368
-65.47951476310368
-66.3584344243534
-67.13969634546426
-66.94438086518655
-66.94438086518655
-66.94438086518655
-66.84672312504769
-66.84672312504769
-66.84672312504769
-66.84672312504769
-66.74906538490883
-66.74906538490883
-65.77248798352025
-64.9912260624094
-65.18654154268711
-64.20996414129854
-63.42870222018769
-61.67086289768826
-60.108339055466544
-60.401312275883114
-54.639505607690545
-50.14724956130312
-51.123826962691695
-43.21355001144427
-37.35408560311284
-26.22110322728313
-16.260013733119706
-18.506141756313422
-3.662165255207141
7.275501640344854
4.834058136873426
17.724879835202564
27.295338368810558
34.717326619363696
42.62760357061112
40.86976424811169
47.90112153810941
52.97932402532997
51.80743114366369
57.764553292133975
62.15915159838254
65.96780346379796
69.87411306935225
68.99519340810254
72.99916075379568
75.83123521782254
75.2452887769894
78.17502098115511
80.32349126420996
79.83520256351568
79.93286030365454
79.83520256351568
77.00312809948882
74.75700007629511
75.2452887769894
67.43266956588083
61.475547417410546
55.127794308384836
48.877698939497975
50.24490730144198
43.311207751583126
38.1353475242237
39.307240405889985
33.252460517280845
28.857862211032273
25.049210345616846
21.14290074006256
22.021820401312276
18.89677271686885
16.748302433813993
17.236591134508277
15.185778591592278
13.720912489509422
12.158388647287708
10.595864805065995
10.888838025482567
9.912260624093996
9.130998702983138
8.349736781872283
7.568474860761425
7.763790341039139
5.810635538261997
4.345769436179141
4.638742656595713
2.68558785381857
1.2207217517357138
1.513694972152285
-0.34180209048599985
-1.8066681925688564
-4.345769436179141
-6.6895551995117115
-6.201266498817426
-8.154421301594567
-9.619287403677424
-9.326314183260854
-12.256046387426567
-14.50217441062028
-15.869382772564279
-17.43190661478599
-17.13893339436942
-19.092088197146563
-20.55695429922942
-20.16632333867399
-22.21713588158999
-23.682001983672848
-25.24452582589456
-26.807049668116274
-26.416418707560844
-28.369573510337986
-29.834439612420844
-30.518043793392845
-31.2993057145037
-31.103990234225986
-32.08056763561456
-32.764171816586554
-32.6665140764477
-33.64309147783627
-34.32669565880827
-35.10795757991913
-35.889219501029984
-35.69390402075227
-36.67048142214084
-37.35408560311284
-37.256427862973986
-37.256427862973986
-37.256427862973986
-37.256427862973986
-36.27985046158541
-35.49858854047456
-31.885252155336843
-28.857862211032273
-29.443808651865414
-22.60776684214542
-17.43190661478599
-6.201266498817426
3.662165255207141
1.416037232013428
17.13893339436942
28.95551995117113
26.318760967421987
44.09246967269398
57.27626459143969
71.53429465171283
85.49935149156939
82.37430380712597
97.41359578850995
108.35126268406195
105.81216144045166
115.87090867475395
123.19523918516823
127.19920653086137
131.98443579766536
130.91020065613793
132.96101319905395
134.4258793011368
134.03524834058138
133.15632867933166
132.27740901808195
128.66407263294423
125.5390249485008
126.22262912947281
121.24208438239108
117.53109025711451
118.31235217822538
111.37865262836652
106.2027924010071
99.65972381170367
93.40962844281681
94.77683680476082
86.8665598535134
80.9094377050431
82.17898832684826
73.29213397421225
66.65140764476998
60.49897001602197
54.15121690699626
55.51842526894026
48.584725719081405
43.40886549172198
44.580758373388264
38.525978484779124
34.131380178530556
30.322728313115128
26.416418707560844
27.1976806286717
23.19371328297856
20.263981078812847
20.947585259784848
16.943617914091707
14.013885709925994
11.767757686732281
9.42397192339971
9.912260624093996
6.982528419928283
4.736400396734569
5.224689097428855
2.2949568932631417
0.04882887006942855
-3.1738765545128556
-6.201266498817426
-5.517662317845426
-9.521629663538567
-12.45136186770428
-11.767757686732281
-14.795147631036851
-16.943617914091707
-20.361638818951704
-23.389028763256274
-22.705424582284277
-26.709391927977418
-29.541466392004274
-28.95551995117113
-31.885252155336843
-34.131380178530556
-36.475165941863125
-38.818951705195694
-38.23300526436255
-41.26039520866713
-43.40886549172198
-42.92057679102769
-44.97138933394369
-46.33859769588769
-47.90112153810941
-49.46364538033112
-49.17067215991455
-50.14724956130312
-50.83085374227512
-50.635538261997404
-51.61211566338598
-52.39337758449683
-56.006713969634546
-59.03410391393912
-58.350499732967116
-65.08888380254825
-70.26474402990769
-69.0928511482414
-74.07339589532312
-77.78439002059967
-77.88204776073853
-78.76096742198825
-78.56565194171054
-72.80384527351796
-68.31158922713054
-69.28816662851911
-57.56923781185626
-48.68238345922026
-31.592278934920273
-16.260013733119706
-19.678034637979707
3.8574807354848555
21.533531700617992
17.627222095063708
39.5025558861677
55.61608300907912
68.21393148699168
81.69069962615396
78.6633096818494
93.60494392309452
104.54261081864652
102.1011673151751
112.15991454947738
119.3865873197528
123.4882124055848
128.2734416723888
127.10154879072252
128.2734416723888
128.9570458533608
128.76173037308308
127.78515297169452
127.00389105058366
123.29289692530709
120.26550698100252
120.85145342183566
115.9685664148928
112.25757228961623
113.03883421072709
107.08171206225681
102.58945601586939
95.9487296864271
89.69863431754024
91.06584267948425
82.17898832684826
75.53826199740597
76.90547035934996
68.01861600671397
61.37788967727169
54.24887464713512
47.21751735713741
48.78004119935912
39.79552910658427
33.15480277714199
34.61966887922484
27.588311589227132
22.510109102006563
17.920195315480278
13.13496604867628
14.209201190203707
9.228656443121995
5.517662317845426
6.39658197909514
2.392614633401999
-0.43945983062485694
-2.68558785381857
-5.0293736171511405
-4.541084916456855
-8.44739452201114
-11.377126726176853
-10.79118028534371
-14.697489890897993
-17.627222095063708
-19.87335011825742
-22.21713588158999
-21.728847180895706
-25.63515678644999
-28.564888990615703
-27.881284809643702
-31.885252155336843
-34.81498435950255
-36.96345464255741
-39.307240405889985
-38.818951705195694
-42.72526131074998
-45.654993514915695
-44.97138933394369
-47.0222018768597
-48.48706797894255
-51.02616922255284
-53.27229724574655
-52.78400854505226
-54.7371633478294
-56.20202944991226
-55.81139848935683
-57.86221103227283
-59.22941939421683
-59.91302357518883
-60.694285496299685
-60.49897001602197
-61.475547417410546
-62.15915159838254
-61.96383611810483
-63.91699092088197
-65.38185702296482
-65.96780346379796
-66.74906538490883
-66.55374990463112
-67.53032730601969
-68.21393148699168
-68.01861600671397
-68.11627374685283
-68.01861600671397
-67.0420386053254
-66.26077668421455
-66.45609216449226
-63.526359960326545
-61.28023193713283
-61.768520637827116
-53.95590142671855
-48.09643701838712
-37.94003204394598
-28.66254673075456
-30.71335927367056
-14.990463111314565
-3.1738765545128556
-5.810635538261997
12.84199282825971
26.807049668116274
41.84634164950027
56.59266041046769
53.27229724574655
69.28816662851911
81.00709544518196
78.37033646143283
90.38223849851225
99.07377737087053
103.76134889753567
109.42549782558937
108.15594720378424
111.18333714808881
113.33180743114366
112.84351873044938
112.94117647058823
112.84351873044938
110.89036392767224
109.42549782558937
109.71847104600594
105.7145037003128
102.7847714961471
103.37071793698024
97.51125352864881
93.01899748226138
87.35484855420768
81.88601510643167
83.05790798809797
75.14763103685054
69.19050888838025
70.4600595101854
61.5732051575494
54.932478828107115
47.80346379797055
40.772106507972836
42.33463035019455
34.32669565880827
28.467231250476843
29.736781872281988
21.826504921034562
15.967040512703136
11.47478446631571
6.787212939650568
7.763790341039139
2.783245593957427
-0.7324330510414282
0.04882887006942855
-3.9551384756237127
-6.884870679789426
-10.009918364232853
-13.13496604867628
-12.45136186770428
-15.47875181200885
-17.627222095063708
-17.13893339436942
-21.045242999923705
-24.072632944228275
-27.1976806286717
-30.322728313115128
-29.63912413214313
-32.56885633630884
-34.81498435950255
-34.32669565880827
-38.23300526436255
-41.16273746852827
-46.240939955748836
-50.83085374227512
-49.75661860074769
-58.54581521324483
-65.18654154268711
-63.6240177004654
-71.63195239185168
-77.4914168001831
-79.93286030365454
-83.15556572823682
-82.47196154726483
-84.52277409018082
-85.88998245212481
-85.59700923170824
-83.6438544289311
-82.17898832684826
-77.68673228046082
-73.87808041504539
-74.65934233615626
-70.65537499046312
-67.7256427862974
-68.31158922713054
-66.26077668421455
-64.79591058213168
-66.06546120393683
-66.74906538490883
-66.55374990463112
-67.53032730601969
-68.21393148699168
-68.01861600671397
-68.01861600671397
-68.01861600671397
-67.0420386053254
-66.26077668421455
-66.45609216449226
-64.50293736171511
-62.9404135194934
-63.233386739909974
-58.44815747310597
-54.7371633478294
-46.92454413672083
-39.99084458686198
-41.5533684290837
-28.760204470893417
-19.18974593728542
-21.338216220340275
-4.638742656595713
7.861448081177996
21.24055848020142
34.52201113908598
31.592278934920273
46.533913176165406
57.471580071717405
55.03013656824598
68.01861600671397
77.4914168001831
81.98367284657053
87.64782177462425
86.37827115281911
90.47989623865111
93.31197070267795
92.62836652170596
92.72602426184481
92.72602426184481
89.7962920576791
87.55016403448539
88.03845273517967
84.03448538948653
81.10475318532082
81.69069962615396
74.85465781643397
69.67879758907453
64.11230640115969
58.643472953383686
59.815365835049974
51.90508888380255
46.04562447547112
47.31517509727627
37.4517433432517
30.127412832837415
24.072632944228275
17.82253757534142
19.18974593728542
10.302891584649425
3.662165255207141
5.127031357289998
-1.8066681925688564
-6.884870679789426
-10.595864805065995
-14.50217441062028
-13.623254749370565
-17.627222095063708
-20.55695429922942
-19.87335011825742
-22.90074006256199
-25.146868085755703
-27.49065384908827
-29.834439612420844
-29.2484931715877
-32.27588311589227
-34.424353398947126
-33.93606469825284
-35.889219501029984
-37.35408560311284
-40.86976424811169
-43.89715419241627
-43.21355001144427
-46.240939955748836
-48.38941023880369
-47.90112153810941
-51.80743114366369
-54.7371633478294
-57.86221103227283
-60.987258716716255
-60.30365453574426
-63.233386739909974
-65.47951476310368
-64.89356832227054
-67.92095826657511
-70.06942854962998
-72.41321431296254
-74.75700007629511
-74.17105363546197
-76.22186617837797
-77.58907454032196
-77.29610131990539
-78.27267872129397
-78.95628290226597
-80.71412222476539
-82.17898832684826
-81.78835736629281
-82.86259250782025
-83.54619668879225
-83.35088120851454
-83.35088120851454
-83.35088120851454
-84.22980086976425
-85.0110627908751
-84.81574731059739
-84.81574731059739
-84.71808957045853
-84.71808957045853
-84.71808957045853
-84.71808957045853
-84.62043183031967
-84.62043183031967
-84.62043183031967
-83.6438544289311
-82.86259250782025
-82.96025024795911
-80.03051804379339
-77.78439002059967
-72.5108720531014
-67.92095826657511
-68.99519340810254
-59.13176165407798
-51.80743114366369
-53.36995498588541
-39.600213626306555
-29.346150911726557
-14.404516670481422
-0.537117570763714
-3.662165255207141
14.11154345006485
27.392996108949415
24.4632639047837
41.26039520866713
53.760585946440834
63.42870222018769
73.58510719462882
71.33897917143511
79.44457160296025
85.20637827115281
83.93682764934768
88.03845273517967
90.87052719920653
90.18692301823454
90.2845807583734
90.2845807583734
87.35484855420768
85.10872053101396
85.59700923170824
81.5930418860151
78.6633096818494
73.58510719462882
68.99519340810254
69.9717708094911
62.061493858243686
56.1043717097734
57.471580071717405
49.46364538033112
43.604180971999696
37.256427862973986
31.00633249408713
32.37354085603113
24.4632639047837
18.60379949645228
19.87335011825742
13.81857022964828
9.42397192339971
2.783245593957427
-3.2715342946517127
-1.9043259327077133
-10.79118028534371
-17.43190661478599
-15.967040512703136
-22.998397802700847
-28.076600289921416
-29.834439612420844
-32.27588311589227
-31.68993667505913
-31.787594415197987
-31.787594415197987
-31.787594415197987
-29.834439612420844
-28.369573510337986
-22.998397802700847
-18.40848401617456
-19.385061417563133
-15.381094071869994
-12.45136186770428
-13.13496604867628
-12.939650568398566
-12.939650568398566
-16.748302433813993
-19.775692378118563
-19.092088197146563
-22.998397802700847
-25.92813000686656
-25.342183566033416
-29.2484931715877
-32.178225375753414
-34.424353398947126
-36.768139162279695
-36.182192721446555
-39.20958266575113
-41.358052948805984
-40.86976424811169
-42.92057679102769
-44.28778515297169
-46.826886396581976
-49.17067215991455
-48.584725719081405
-49.658960860608836
-50.34256504158083
-50.14724956130312
-52.10040436408026
-53.56527046616312
-55.127794308384836
-56.690318150606544
-56.29968719005112
-57.37392233157855
-58.057526512550545
-57.86221103227283
-58.8387884336614
-59.522392614633404
-60.30365453574426
-61.08491645685512
-60.8896009765774
-60.8896009765774
-60.8896009765774
-60.8896009765774
-57.95986877241169
-55.713740749217976
-51.416800183108265
-47.60814831769284
-48.38941023880369
-38.72129396505684
-31.2993057145037
-32.95948729686427
-18.21316853589685
-7.177843900205997
7.470817120622568
21.338216220340275
18.310826276035705
37.06111238269627
51.02616922255284
47.90112153810941
65.77248798352025
78.95628290226597
89.40566109712367
100.44098573281453
97.90188448920424
106.98405432211796
113.52712291142137
112.06225680933852
117.14045929655909
120.7537956816968
120.85145342183566
121.73037308308537
121.4373998626688
119.58190280003052
118.01937895780881
118.31235217822538
114.4060425726711
111.37865262836652
107.27702754253453
103.37071793698024
104.24963759822995
96.33936064698253
90.38223849851225
91.65178912031739
83.74151216906996
77.88204776073853
70.55771725032426
63.526359960326545
65.08888380254825
55.127794308384836
47.80346379797055
49.365987640192266
41.358052948805984
35.49858854047456
29.150835431448844
22.90074006256199
24.267948424505988
18.21316853589685
13.81857022964828
14.795147631036851
10.79118028534371
7.861448081177996
5.615320057984283
3.2715342946517127
3.7598229953459983
0.8300907911802854
-1.3183794918745708
-0.8300907911802854
-3.7598229953459983
-6.005951018539712
-8.349736781872283
-10.693522545204852
-10.10757610437171
-13.13496604867628
-15.283436331731137
-14.795147631036851
-17.82253757534142
-19.971007858396277
-22.412451361867703
-24.65857938506142
-24.17029068436713
-28.076600289921416
-31.00633249408713
-30.322728313115128
-33.3501182574197
-35.596246280613414
-38.91660944533455
-41.943999389639124
-41.26039520866713
-44.28778515297169
-46.43625543602655
-45.947966735332265
-49.85427634088655
-52.78400854505226
-54.932478828107115
-57.27626459143969
-56.7879758907454
-58.74113069352254
-60.2059967956054
-59.91302357518883
-62.745098039215684
-64.9912260624094
-66.3584344243534
-67.92095826657511
-67.62798504615854
-69.58113984893568
-70.94834821087969
-70.65537499046312
-73.58510719462882
-75.73357747768368
-76.22186617837797
-77.00312809948882
-76.8078126192111
-77.78439002059967
-78.46799420157168
-78.27267872129397
-77.39375906004425
-76.61249713893339
-70.94834821087969
-66.45609216449226
-67.43266956588083
-57.66689555199512
-50.24490730144198
-51.90508888380255
-37.15877012283513
-26.123445487144274
-9.521629663538567
5.810635538261997
2.392614633401999
22.21713588158999
36.96345464255741
33.64309147783627
52.49103532463569
66.45609216449226
77.68673228046082
89.40566109712367
86.76890211337454
97.80422674906538
105.81216144045166
104.05432211795224
109.1325246051728
112.74586099031052
110.9880216678111
110.40207522697796
110.49973296711681
104.64026855878538
100.14801251239795
101.12458991378652
94.19089036392768
89.01503013656824
83.4485389486534
77.97970550087739
79.15159838254368
74.07339589532312
70.4600595101854
71.24132143129626
68.11627374685283
65.96780346379796
64.50293736171511
62.84275577935454
63.233386739909974
59.32707713435569
56.29968719005112
56.983291371023114
51.123826962691695
46.63157091630426
39.99084458686198
33.838406958113985
35.20561532005799
28.174258030060273
22.998397802700847
24.17029068436713
19.092088197146563
15.47875181200885
11.47478446631571
7.568474860761425
8.44739452201114
4.443427176317998
1.513694972152285
2.197299153124285
-0.7324330510414282
-2.9785610742351416
-6.298924238956283
-9.326314183260854
-8.642710002288853
-12.646677347981994
-15.576409552147707
-14.892805371175708
-18.89677271686885
-21.826504921034562
-24.95155260547799
-28.076600289921416
-27.392996108949415
-31.2993057145037
-34.22903791866941
-33.545433737697415
-38.525978484779124
-42.13931486991684
-45.16670481422141
-48.291752498664835
-47.60814831769284
-51.51445792324712
-54.44419012741283
-53.760585946440834
-56.7879758907454
-58.936446173800256
-62.2568093385214
-65.28419928282597
-64.60059510185397
-66.65140764476998
-68.11627374685283
-67.7256427862974
-70.65537499046312
-72.90150301365682
-74.26871137560083
-75.83123521782254
-75.44060425726711
-76.41718165865568
-77.19844357976653
-77.00312809948882
-77.00312809948882
-76.90547035934996
-76.90547035934996
-76.90547035934996
-76.90547035934996
-75.9288929579614
-75.14763103685054
-75.2452887769894
-72.31555657282368
-70.06942854962998
-65.77248798352025
-61.96383611810483
-62.745098039215684
-53.95590142671855
-47.31517509727627
-48.78004119935912
-36.0845349813077
-26.416418707560844
-11.377126726176853
2.392614633401999
-0.6347753109025711
19.092088197146563
33.74074921797513
30.518043793392845
50.24490730144198
64.9912260624094
78.85862516212711
92.92133974212253
89.7962920576791
102.88242923628596
112.35523002975509
110.20675974670024
117.3357747768368
122.31631952391852
124.95307850766766
128.17578393224994
127.39452201113909
126.61326009002823
125.73434042877851
125.92965590905622
122.99992370489052
120.65613794155794
117.3357747768368
114.21072709239338
114.89433127336538
108.93720912489509
104.54261081864652
105.42153047989623
97.60891126878766
91.65178912031739
85.30403601129167
79.05394064240483
80.42114900434882
70.4600595101854
63.13572899977112
64.69825284199283
55.713740749217976
49.17067215991455
42.04165712977798
35.010299839780274
36.57282368200198
28.564888990615703
22.705424582284277
23.974975204089418
16.943617914091707
11.865415426871138
8.154421301594567
4.248111696040284
5.127031357289998
0.14648661020828566
-3.466849774929427
-2.5879301136797133
-6.591897459372854
-9.521629663538567
-12.74433508812085
-15.869382772564279
-15.088120851453422
-18.11551079575799
-20.361638818951704
-19.87335011825742
-23.779659723811704
-26.709391927977418
-30.811017013809415
-34.61966887922484
-33.74074921797513
-37.74471656366827
-40.67444876783398
-39.99084458686198
-43.99481193255512
-46.92454413672083
-51.02616922255284
-54.83482108796826
-53.95590142671855
-57.95986877241169
-60.8896009765774
-60.2059967956054
-63.233386739909974
-65.38185702296482
-67.7256427862974
-70.06942854962998
-69.48348210879682
-71.53429465171283
-72.90150301365682
-72.60852979324025
-74.5616845960174
-76.02655069810025
-77.58907454032196
-79.05394064240483
-78.76096742198825
-79.73754482337682
-80.42114900434882
-80.2258335240711
-80.2258335240711
-80.2258335240711
-81.20241092545967
-81.88601510643167
-81.69069962615396
-81.69069962615396
-81.69069962615396
-81.5930418860151
-81.5930418860151
-81.5930418860151
-84.42511635004196
-86.67124437323568
-86.08529793240254
-89.99160753795681
-92.92133974212253
-92.23773556115053
-92.33539330128939
-92.33539330128939
-85.59700923170824
-80.32349126420996
-81.49538414587624
-65.96780346379796
-54.053559166857404
-56.690318150606544
-36.0845349813077
-20.55695429922942
0.7324330510414282
20.752269779507134
16.357671473258563
40.186160067139696
57.764553292133975
53.85824368657969
71.92492561226825
85.10872053101396
90.67521171892882
97.99954222934309
96.33936064698253
100.53864347295338
103.37071793698024
102.68711375600824
102.7847714961471
102.7847714961471
100.83161669336995
99.26909285114824
99.56206607156481
94.67917906462196
90.96818493934539
91.74944686045625
84.91340505073624
79.73754482337682
73.19447623407339
66.94438086518655
68.31158922713054
59.42473487449455
52.78400854505226
54.24887464713512
44.28778515297169
36.96345464255741
30.029755092698558
22.90074006256199
24.4632639047837
16.45532921339742
10.595864805065995
11.963073167009995
5.908293278400855
1.513694972152285
-2.197299153124285
-6.103608758678568
-5.224689097428855
-8.252079041733426
-10.498207064927138
-10.009918364232853
-11.963073167009995
-13.427939269092851
-15.088120851453422
-16.55298695353628
-16.260013733119706
-18.21316853589685
-19.678034637979707
-19.385061417563133
-21.338216220340275
-22.803082322423133
-24.365606164644845
-25.92813000686656
-25.537499046311133
-28.467231250476843
-30.71335927367056
-30.22507057297627
-32.178225375753414
-33.64309147783627
-36.182192721446555
-38.42832074464027
-37.94003204394598
-39.99084458686198
-41.45571068894484
-41.065079728389414
-43.99481193255512
-46.240939955748836
-47.60814831769284
-49.17067215991455
-48.78004119935912
-50.73319600213626
-52.19806210421912
-51.90508888380255
-52.881666285191116
-53.56527046616312
-55.32310978866255
-56.88563363088426
-56.49500267032883
-57.471580071717405
-58.25284199282826
-58.057526512550545
-59.03410391393912
-59.71770809491112
-60.49897001602197
-61.28023193713283
-61.08491645685512
-61.08491645685512
-61.08491645685512
-60.987258716716255
-61.96383611810483
-62.64744029907683
-62.54978255893797
-62.54978255893797
-62.45212481879911
-61.475547417410546
-60.79194323643854
-60.8896009765774
-57.95986877241169
-55.713740749217976
-51.416800183108265
-47.60814831769284
-48.48706797894255
-39.69787136644541
-32.95948729686427
-34.424353398947126
-21.728847180895706
-12.158388647287708
1.9043259327077133
14.990463111314565
12.060730907148852
29.9320973525597
43.11589227130541
40.186160067139696
56.983291371023114
69.48348210879682
80.03051804379339
91.06584267948425
88.52674143587396
97.70656900892652
104.24963759822995
102.68711375600824
106.78873884184024
109.71847104600594
109.03486686503395
109.1325246051728
109.03486686503395
106.2027924010071
103.85900663767453
104.34729533836881
99.46440833142596
95.75341420614939
89.7962920576791
84.42511635004196
85.59700923170824
76.71015487907225
70.06942854962998
71.53429465171283
62.54978255893797
55.90905622949569
47.80346379797055
40.08850232700084
41.74868390936141
33.74074921797513
27.881284809643702
29.150835431448844
22.21713588158999
17.041275654230564
12.45136186770428
7.763790341039139
8.838025482566568
4.736400396734569
1.8066681925688564
2.490272373540856
0.43945983062485694
-0.9277485313191425
-2.490272373540856
-4.052796215762569
-3.7598229953459983
-5.71297779812314
-7.177843900205997
-6.884870679789426
-8.838025482566568
-10.302891584649425
-12.84199282825971
-15.088120851453422
-14.599832150759136
-16.650644693675137
-18.11551079575799
-17.724879835202564
-20.654612039368278
-22.90074006256199
-26.22110322728313
-29.2484931715877
-28.564888990615703
-31.592278934920273
-33.74074921797513
-33.252460517280845
-35.303273060196844
-36.768139162279695
-42.13931486991684
-46.63157091630426
-45.654993514915695
-52.49103532463569
-57.66689555199512
-56.49500267032883
-63.42870222018769
-68.50690470740825
-70.26474402990769
-72.70618753337911
-72.12024109254597
-73.19447623407339
-73.87808041504539
-73.68276493476768
-70.85069047074083
-68.60456244754711
-64.3076218814374
-60.401312275883114
-61.28023193713283
-56.29968719005112
-52.588693064774546
-53.36995498588541
-51.31914244296941
-49.85427634088655
-51.123826962691695
-51.709773403524835
-51.61211566338598
-50.635538261997404
-49.85427634088655
-50.04959182116426
-48.09643701838712
-46.533913176165406
-41.16273746852827
-36.57282368200198
-37.64705882352941
-27.783627069504846
-20.45929655909056
-22.021820401312276
-8.349736781872283
1.9043259327077133
17.724879835202564
32.37354085603113
29.053177691309987
47.90112153810941
61.86617837796597
58.74113069352254
77.58907454032196
91.45647364003968
101.71053635461966
112.74586099031052
110.3044174868391
120.36316472114137
127.5898374914168
125.92965590905622
130.12893873502708
132.96101319905395
132.27740901808195
132.3750667582208
132.27740901808195
129.34767681391622
127.10154879072252
127.5898374914168
121.73037308308537
117.23811703669794
111.47631036850538
106.00747692072939
107.17936980239567
98.29251544975968
91.65178912031739
93.11665522240024
83.15556572823682
75.83123521782254
67.92095826657511
60.108339055466544
61.768520637827116
51.80743114366369
44.48310063324941
46.04562447547112
37.15877012283513
30.518043793392845
24.365606164644845
18.017853055619135
19.48271915770199
13.427939269092851
9.033340962844282
10.009918364232853
5.908293278400855
2.9785610742351416
0.8300907911802854
-1.513694972152285
-0.9277485313191425
-3.9551384756237127
-6.103608758678568
-5.615320057984283
-7.666132600900283
-9.130998702983138
-9.71694514381628
-10.595864805065995
-10.400549324788281
-12.353704127565424
-13.81857022964828
-13.427939269092851
-15.47875181200885
-16.943617914091707
-18.506141756313422
-20.068665598535134
-19.678034637979707
-21.63118944075685
-23.096055542839704
-22.803082322423133
-25.732814526588847
-27.881284809643702
-31.201647974364842
-34.32669565880827
-33.64309147783627
-36.57282368200198
-38.818951705195694
-38.33066300450141
-41.26039520866713
-43.40886549172198
-45.85030899519341
-48.09643701838712
-47.60814831769284
-50.53788052185855
-52.78400854505226
-52.19806210421912
-54.24887464713512
-55.713740749217976
-57.27626459143969
-58.8387884336614
-58.44815747310597
-60.401312275883114
-61.86617837796597
-61.475547417410546
-62.54978255893797
-63.233386739909974
-64.01464866102083
-64.69825284199283
-64.50293736171511
-64.60059510185397
-64.50293736171511
-64.50293736171511
-64.50293736171511
-64.50293736171511
-60.59662775616083
-57.66689555199512
-58.25284199282826
-51.416800183108265
-46.240939955748836
-47.412832837415124
-35.69390402075227
-26.807049668116274
-12.549019607843137
0.43945983062485694
-2.392614633401999
17.236591134508277
31.9829098954757
28.66254673075456
49.46364538033112
64.89356832227054
80.51880674448768
96.14404516670481
92.62836652170596
106.69108110170139
116.94514381628137
114.60135805294881
124.66010528725108
131.8867780575265
135.01182574196994
139.01579308766307
138.0392156862745
138.23453116655222
138.13687342641336
138.13687342641336
136.18371862363622
134.62119478141452
131.10551613641564
127.98046845197223
128.66407263294423
121.82803082322422
116.55451285572595
117.72640573739223
109.71847104600594
103.85900663767453
96.53467612726024
89.50331883726253
91.06584267948425
81.10475318532082
73.78042267490653
75.34294651712825
64.50293736171511
56.39734493018997
48.584725719081405
40.772106507972836
42.43228809033341
32.56885633630884
25.146868085755703
26.807049668116274
19.775692378118563
14.599832150759136
6.201266498817426
-1.416037232013428
0.24414435034714274
-10.498207064927138
-18.60379949645228
-16.84596017395285
-25.830472266727703
-32.37354085603113
-36.67048142214084
-41.45571068894484
-40.38147554741741
-42.43228809033341
-43.89715419241627
-43.604180971999696
-42.62760357061112
-41.84634164950027
-38.23300526436255
-35.20561532005799
-35.889219501029984
-32.86182955672541
-30.615701533531702
-31.103990234225986
-31.00633249408713
-31.00633249408713
-34.81498435950255
-37.74471656366827
-37.06111238269627
-41.065079728389414
-43.99481193255512
-43.311207751583126
-46.33859769588769
-48.48706797894255
-50.83085374227512
-53.17463950560769
-52.6863508049134
-55.61608300907912
-57.764553292133975
-57.27626459143969
-59.22941939421683
-60.694285496299685
-63.233386739909974
-65.47951476310368
-64.9912260624094
-66.94438086518655
-68.4092469672694
-68.11627374685283
-70.06942854962998
-71.53429465171283
-73.09681849393453
-74.5616845960174
-74.17105363546197
-75.2452887769894
-75.9288929579614
-75.73357747768368
-77.68673228046082
-79.15159838254368
-78.76096742198825
-78.85862516212711
-78.76096742198825
-75.9288929579614
-73.58510719462882
-74.07339589532312
-66.3584344243534
-60.401312275883114
-49.26832990005341
-39.307240405889985
-41.5533684290837
-23.87731746395056
-10.595864805065995
-13.525597009231708
7.080186160067139
22.510109102006563
40.08850232700084
57.178606851300835
53.36995498588541
71.43663691157397
84.52277409018082
81.5930418860151
95.55809872587167
105.81216144045166
112.06225680933852
119.28892957961395
117.62874799725337
120.7537956816968
122.90226596475166
122.41397726405738
122.41397726405738
122.41397726405738
120.46082246128023
118.89829861905852
119.19127183947509
114.30838483253224
110.59739070725567
111.37865262836652
104.44495307850767
99.26909285114824
92.82368200198367
86.57358663309682
87.94079499504082
78.95628290226597
72.31555657282368
73.78042267490653
62.9404135194934
54.83482108796826
47.0222018768597
39.20958266575113
40.96742198825055
30.029755092698558
21.92416266117342
23.682001983672848
14.697489890897993
8.154421301594567
2.8809033340962844
-2.490272373540856
-1.3183794918745708
-7.275501640344854
-11.670099946593423
-10.693522545204852
-14.697489890897993
-17.627222095063708
-20.84992751964599
-23.87731746395056
-23.19371328297856
-26.22110322728313
-28.369573510337986
-27.881284809643702
-30.908674753948272
-33.05714503700313
-35.4009308003357
-37.74471656366827
-37.256427862973986
-41.16273746852827
-44.09246967269398
-43.40886549172198
-46.43625543602655
-48.584725719081405
-51.90508888380255
-54.932478828107115
-54.24887464713512
-57.27626459143969
-59.42473487449455
-58.936446173800256
-61.86617837796597
-64.11230640115969
-66.45609216449226
-68.79987792782482
-68.21393148699168
-70.16708628976883
-71.63195239185168
-71.33897917143511
-73.29213397421225
-74.75700007629511
-76.22186617837797
-77.78439002059967
-77.39375906004425
-78.46799420157168
-79.15159838254368
-78.95628290226597
-79.93286030365454
-80.61646448462653
-81.39772640573739
-82.17898832684826
-81.98367284657053
-82.96025024795911
-83.6438544289311
-83.4485389486534
-83.4485389486534
-83.4485389486534
-83.35088120851454
-83.35088120851454
-83.35088120851454
-81.39772640573739
-79.93286030365454
-80.2258335240711
-75.34294651712825
-71.63195239185168
-63.819333180743115
-56.88563363088426
-58.44815747310597
-45.654993514915695
-36.0845349813077
-38.23300526436255
-19.58037689784085
-5.517662317845426
10.302891584649425
25.830472266727703
22.412451361867703
43.21355001144427
58.643472953383686
55.22545204852369
72.12024109254597
84.62043183031967
94.19089036392768
104.44495307850767
102.1011673151751
109.32784008545052
114.30838483253224
113.13649195086595
116.26153963530938
118.41000991836424
114.99198901350424
112.84351873044938
113.33180743114366
104.54261081864652
97.90188448920424
99.26909285114824
89.40566109712367
81.98367284657053
75.04997329671168
67.92095826657511
69.48348210879682
62.45212481879911
57.27626459143969
58.44815747310597
52.39337758449683
47.998779278248264
46.14328221560998
43.70183871213855
44.19012741283284
39.307240405889985
35.596246280613414
36.37750820172427
30.518043793392845
26.025787747005417
19.385061417563133
13.232623788815136
14.599832150759136
8.545052262149996
4.150453955901427
5.127031357289998
1.1230640115968566
-1.7090104524299992
-4.931715877012284
-8.05676356145571
-7.275501640344854
-10.302891584649425
-12.549019607843137
-12.060730907148852
-14.990463111314565
-17.236591134508277
-19.58037689784085
-21.92416266117342
-21.338216220340275
-24.365606164644845
-26.514076447699704
-26.025787747005417
-29.9320973525597
-32.86182955672541
-35.10795757991913
-37.4517433432517
-36.96345464255741
-40.86976424811169
-43.79949645227741
-43.11589227130541
-46.14328221560998
-48.291752498664835
-50.635538261997404
-52.97932402532997
-52.39337758449683
-55.420767528801406
-57.56923781185626
-57.08094911116198
-60.01068131532769
-62.2568093385214
-63.6240177004654
-65.18654154268711
-64.79591058213168
-66.74906538490883
-68.21393148699168
-67.92095826657511
-68.89753566796368
-69.58113984893568
-71.33897917143511
-72.80384527351796
-72.41321431296254
-73.48744945448996
-74.17105363546197
-73.97573815518425
-73.97573815518425
-73.97573815518425
-74.85465781643397
-75.63591973754482
-75.44060425726711
-74.46402685587854
-73.68276493476768
-73.87808041504539
-69.9717708094911
-66.94438086518655
-60.987258716716255
-55.61608300907912
-56.7879758907454
-44.09246967269398
-34.424353398947126
-36.57282368200198
-19.87335011825742
-7.373159380483711
9.81460288395514
26.025787747005417
22.412451361867703
43.311207751583126
58.643472953383686
55.22545204852369
74.17105363546197
88.03845273517967
99.26909285114824
110.9880216678111
108.35126268406195
117.53109025711451
124.07415884641794
122.51163500419624
127.5898374914168
131.2031738765545
130.3242542153048
130.5195696955825
130.42191195544365
127.49217975127794
125.24605172808423
125.73434042877851
121.73037308308537
118.70298313878081
112.64820325017166
107.27702754253453
108.44892042420081
100.53864347295338
94.5815213244831
95.85107194628824
86.96421759365225
80.32349126420996
72.21789883268482
64.40527962157626
66.16311894407569
56.20202944991226
48.877698939497975
50.44022278171969
40.479133287556266
33.15480277714199
27.1976806286717
20.84992751964599
22.21713588158999
15.185778591592278
10.10757610437171
11.279468986037996
5.224689097428855
0.8300907911802854
-1.9043259327077133
-5.127031357289998
-4.345769436179141
-8.349736781872283
-11.279468986037996
-10.595864805065995
-13.623254749370565
-15.771725032425422
-18.21316853589685
-20.55695429922942
-19.971007858396277
-23.87731746395056
-26.90470740825513
-26.22110322728313
-30.127412832837415
-33.05714503700313
-36.27985046158541
-39.307240405889985
-38.62363622491798
-42.62760357061112
-45.55733577477684
-44.873731593804834
-47.80346379797055
-50.04959182116426
-53.36995498588541
-56.39734493018997
-55.713740749217976
-58.74113069352254
-60.8896009765774
-60.401312275883114
-62.35446707866026
-63.819333180743115
-65.38185702296482
-66.94438086518655
-66.55374990463112
-68.50690470740825
-69.9717708094911
-69.58113984893568
-70.65537499046312
-71.33897917143511
-72.12024109254597
-72.80384527351796
-72.60852979324025
-73.58510719462882
-74.36636911573969
-74.17105363546197
-74.17105363546197
-74.17105363546197
-73.19447623407339
-72.41321431296254
-72.5108720531014
-71.53429465171283
-70.75303273060197
-70.85069047074083
-66.06546120393683
-62.35446707866026
-58.350499732967116
-54.44419012741283
-55.32310978866255
-48.38941023880369
-43.21355001144427
-44.38544289311055
-31.68993667505913
-22.119478141451133
-5.127031357289998
10.10757610437171
6.6895551995117115
30.322728313115128
47.998779278248264
44.09246967269398
67.82330052643626
85.49935149156939
103.4683756771191
121.33974212252994
117.3357747768368
134.4258793011368
146.82841229877164
143.9963378347448
152.1995880064088
157.96139467460137
156.59418631265737
156.88715953307394
156.78950179293508
154.83634699015792
153.2738231479362
153.56679636835278
148.68390936140995
144.97291523613336
139.99237048905164
135.3047989623865
136.28137636377508
128.37109941252766
122.41397726405738
123.68352788586252
114.79667353322652
108.15594720378424
99.07377737087053
90.57755397878996
92.43305104142824
81.49538414587624
73.3897917143511
75.14763103685054
64.20996414129854
56.1043717097734
48.291752498664835
40.479133287556266
42.236972610055695
33.252460517280845
26.61173418783856
28.076600289921416
22.021820401312276
17.627222095063708
12.84199282825971
8.154421301594567
9.228656443121995
5.127031357289998
2.2949568932631417
2.8809033340962844
-0.9277485313191425
-3.9551384756237127
-7.080186160067139
-10.205233844510566
-9.521629663538567
-14.404516670481422
-18.11551079575799
-17.236591134508277
-21.24055848020142
-24.17029068436713
-28.27191577019913
-32.178225375753414
-31.2993057145037
-36.27985046158541
-39.893186846723125
-39.11192492561227
-43.99481193255512
-47.705806057831694
-50.635538261997404
-53.760585946440834
-53.07698176546884
-56.983291371023114
-59.91302357518883
-59.22941939421683
-63.233386739909974
-66.16311894407569
-68.31158922713054
-70.65537499046312
-70.16708628976883
-73.09681849393453
-75.2452887769894
-74.75700007629511
-76.71015487907225
-78.17502098115511
-79.73754482337682
-81.30006866559853
-80.9094377050431
-81.88601510643167
-82.56961928740368
-82.47196154726483
-83.35088120851454
-84.13214312962539
-84.91340505073624
-85.59700923170824
-85.40169375143053
-85.40169375143053
-85.40169375143053
-85.40169375143053
-83.4485389486534
-81.88601510643167
-76.51483939879454
-71.92492561226825
-72.90150301365682
-63.13572899977112
-55.713740749217976
-57.37392233157855
-42.62760357061112
-31.592278934920273
-15.869382772564279
-1.2207217517357138
-4.443427176317998
17.13893339436942
33.3501182574197
29.736781872281988
49.56130312046998
64.20996414129854
77.19844357976653
90.47989623865111
87.55016403448539
100.53864347295338
110.01144426642253
107.86297398336767
114.99198901350424
120.0701915007248
121.73037308308537
124.1718165865568
123.58587014572366
122.70695048447395
121.92568856336308
122.12100404364081
119.09361409933624
116.84748607614252
113.52712291142137
110.40207522697796
111.08567940794995
104.1519798580911
98.97611963073167
100.0503547722591
92.14007782101167
86.28061341268025
78.95628290226597
71.92492561226825
73.48744945448996
62.64744029907683
54.54184786755169
56.29968719005112
46.33859769588769
38.91660944533455
31.00633249408713
23.19371328297856
24.95155260547799
16.943617914091707
11.08415350576028
12.353704127565424
5.420004577706569
0.24414435034714274
-3.2715342946517127
-7.275501640344854
-6.39658197909514
-11.377126726176853
-14.990463111314565
-14.209201190203707
-17.236591134508277
-19.385061417563133
-22.705424582284277
-25.830472266727703
-25.146868085755703
-28.076600289921416
-30.322728313115128
-29.834439612420844
-33.74074921797513
-36.67048142214084
-39.79552910658427
-42.92057679102769
-42.236972610055695
-46.14328221560998
-49.073014419775696
-48.38941023880369
-53.27229724574655
-56.983291371023114
-60.01068131532769
-63.13572899977112
-62.35446707866026
-65.38185702296482
-67.53032730601969
-67.0420386053254
-70.94834821087969
-73.87808041504539
-77.97970550087739
-81.78835736629281
-80.9094377050431
-88.72205691615167
-94.5815213244831
-93.2143129625391
-100.24567025253681
-105.32387273975738
-106.98405432211796
-109.42549782558937
-108.83955138475623
-109.91378652628366
-110.59739070725567
-110.40207522697796
-107.47234302281224
-105.22621499961852
-99.95269703212024
-95.36278324559396
-96.33936064698253
-90.38223849851225
-85.98764019226367
-86.8665598535134
-83.83916990920882
-81.5930418860151
-78.27267872129397
-75.14763103685054
-75.83123521782254
-68.89753566796368
-63.72167544060426
-64.89356832227054
-53.17463950560769
-44.28778515297169
-30.029755092698558
-16.943617914091707
-19.775692378118563
-0.04882887006942855
14.50217441062028
11.279468986037996
31.103990234225986
45.75265125505455
59.62005035477226
73.78042267490653
70.55771725032426
84.62043183031967
94.87449454489968
92.5307087815671
101.6128786144808
108.15594720378424
110.49973296711681
113.72243839169909
112.94117647058823
113.03883421072709
113.03883421072709
112.94117647058823
111.08567940794995
109.52315556572823
106.00747692072939
102.88242923628596
103.56603341725796
96.72999160753795
91.45647364003968
92.62836652170596
85.6946669718471
80.51880674448768
72.02258335240711
64.3076218814374
66.06546120393683
57.08094911116198
50.44022278171969
51.90508888380255
42.04165712977798
34.61966887922484
27.68596932936599
20.55695429922942
22.119478141451133
14.209201190203707
8.349736781872283
9.619287403677424
3.5645075150682843
-0.7324330510414282
-3.5645075150682843
-6.787212939650568
-6.005951018539712
-10.009918364232853
-12.939650568398566
-12.256046387426567
-16.260013733119706
-19.18974593728542
-21.338216220340275
-23.779659723811704
-23.19371328297856
-27.100022888532845
-30.029755092698558
-29.443808651865414
-32.37354085603113
-34.61966887922484
-37.94003204394598
-40.96742198825055
-40.28381780727855
-44.28778515297169
-47.11985961699855
-46.533913176165406
-50.44022278171969
-53.36995498588541
-55.51842526894026
-57.95986877241169
-57.37392233157855
-61.28023193713283
-64.20996414129854
-63.526359960326545
-66.55374990463112
-68.70222018768597
-71.04600595101854
-73.3897917143511
-72.80384527351796
-74.85465781643397
-76.31952391851682
-75.9288929579614
-77.88204776073853
-79.3469138628214
-79.93286030365454
-80.71412222476539
-80.51880674448768
-81.49538414587624
-82.17898832684826
-81.98367284657053
-82.96025024795911
-83.6438544289311
-84.42511635004196
-85.20637827115281
-85.0110627908751
-85.0110627908751
-85.0110627908751
-84.91340505073624
-83.93682764934768
-83.15556572823682
-81.39772640573739
-79.83520256351568
-80.2258335240711
-74.36636911573969
-69.87411306935225
-70.85069047074083
-61.08491645685512
-53.66292820630198
-40.96742198825055
-29.443808651865414
-31.9829098954757
-14.209201190203707
-1.0254062714579995
-3.9551384756237127
15.674067292286564
30.420386053253985
44.28778515297169
58.350499732967116
55.22545204852369
69.28816662851911
79.54222934309911
77.19844357976653
86.28061341268025
92.82368200198367
96.14404516670481
100.14801251239795
99.17143511100939
99.3667505912871
99.26909285114824
99.26909285114824
97.3159380483711
95.75341420614939
91.35881589990082
87.55016403448539
88.33142595559625
81.39772640573739
76.22186617837797
77.39375906004425
69.48348210879682
63.526359960326545
56.20202944991226
49.26832990005341
50.83085374227512
40.86976424811169
33.545433737697415
35.10795757991913
26.123445487144274
19.58037689784085
13.427939269092851
7.080186160067139
8.545052262149996
2.490272373540856
-1.8066681925688564
-0.8300907911802854
-5.810635538261997
-9.521629663538567
-11.572442206454566
-13.916227969787137
-13.427939269092851
-15.47875181200885
-16.943617914091707
-16.55298695353628
-18.506141756313422
-19.971007858396277
-24.4632639047837
-28.27191577019913
-27.392996108949415
-36.182192721446555
-42.822919050888835
-41.26039520866713
-50.14724956130312
-56.7879758907454
-60.108339055466544
-64.11230640115969
-63.13572899977112
-64.3076218814374
-64.9912260624094
-64.79591058213168
-63.91699092088197
-63.13572899977112
-59.42473487449455
-56.39734493018997
-57.08094911116198
-53.07698176546884
-50.14724956130312
-50.73319600213626
-49.658960860608836
-48.877698939497975
-51.90508888380255
-54.053559166857404
-53.56527046616312
-55.61608300907912
-57.08094911116198
-56.690318150606544
-57.66689555199512
-58.44815747310597
-59.22941939421683
-59.91302357518883
-59.71770809491112
-61.67086289768826
-63.13572899977112
-62.745098039215684
-63.819333180743115
-64.50293736171511
-65.28419928282597
-66.06546120393683
-65.8701457236591
-65.8701457236591
-65.8701457236591
-65.77248798352025
-66.74906538490883
-67.43266956588083
-66.3584344243534
-65.57717250324254
-65.77248798352025
-62.84275577935454
-60.59662775616083
-61.08491645685512
-54.24887464713512
-49.073014419775696
-40.67444876783398
-32.95948729686427
-34.61966887922484
-20.84992751964599
-10.595864805065995
-12.84199282825971
3.7598229953459983
16.260013733119706
30.71335927367056
44.67841611352712
41.5533684290837
56.59266041046769
67.53032730601969
65.08888380254825
76.12420843823911
84.13214312962539
89.01503013656824
94.5815213244831
93.31197070267795
95.46044098573282
96.82764934767681
96.43701838712138
95.55809872587167
94.77683680476082
90.08926527809568
86.37827115281911
87.15953307392996
81.20241092545967
76.8078126192111
77.78439002059967
68.89753566796368
62.2568093385214
55.127794308384836
48.09643701838712
49.658960860608836
39.69787136644541
32.37354085603113
33.93606469825284
25.049210345616846
18.40848401617456
12.256046387426567
5.908293278400855
7.373159380483711
0.34180209048599985
-4.638742656595713
-3.5645075150682843
-8.545052262149996
-12.256046387426567
-15.185778591592278
-18.40848401617456
-17.627222095063708
-20.654612039368278
-22.90074006256199
-22.412451361867703
-25.342183566033416
-27.49065384908827
-28.95551995117113
-30.518043793392845
-30.127412832837415
-33.05714503700313
-35.303273060196844
-34.81498435950255
-36.768139162279695
-38.23300526436255
-40.772106507972836
-43.018234531166556
-42.529945830472265
-44.580758373388264
-45.947966735332265
-45.654993514915695
-47.60814831769284
-49.073014419775696
-51.61211566338598
-53.85824368657969
-53.36995498588541
-55.32310978866255
-56.7879758907454
-56.49500267032883
-58.44815747310597
-59.91302357518883
-61.475547417410546
-62.9404135194934
-62.64744029907683
-63.6240177004654
-64.3076218814374
-64.11230640115969
-65.08888380254825
-65.8701457236591
-65.6748302433814
-65.6748302433814
-65.6748302433814
-65.57717250324254
-65.57717250324254
-65.57717250324254
-64.60059510185397
-63.819333180743115
-63.03807125963226
-62.2568093385214
-62.35446707866026
-60.401312275883114
-58.936446173800256
-59.22941939421683
-58.1551842526894
-57.471580071717405
-55.713740749217976
-54.15121690699626
-54.44419012741283
-53.36995498588541
-52.6863508049134
-52.78400854505226
-51.80743114366369
-51.02616922255284
-50.24490730144198
-49.46364538033112
-49.56130312046998
-48.584725719081405
-47.80346379797055
-47.998779278248264
-47.0222018768597
-46.240939955748836
-43.50652323186084
-41.26039520866713
-41.74868390936141
-37.74471656366827
-34.81498435950255
-35.49858854047456
-32.471198596169984
-30.22507057297627
-29.736781872281988
-28.95551995117113
-29.053177691309987
-30.908674753948272
-32.471198596169984
-32.08056763561456
-36.96345464255741
-40.57679102769512
-48.38941023880369
-55.22545204852369
-53.66292820630198
-63.526359960326545
-70.85069047074083
-69.19050888838025
-79.15159838254368
-86.47592889295797
-94.28854810406654
-102.1011673151751
-100.34332799267567
-111.18333714808881
-119.19127183947509
-117.43343251697566
-123.4882124055848
-127.78515297169452
-127.78515297169452
-128.66407263294423
-128.37109941252766
-124.56244754711223
-121.63271534294651
-122.21866178377967
-114.4060425726711
-108.44892042420081
-99.17143511100939
-90.77286945906768
-92.5307087815671
-82.56961928740368
-75.2452887769894
-76.8078126192111
-69.77645532921339
-64.60059510185397
-60.987258716716255
-56.983291371023114
-57.86221103227283
-53.85824368657969
-50.83085374227512
-51.51445792324712
-47.51049057755398
-44.580758373388264
-40.479133287556266
-36.57282368200198
-37.4517433432517
-33.3501182574197
-30.420386053253985
-31.103990234225986
-26.123445487144274
-22.510109102006563
-20.45929655909056
-18.017853055619135
-18.506141756313422
-14.599832150759136
-11.670099946593423
-12.256046387426567
-10.205233844510566
-8.74036774242771
-7.177843900205997
-5.615320057984283
-6.005951018539712
-3.9551384756237127
-2.490272373540856
-2.8809033340962844
-0.8300907911802854
0.537117570763714
3.076218814373999
5.322346837567712
4.834058136873426
12.549019607843137
18.506141756313422
17.13893339436942
30.811017013809415
41.16273746852827
56.983291371023114
71.53429465171283
68.31158922713054
91.94476234073396
109.52315556572823
105.61684596017395
129.34767681391622
146.9260700389105
164.89509422446022
182.86411841000992
178.7624933241779
195.8525978484779
208.25513084611276
205.42305638208592
217.43495841916533
226.1264972915236
228.86091401541162
232.9625391012436
231.88830395971618
233.06019684138246
233.6461432822156
233.4508278019379
229.54451819638362
226.51712825207903
221.34126802471962
216.65369649805447
217.63027389944304
209.71999694819561
203.76287479972532
205.0324254215305
195.07133592736704
187.6493476768139
179.73907072556648
171.82879377431905
173.5866330968185
162.6489662012665
154.4457160296025
156.20355535210194
147.21904325932707
140.5783169298848
133.35164415960938
126.32028686961166
127.78515297169452
119.77721828030823
113.9177538719768
115.18730449378195
109.1325246051728
104.73792629892424
99.95269703212024
95.16746776531625
96.24170290684367
91.1635004196231
87.45250629434653
88.23376821545739
83.25322346837568
79.54222934309911
75.63591973754482
71.72961013199054
72.5108720531014
66.55374990463112
62.15915159838254
63.13572899977112
58.057526512550545
54.44419012741283
49.46364538033112
44.873731593804834
45.85030899519341
40.86976424811169
37.15877012283513
37.94003204394598
32.95948729686427
29.346150911726557
24.365606164644845
19.775692378118563
20.752269779507134
15.771725032425422
12.060730907148852
12.939650568398566
8.935683222705425
6.005951018539712
1.8066681925688564
-1.9043259327077133
-1.0254062714579995
-5.0293736171511405
-7.959105821316854
-7.373159380483711
-11.279468986037996
-14.209201190203707
-16.45532921339742
-18.799114976729992
-18.310826276035705
-21.24055848020142
-23.48668650339513
-22.90074006256199
-24.95155260547799
-26.416418707560844
-28.95551995117113
-31.201647974364842
-30.71335927367056
-32.764171816586554
-34.131380178530556
-33.838406958113985
-34.81498435950255
-35.596246280613414
-37.35408560311284
-38.818951705195694
-38.42832074464027
-39.5025558861677
-40.186160067139696
-39.99084458686198
-40.96742198825055
-41.74868390936141
-43.50652323186084
-44.97138933394369
-44.580758373388264
-44.67841611352712
-44.67841611352712
-44.67841611352712
-45.55733577477684
-46.33859769588769
-44.19012741283284
-42.72526131074998
-43.018234531166556
-37.256427862973986
-32.764171816586554
-33.74074921797513
-23.974975204089418
-16.650644693675137
-3.9551384756237127
7.470817120622568
4.931715877012284
23.58434424353399
37.64705882352941
34.52201113908598
54.24887464713512
68.89753566796368
79.93286030365454
91.8471046005951
89.1126878767071
97.3159380483711
103.07774471656367
101.80819409475852
104.93324177920195
107.08171206225681
109.42549782558937
111.6716258487831
111.18333714808881
113.13649195086595
114.60135805294881
114.21072709239338
116.16388189517052
117.53109025711451
120.0701915007248
122.31631952391852
121.82803082322422
122.8046082246128
123.4882124055848
123.29289692530709
119.48424505989166
116.45685511558709
107.5700007629511
99.95269703212024
101.6128786144808
91.65178912031739
84.22980086976425
85.88998245212481
75.9288929579614
68.60456244754711
60.59662775616083
52.78400854505226
54.54184786755169
45.55733577477684
38.91660944533455
40.38147554741741
32.37354085603113
26.514076447699704
22.119478141451133
17.334248874647134
18.40848401617456
12.45136186770428
8.05676356145571
9.033340962844282
4.931715877012284
2.0019836728465705
-2.0019836728465705
-5.810635538261997
-5.0293736171511405
-9.033340962844282
-11.963073167009995
-11.279468986037996
-16.16235599298085
-19.87335011825742
-23.779659723811704
-27.68596932936599
-26.807049668116274
-30.811017013809415
-33.74074921797513
-33.05714503700313
-38.03768978408484
-41.651026169222554
-44.67841611352712
-47.80346379797055
-47.11985961699855
-51.02616922255284
-53.95590142671855
-53.27229724574655
-57.27626459143969
-60.108339055466544
-63.33104448004883
-66.3584344243534
-65.6748302433814
-69.67879758907453
-72.5108720531014
-71.8272678721294
-74.85465781643397
-77.00312809948882
-78.46799420157168
-80.03051804379339
-79.63988708323797
-81.5930418860151
-83.05790798809797
-82.66727702754254
-84.62043183031967
-86.08529793240254
-87.64782177462425
-89.1126878767071
-88.81971465629053
-89.7962920576791
-90.47989623865111
-90.2845807583734
-91.26115815976196
-91.94476234073396
-92.72602426184481
-93.50728618295567
-93.31197070267795
-93.31197070267795
-93.2143129625391
-93.2143129625391
-92.23773556115053
-91.45647364003968
-87.7454795147631
-84.71808957045853
-85.40169375143053
-77.58907454032196
-71.63195239185168
-72.90150301365682
-61.182574196993976
-52.295719844357976
-38.03768978408484
-24.95155260547799
-27.783627069504846
-9.033340962844282
4.834058136873426
1.7090104524299992
20.55695429922942
34.52201113908598
47.60814831769284
60.8896009765774
57.95986877241169
70.06942854962998
78.76096742198825
76.8078126192111
84.81574731059739
90.67521171892882
92.23773556115053
94.67917906462196
94.09323262378882
94.19089036392768
94.19089036392768
94.09323262378882
92.14007782101167
90.67521171892882
87.15953307392996
84.13214312962539
84.71808957045853
78.85862516212711
74.36636911573969
75.34294651712825
68.4092469672694
63.233386739909974
55.81139848935683
48.78004119935912
50.34256504158083
42.33463035019455
36.475165941863125
37.74471656366827
28.857862211032273
22.21713588158999
16.064698252841993
9.81460288395514
11.181811245899137
5.127031357289998
0.7324330510414282
1.7090104524299992
-3.1738765545128556
-6.787212939650568
-8.838025482566568
-11.279468986037996
-10.693522545204852
-13.720912489509422
-15.869382772564279
-15.381094071869994
-17.43190661478599
-18.89677271686885
-20.45929655909056
-22.021820401312276
-21.63118944075685
-24.560921644922562
-26.807049668116274
-26.318760967421987
-29.2484931715877
-31.494621194781413
-33.838406958113985
-36.182192721446555
-35.596246280613414
-38.62363622491798
-40.772106507972836
-40.28381780727855
-43.21355001144427
-45.45967803463798
-47.80346379797055
-50.14724956130312
-49.56130312046998
-51.61211566338598
-53.07698176546884
-52.6863508049134
-55.61608300907912
-57.764553292133975
-59.22941939421683
-60.79194323643854
-60.401312275883114
-62.35446707866026
-63.819333180743115
-63.42870222018769
-64.50293736171511
-65.18654154268711
-68.79987792782482
-71.8272678721294
-71.1436636911574
-77.88204776073853
-83.05790798809797
-81.88601510643167
-86.8665598535134
-90.47989623865111
-92.5307087815671
-94.97215228503853
-94.38620584420539
-93.50728618295567
-92.72602426184481
-92.82368200198367
-88.03845273517967
-84.22980086976425
-76.51483939879454
-69.58113984893568
-71.04600595101854
-58.350499732967116
-48.68238345922026
-50.83085374227512
-37.94003204394598
-28.369573510337986
-16.16235599298085
-4.541084916456855
-7.080186160067139
11.47478446631571
25.439841306172273
22.314793621728846
40.186160067139696
53.467612726024264
66.65140764476998
79.93286030365454
77.00312809948882
89.99160753795681
99.46440833142596
97.3159380483711
106.39810788128482
112.94117647058823
115.28496223392081
118.5076676585031
117.72640573739223
118.80064087891967
119.48424505989166
119.28892957961395
118.31235217822538
117.53109025711451
113.82009613183794
110.79270618753338
111.47631036850538
106.49576562142367
102.7847714961471
103.56603341725796
97.60891126878766
93.2143129625391
86.47592889295797
80.32349126420996
81.69069962615396
72.70618753337911
66.06546120393683
67.53032730601969
58.643472953383686
52.002746623941405
44.873731593804834
37.84237430380713
39.40489814602884
32.27588311589227
27.1976806286717
28.27191577019913
22.314793621728846
17.920195315480278
14.11154345006485
10.205233844510566
11.08415350576028
7.080186160067139
4.150453955901427
4.736400396734569
1.7090104524299992
-0.34180209048599985
-3.662165255207141
-6.787212939650568
-6.103608758678568
-9.130998702983138
-11.279468986037996
-10.79118028534371
-13.720912489509422
-15.967040512703136
-19.287403677424276
-22.314793621728846
-21.63118944075685
-25.63515678644999
-28.564888990615703
-27.881284809643702
-30.908674753948272
-33.05714503700313
-36.37750820172427
-39.5025558861677
-38.818951705195694
-42.72526131074998
-45.654993514915695
-44.97138933394369
-47.998779278248264
-50.14724956130312
-52.49103532463569
-54.83482108796826
-54.346532387273975
-56.29968719005112
-57.764553292133975
-57.37392233157855
-59.42473487449455
-60.79194323643854
-62.35446707866026
-63.91699092088197
-63.526359960326545
-65.57717250324254
-66.94438086518655
-66.65140764476998
-67.62798504615854
-68.31158922713054
-69.0928511482414
-69.87411306935225
-69.67879758907453
-69.67879758907453
-69.67879758907453
-69.67879758907453
-67.7256427862974
-66.16311894407569
-61.768520637827116
-57.95986877241169
-58.74113069352254
-49.951934081025406
-43.311207751583126
-44.77607385366598
-31.103990234225986
-20.752269779507134
-6.787212939650568
6.298924238956283
3.36919203479057
22.119478141451133
36.0845349813077
32.95948729686427
51.80743114366369
65.77248798352025
77.88204776073853
90.38223849851225
87.64782177462425
98.6831464103151
106.69108110170139
104.8355840390631
111.96459906919966
117.04280155642023
119.67956054016938
122.8046082246128
122.12100404364081
123.19523918516823
123.78118562600137
123.58587014572366
122.70695048447395
121.92568856336308
119.19127183947509
116.84748607614252
117.3357747768368
112.35523002975509
108.64423590447852
109.42549782558937
103.4683756771191
99.07377737087053
93.31197070267795
87.84313725490196
89.01503013656824
80.12817578393225
73.48744945448996
74.95231555657283
66.06546120393683
59.42473487449455
51.31914244296941
43.50652323186084
45.26436255436027
37.15877012283513
31.2993057145037
32.6665140764477
24.65857938506142
18.799114976729992
14.404516670481422
9.619287403677424
10.693522545204852
4.736400396734569
0.34180209048599985
1.3183794918745708
-2.68558785381857
-5.615320057984283
-8.74036774242771
-11.865415426871138
-11.181811245899137
-15.088120851453422
-18.017853055619135
-17.43190661478599
-21.338216220340275
-24.267948424505988
-30.322728313115128
-35.69390402075227
-34.424353398947126
-45.16670481422141
-53.27229724574655
-51.51445792324712
-60.49897001602197
-67.0420386053254
-71.24132143129626
-76.02655069810025
-74.95231555657283
-77.10078583962768
-78.46799420157168
-78.17502098115511
-77.19844357976653
-76.41718165865568
-72.80384527351796
-69.77645532921339
-70.36240177004655
-66.3584344243534
-63.42870222018769
-64.11230640115969
-63.91699092088197
-63.91699092088197
-66.74906538490883
-68.99519340810254
-68.4092469672694
-71.43663691157397
-73.58510719462882
-73.09681849393453
-76.02655069810025
-78.17502098115511
-79.54222934309911
-81.20241092545967
-80.81177996490425
-83.74151216906996
-85.88998245212481
-85.40169375143053
-87.35484855420768
-88.81971465629053
-89.40566109712367
-90.18692301823454
-89.99160753795681
-91.8471046005951
-93.31197070267795
-93.01899748226138
-93.99557488364995
-94.67917906462196
-95.46044098573282
-96.14404516670481
-95.9487296864271
-95.9487296864271
-95.9487296864271
-95.9487296864271
-95.85107194628824
-95.85107194628824
-95.85107194628824
-95.75341420614939
-95.75341420614939
-95.75341420614939
-95.75341420614939
-95.65575646601053
-95.65575646601053
-95.65575646601053
-95.55809872587167
-95.55809872587167
-95.55809872587167
-95.46044098573282
-95.46044098573282
-95.46044098573282
-94.48386358434425
-93.70260166323338
-93.80025940337224
-93.80025940337224
-93.70260166323338
-92.72602426184481
-91.94476234073396
-92.14007782101167
-91.06584267948425
-90.2845807583734
-89.50331883726253
-88.72205691615167
-88.81971465629053
-87.84313725490196
-87.06187533379111
-87.15953307392996
-86.1829556725414
-85.40169375143053
-84.62043183031967
-83.83916990920882
-83.93682764934768
-81.98367284657053
-80.42114900434882
-80.81177996490425
-78.76096742198825
-77.29610131990539
-76.61249713893339
-75.73357747768368
-75.9288929579614
-73.97573815518425
-72.41321431296254
-72.80384527351796
-71.72961013199054
-70.94834821087969
-69.19050888838025
-67.62798504615854
-67.92095826657511
-65.96780346379796
-64.50293736171511
-64.79591058213168
-63.72167544060426
-62.9404135194934
-61.182574196993976
-59.71770809491112
-60.01068131532769
-57.95986877241169
-56.49500267032883
-56.7879758907454
-54.83482108796826
-53.36995498588541
-51.709773403524835
-50.14724956130312
-50.44022278171969
-48.48706797894255
-47.0222018768597
-47.31517509727627
-44.38544289311055
-42.13931486991684
-39.79552910658427
-37.35408560311284
-37.94003204394598
-31.103990234225986
-25.92813000686656
-27.100022888532845
-16.260013733119706
-8.154421301594567
6.201266498817426
19.18974593728542
16.260013733119706
36.96345464255741
52.39337758449683
48.97535667963683
72.60852979324025
90.2845807583734
109.23018234531166
127.88281071183337
123.68352788586252
143.60570687418937
158.25436789501794
154.93400473029678
169.97329671168077
180.9109636072328
187.94232089723047
195.8525978484779
193.99710078583962
198.1963836118105
200.93080033569848
200.24719615472648
201.3214312962539
201.90737773708705
200.73548485542076
200.05188067444877
200.05188067444877
195.26665140764476
191.45799954222935
192.2392614633402
186.2821393148699
181.7898832684825
175.05149919890135
168.89906157015335
170.1686121919585
159.32860303654536
151.12535286488136
152.88319218738079
142.92210269321737
135.50011444266423
125.63668268863965
116.35919737544823
118.41000991836424
108.35126268406195
100.92927443350881
102.58945601586939
93.60494392309452
86.96421759365225
80.71412222476539
74.46402685587854
75.83123521782254
69.77645532921339
65.38185702296482
66.3584344243534
60.30365453574426
55.90905622949569
52.10040436408026
48.19409475852598
48.97535667963683
43.99481193255512
40.38147554741741
41.16273746852827
36.182192721446555
32.471198596169984
25.63515678644999
19.58037689784085
20.947585259784848
11.08415350576028
3.662165255207141
5.322346837567712
-4.541084916456855
-11.865415426871138
